ECG,PPG
-0.4480176853673919,0.021527011705821567
-0.425857138196433,0.021527011705821567
-0.3306488614619431,0.021527011705821567
-0.31587516334797056,0.021527011705821567
-0.2928938551706799,0.021527011705821567
-0.2781201570567073,0.021527011705821567
-0.27565787403771186,0.021527011705821567
-0.29043157215168447,0.021527011705821567
-0.30192222624032977,0.021527011705821567
-0.30110146523399794,0.021527011705821567
-0.28550700611369356,0.021527011705821567
-0.26334645894273473,0.021527011705821567
-0.23544058472745322,0.021527011705821567
-0.20835547151850348,0.021527011705821567
-0.18455340233488102,0.021527011705821567
-0.1681381822082448,0.021527011705821567
-0.15336448409427225,0.021527011705821567
-0.14351535201829052,0.021527011705821567
-0.13448698094864062,0.021527011705821567
-0.12874165390431797,0.021527011705821567
-0.11807176082200443,0.021527011705821567
-0.10329806270803187,0.021527011705821567
-0.07375066648008671,0.021527011705821567
-0.031071094150832618,0.021527011705821567
0.029665220317721293,0.021527011705821567
0.0986091448495933,0.021527011705821567
0.18396828950810148,0.021527011705821567
0.276714283223596,0.021527011705821567
0.38423397505306306,0.021527011705821567
0.49339518889519374,0.021527011705821567
0.6156885788386334,0.021527011705821567
0.742085773813732,0.021527011705821567
0.8898227549534578,0.021527011705821567
1.052333434207156,0.021527011705821567
1.2435707486824676,0.021527011705821567
1.444657195233761,0.021527011705821567
1.6523097298357088,0.021527011705821567
1.8435470443110205,0.021527011705821567
2.0208314216786913,0.021527011705821567
2.181700578919726,0.021527011705821567
2.3442112581734245,0.021527011705821567
2.5108257424587817,0.021527011705821567
2.6897516418391163,0.021527011705821567
2.8686775412194505,0.021527011705821567
3.0410373525491305,0.021527011705821567
3.193698899726847,0.021527011705821567
3.3209168557082775,0.021527011705821567
3.4169458934490993,0.021527011705821567
3.480144490936649,0.021527011705821567
3.5023050381076075,0.021527011705821567
3.4768614469113217,0.021527011705821567
3.3997099123161316,0.021527011705821567
3.271671195328369,0.021527011705821567
3.096028339973362,0.021527011705821567
2.8818097173207597,0.021527011705821567
2.633939893408553,0.021527011705821567
2.363088761319056,0.021527011705821567
2.078284692121918,0.021527011705821567
1.794301383931112,0.021527011705821567
1.5193464468099558,0.021527011705821567
1.2640897738407628,0.021527011705821567
1.030993648042529,0.021527011705821567
0.8200580694152539,0.021527011705821567
0.6288207549399423,0.021527011705821567
0.46220627065458497,0.021527011705821567
0.3226768995781773,0.021527011705821567
0.21269492472971482,0.021527011705821567
0.12897730208387026,0.021527011705821567
0.06742022660898453,0.021527011705821567
0.01735380522274415,0.021527011705821567
-0.02204272308118271,0.021527011705821567
-0.05651468534711871,0.01981034945313398
-0.07867523251807758,0.017235356074102603
-0.09426969163838196,0.012085369316039846
-0.09755273566370919,0.0043603891789457125
-0.10083577968903643,-0.004222922084492214
-0.10247730170170005,-0.012806233347930141
-0.11068491176501814,-0.019672882358680484
-0.1147887167966772,-0.02568120024308703
-0.11889252182833625,-0.028256193622118408
-0.11232643377768177,-0.029972855874805995
-0.10247730170170005,-0.029972855874805995
-0.0893451256003911,-0.029972855874805995
-0.0819582765434048,-0.030831187001149788
-0.07867523251807758,-0.03426451150652496
-0.08277903754973662,-0.03941449826458771
-0.08359979855606843,-0.047139478401681846
-0.08031675453074119,-0.055722789665119773
-0.0729299054737549,-0.06430610092855771
-0.06882610044209586,-0.07117274993930804
-0.07375066648008671,-0.0763227366973708
-0.0893451256003911,-0.07975606120274598
-0.10904338975235453,-0.08147272345543355
-0.12710013189165434,-0.08061439232908976
-0.13777002497396787,-0.08061439232908976
-0.14187383000562692,-0.08233105458177735
-0.1484399180562814,-0.08662271021349631
-0.16403437717658578,-0.09263102809790286
-0.18947796837287187,-0.10121433936134079
-0.21656308158182158,-0.1115143128774663
-0.23790286774644864,-0.12095595526724802
-0.24528971680343492,-0.12953926653068595
-0.23954438975911224,-0.1372642466677801
-0.22559145265147149,-0.14498922680487422
-0.2099969935311671,-0.15443086919465593
-0.19932710044885357,-0.16301418045809385
-0.19686481742985815,-0.17073916059518798
-0.20507242749317625,-0.17674747847959454
-0.22641221365780329,-0.1818974652376573
-0.2567803708920803,-0.18533078974303246
-0.2945353771833435,-0.18962244537475142
-0.33146962246827494,-0.19648909438550177
-0.3618377797025519,-0.2050724056489397
-0.3823568048608471,-0.21365571691237764
-0.39466821995582424,-0.22223902817581556
-0.40369659102547417,-0.2282473460602221
-0.4135457231014559,-0.23339733281828487
-0.4242156161837694,-0.23597232619731623
-0.43570627027241476,-0.2419806440817228
-0.4439138803357328,-0.24798896196612932
-0.4504799683863873,-0.25657227322956727
-0.45540453442437817,-0.2651555844930052
-0.46279138348136445,-0.2737388957564431
-0.46935747153201895,-0.2788888825145059
-0.4751027985763416,-0.2848972003989124
-0.4742820375700098,-0.2874721937779438
-0.4636121444876963,-0.29348051166235034
-0.4406308363104056,-0.2986304984204131
-0.41108344008246045,-0.3089304719365386
-0.37907376083551986,-0.31837211432632034
-0.3503471256139066,-0.3312470812214772
-0.32490353441762043,-0.34326371699029035
-0.30766755328465245,-0.356997015011791
-0.2969976602023389,-0.3690136507806041
-0.2961768991960071,-0.3827469488021048
-0.3027429872466616,-0.39476358457091787
-0.3166959243543023,-0.40849688259241856
-0.33393190548727036,-0.4205135183612317
-0.3487056036012429,-0.4342468163827323
-0.3552716916518974,-0.44626345215154545
-0.3544509306455656,-0.45913841904670233
-0.34952636460757475,-0.4694383925628278
-0.3503471256139066,-0.47888003495260956
-0.36101701869622005,-0.4848883528370161
-0.38563984888617436,-0.48918000846873505
-0.421753333164774,-0.49261333297411025
-0.46279138348136445,-0.497763319732173
-0.4997256287662959,-0.5037716376165795
-0.529273024994241,-0.5132132800063612
-0.5530750941778635,-0.5235132535224868
-0.5735941193361588,-0.5363882204176437
-0.5916508614754585,-0.5484048561864567
-0.6097076036147584,-0.5621381542079574
-0.6220190187097355,-0.5741547899767705
-0.62858510676039,-0.5878880879982712
-0.6269435847477264,-0.5999047237670844
-0.6211982577034038,-0.6144963529149288
-0.615452930659081,-0.6256546575573981
-0.6162736916654129,-0.638529624452555
-0.6211982577034038,-0.6479712668423367
-0.62858510676039,-0.6582712403584622
-0.6294058677667218,-0.6625628959901811
-0.6195567356907401,-0.6711462072536192
-0.5924716224817904,-0.6762961940116818
-0.5530750941778635,-0.688312829780495
-0.503829433797955,-0.6960378099175891
-0.45704605643704177,-0.7106294390654336
-0.41682876712678313,-0.7209294125815591
-0.39138517593049704,-0.7363793728557474
-0.37743223882285626,-0.7466793463718728
-0.374149194797529,-0.7621293066460612
-0.3725076727848654,-0.7724292801621867
-0.37496995580386083,-0.7870209093100311
-0.37579071681019266,-0.7981792139525005
-0.3823568048608471,-0.8127708431003449
-0.3897436539178334,-0.8239291477428142
-0.40287583001914234,-0.8385207768906587
-0.41764952813311496,-0.849679081533128
-0.4340647482597511,-0.8634123795546287
-0.4480176853673919,-0.8754290153234418
-0.4619706224750327,-0.8891623133449424
-0.4800273646143325,-0.9011789491137555
-0.5054709558106185,-0.9149122471352562
-0.5391221570702227,-0.9277872140304131
-0.5760564023551542,-0.944953836557289
-0.6121698866337538,-0.9621204590841649
-0.6269435847477264,-0.9827204061164159
-0.6220190187097355,-1.003320353148667
-0.5891885784564631,-1.0256369624336055
-0.5473297671335409,-1.044520247213169
-0.5062917168169504,-1.0642618631190761
-0.47099899354468255,-1.0788534922669206
-0.4488384463737237,-1.0943034525411088
-0.42914018222176026,-1.1046034260572344
-0.41108344008246045,-1.1183367240787352
-0.3897436539178334,-1.131211690973892
-0.37743223882285626,-1.1509533068797992
-0.37661147781652443,-1.172411585038394
-0.38563984888617436,-1.2033115055867707
-0.3823568048608471,-1.2316364327561158
-0.3306488614619431,-1.2633946844308361
-0.1738835092525675,-1.2857112937157746
0.14457176120417464,-1.3080279030007134
0.6649342392185419,-1.3209028698958702
1.3707887046638982,-1.338069492422746
2.1800590569070626,-1.3483694659388716
2.937621465751323,-1.3681110818447788
3.46701231483534,-1.3827027109926233
3.625419189057379,-1.408452644782937
3.3775493651451725,-1.4273359295625005
2.801375138700242,-1.4556608567318456
2.069256321052268,-1.4771191348904404
1.3609395725879165,-1.5063023931861295
0.8069258933139449,-1.5260440090920366
0.44579105052794876,-1.5509356117560067
0.2438838429703236,-1.5672439031565386
0.12897730208387026,-1.586985519062446
0.04443891843169387,-1.6007188170839466
-0.037637182201487096,-1.6213187641161977
-0.11889252182833625,-1.6384853866430735
-0.1927610123981991,-1.661660327054356
-0.24939352183509397,-1.6805436118339192
-0.2945353771833435,-1.7037185522452016
-0.322441251398625,-1.7208851747720775
-0.34542255957591567,-1.739768459551641
-0.35363016963923377,-1.7543600886994855
-0.35773397467089285,-1.773243373479049
-0.356913213664561,-1.7912683271322685
-0.35773397467089285,-1.814443267543551
-0.36676234574054273,-1.8367598768284896
-0.3716869117785336,-1.863368141745147
-0.3798945218418517,-1.8874014132827734
-0.37496995580386083,-1.9148680093257746
-0.36512082372787913,-1.938901280863401
-0.3478848425949111,-1.9663678769064024
-0.33311114448093854,-1.9912594795703722
-0.32408277341128866,-2.0178677444870297
-0.32572429542395226,-2.0401843537719686
-0.3322903834746067,-2.063359294183251
-0.34296027655692024,-2.0813842478364704
-0.34952636460757475,-2.0994092014896903
-0.35116788662023835,-2.1122841683848472
-0.34213951555058847,-2.128592459785379
-0.3298281004556113,-2.138034102175161
-0.3109505973099797,-2.150909069070318
-0.2961768991960071,-2.1560590558283805
-0.27976167906937094,-2.161209042586443
-0.2699125469933892,-2.1517674001966616
-0.25595960988574845,-2.1397507644278484
-0.24611047780976672,-2.1122841683848472
-0.2272329746641351,-2.079667585583783
-0.20835547151850348,-2.029884380255843
-0.1730627482462357,-1.9775261815488716
-0.12956241491064976,-1.914009678199431
-0.05979772937244595,-1.8487765125973026
0.025561415286062247,-1.7672350555946423
0.1306188240965339,-1.6814019429602631
0.23075166686901463,-1.586985519062446
0.32595994360350455,-1.4985774130490352
0.4006491951796992,-1.412744300414656
0.4679515976989076,-1.3449361414334964
0.5344332392117842,-1.2865696248421186
0.6222546668892878,-1.2316364327561158
0.737981968782073,-1.1578199558905495
0.8832566669028032,-1.06512019424542
1.0465881071628333,-0.9483871610626642
1.221410201511509,-0.8162041676057201
1.401977622904507,-0.6720045383799629
1.5858280883228322,-0.5278049091542057
1.7729615977664848,-0.38618027330747995
1.9609158682164693,-0.24713063083978554
2.14722861665379,-0.10893931949843493
2.3204091889898018,0.024102005084852943
2.4779953022055095,0.14941834953104668
2.6191661952945804,0.26615138271380245
2.7496671953013383,0.37601776688580796
2.8678567802131187,0.4798758331734069
2.9720934280172586,0.5768672504502554
3.053348767644108,0.6712836743480726
3.1017736670176848,0.760550111487827
3.1066982330556754,0.8463832241222063
3.0590940946884304,0.9244913566194914
2.9606027739286134,1.000882826864089
2.8145073148015514,1.0686909858452487
2.626553044351567,1.1322074891946894
2.4049475726419782,1.1862823501543482
2.1620023147677627,1.236923886608632
1.9051041197859062,1.2789821117994777
1.6465644027913862,1.32018200586398
1.388024685796866,1.3562319131704192
1.1434379059099868,1.3957151449822336
0.9128040631307485,1.4300483900359853
0.7100760945667914,1.4678149595951122
0.5245841071358025,1.4995732112698326
0.3727433209644177,1.5321897940708966
0.24060079894499636,1.5579397278612104
0.13882643415985196,1.5854063239042118
0.04443891843169387,1.6060062709364629
-0.02860881113183719,1.6283228802214014
-0.09919425767637281,1.6420561782429022
-0.15336448409427225,1.654931145138059
-0.21245927655016253,1.659222800769778
-0.2567803708920803,1.6600811318961217
-0.30192222624032977,1.6523561517590277
-0.33146962246827494,1.6437728404955898
-0.3601962576898883,1.6283228802214014
-0.37661147781652443,1.6120145888208695
-0.3963097419684879,1.5914146417886184
-0.4102626790761286,1.5708146947563673
-0.42914018222176026,1.5484980854714288
-0.4398100753040738,1.5278981384391777
-0.44309311932940104,1.5081565225332705
-0.4299609432280921,1.4918482311327383
-0.40369659102547417,1.4746816086058625
-0.36676234574054273,1.4575149860789867
-0.3265450564302841,1.4369150390467358
-0.2887900501390208,1.4171734231408284
-0.2567803708920803,1.393998482729546
-0.23626134573378502,1.3742568668236388
-0.23215754070212596,1.3545152509177316
-0.24446895579710312,1.3390652906435434
-0.2699125469933892,1.3227569992430113
-0.305205270265657,1.310740363474198
-0.33967723253159304,1.2961487343263536
-0.36594158473421096,1.2858487608102283
-0.37579071681019266,1.2703988005360398
-0.37496995580386083,1.2600988270199145
-0.3626585407088837,1.244648866745726
-0.34952636460757475,1.2352072243559444
-0.3380357105189294,1.2188989329554123
-0.3347526664936022,1.2094572905656307
-0.3380357105189294,1.1931489991650985
-0.3487056036012429,1.183707356775317
-0.3618377797025519,1.1673990653747848
-0.3782529998291881,1.1588157541113469
-0.3897436539178334,1.141649131584471
-0.40123430800647875,1.133065820321033
-0.408621157063465,1.116757528920501
-0.4143664841077877,1.1064575554043754
-0.41764952813311496,1.0910075951301872
-0.4242156161837694,1.0807076216140616
-0.43570627027241476,1.0652576613398734
-0.4578668174433736,1.0549576878237479
-0.4915180187029778,1.0395077275495597
-0.5350183520385637,1.0292077540334341
-0.5818017293994768,1.0171911182646212
-0.6203774966970719,1.009466138127527
-0.6359719558173763,1.0017411579904327
-0.6269435847477264,0.9983078334850576
-0.5973961885197813,0.9940161778533386
-0.5645657482665088,0.9897245222216197
-0.5432259621018818,0.9819995420845256
-0.5440467231082136,0.9742745619474315
-0.5670280312855043,0.9622579261786184
-0.598216949526113,0.951099621536149
-0.6220190187097355,0.9373663235146483
-0.6318681507857172,0.9253496877458353
-0.6277643457540582,0.9116163897243346
-0.6195567356907401,0.9004580850818653
-0.6105283646210902,0.8901581115657398
-0.6056037985830993,0.8824331314286457
-0.5990377105324448,0.8755664824178953
-0.5875470564437996,0.8704164956598325
-0.5670280312855043,0.8618331843963946
-0.5432259621018818,0.8506748797539253
-0.5194238929182593,0.8335082572270495
-0.5021879117852913,0.814624972447486
-0.48823497467765054,0.7914500320362036
-0.4841311696459915,0.7708500850039526
-0.4857726916586551,0.748533475719014
-0.4980841067536323,0.7322251843184819
-0.5144993268802684,0.7133418995389185
-0.5374806350575592,0.6978919392647301
-0.5588204212221862,0.678150323358823
-0.5801602073868133,0.6592670385792595
-0.5949339055007858,0.6352337670416334
-0.6097076036147584,0.6120588266303509
-0.6195567356907401,0.5854505617136934
-0.6277643457540582,0.5614172901760671
-0.6253020627350627,0.5356673563857534
-0.6162736916654129,0.5142090782271586
-0.5998584715387767,0.49275080006856375
-0.5859055344311359,0.4755841775416879
-0.5793394463804814,0.45755922388846826
-0.5891885784564631,0.4412509324879362
-0.6105283646210902,0.42150931658202895
-0.6400757608490353,0.40262603180246553
-0.6663401130516532,0.37859276026483935
-0.6843968551909531,0.3554178198535569
-0.6893214212289439,0.32880955493689934
-0.6843968551909531,0.30391795227292934
-0.6688023960706486,0.27730968735627176
-0.6491041319186852,0.2524180846923018
-0.6269435847477264,0.2275264820283318
-0.6039622765704357,0.20349321049070562
-0.5785186853741496,0.17688494557404805
-0.5522543331715317,0.14856001840470287
-0.5235276979499184,0.11766009785632635
-0.49562182373463687,0.08504351505526223
-0.4701782325383507,0.0524269322541981
-0.4537630124117146,0.021527011705821567
-0.4463761633547283,-0.0033645909581484215
-0.4488384463737237,-0.026539531369430824
-0.45540453442437817,-0.047139478401681846
-0.4652536665003599,-0.06945608768662045
-0.473461276563678,-0.09177269697155907
-0.4841311696459915,-0.11838096188821665
-0.49562182373463687,-0.1441308956785304
-0.5153200878866002,-0.1715974917215318
-0.5407636790828864,-0.19648909438550177
-0.5727733583298269,-0.22309735930215935
-0.6006792325451085,-0.24798896196612932
-0.6220190187097355,-0.2737388957564431
-0.6253020627350627,-0.29605550504138173
-0.6170944526717447,-0.3192304454526641
-0.598216949526113,-0.33725539910588376
-0.5850847734248041,-0.3552803527591034
-0.5793394463804814,-0.3707303130332917
-0.590009339462795,-0.38961359781285515
-0.6080660816020947,-0.40763855146607475
-0.6294058677667218,-0.42995516075101337
-0.6433588048743626,-0.4531301011622958
-0.6532079369503443,-0.47888003495260956
-0.6573117419820034,-0.5037716376165795
-0.6655193520453214,-0.5295215714068934
-0.6770100061339668,-0.5526965118181757
-0.697529031292262,-0.5750131211031143
-0.7172272954442255,-0.5938964058826778
-0.732000993558198,-0.6110630284095536
-0.7344632765771935,-0.6273713198100856
-0.7237933834948799,-0.6453962734633053
-0.7032743583365847,-0.6642795582428688
-0.6794722891529622,-0.6857378364014636
-0.6564909809756715,-0.7071961145600584
-0.6359719558173763,-0.7286543927186533
-0.6146321696527492,-0.7466793463718728
-0.5924716224817904,-0.7647043000250925
-0.5686695532981679,-0.7810125914256246
-0.5514335721652,-0.7990375450788443
-0.5473297671335409,-0.8179208298584076
-0.5629242262538452,-0.8402374391433463
-0.594113144494454,-0.8634123795546287
-0.6343304338047127,-0.8891623133449424
-0.6679816350643168,-0.9140539160089125
-0.6876798992162803,-0.9406621809255701
-0.6852176161972848,-0.9629787902105086
-0.6638778300326578,-0.986153730621791
-0.62858510676039,-1.003320353148667
-0.5908301004691268,-1.0230619690545741
-0.5579996602158543,-1.0367952670760747
-0.54240520109555,-1.0573952141083258
-0.54240520109555,-1.073703505508858
-0.559641182228518,-1.097736777046484
-0.5818017293994768,-1.1166200618260476
-0.6047830375767675,-1.1406533333636737
-0.6179152136780764,-1.1578199558905495
-0.6236605407223992,-1.1801365651754883
-0.6187359746844083,-1.1930115320706451
-0.6146321696527492,-1.2127531479765523
-0.607245320595763,-1.2230531214926779
-0.6023207545577721,-1.238503081766866
-0.594113144494454,-1.2453697307776164
-0.5842640124184723,-1.2599613599254609
-0.567848792291836,-1.2702613334415864
-0.5522543331715317,-1.2908612804738375
-0.5317353080132364,-1.3097445652534008
-0.5169616098992639,-1.3372111612964022
-0.5054709558106185,-1.3612444328340285
-0.503829433797955,-1.3904276911297173
-0.5062917168169504,-1.4144609626673437
-0.5153200878866002,-1.4410692275840011
-0.525169219962582,-1.4642441679952836
-0.5374806350575592,-1.487419108406566
-0.5506128111588681,-1.5071607243124732
-0.5662072702791725,-1.5260440090920366
-0.5850847734248041,-1.5406356382398811
-0.6056037985830993,-1.5560855985140694
-0.6236605407223992,-1.5689605654092262
-0.6384342388363717,-1.5801188700516955
-0.6482833709123534,-1.5887021813151334
-0.6589532639946669,-1.5929938369468524
-0.6720854400959759,-1.590418843567821
-0.6901421822352757,-1.5801188700516955
-0.710661207393571,-1.5629522475248196
-0.7295387105392026,-1.5363439826081622
-0.7426708866405115,-1.5020107375544105
-0.7500577356974978,-1.459094181237221
-0.7525200187164932,-1.4101693070356247
-0.7533407797228251,-1.354377783823278
-0.7533407797228251,-1.2942946049792126
-0.7525200187164932,-1.2256281148717092
-0.7467746916721706,-1.151811638006143
-0.7377463206025207,-1.0711285121298264
-0.7221518614822163,-0.9878703928744786
-0.7008120753175893,-0.8977456246083804
-0.6720854400959759,-0.795604220573469
-0.6408965218553672,-0.6720045383799629
-0.6039622765704357,-0.5269465780278619
-0.5727733583298269,-0.356997015011791
-0.5432259621018818,-0.17245582284787558
-0.5218861759372547,0.009510375937008469
-0.49890486775996407,0.1725932899423291
-0.47838584260166883,0.3107846012836797
-0.4521214903990509,0.43009262784546687
-0.4316024652407557,0.5339506941330658
-0.4143664841077877,0.6309421114099144
-0.41272496209512405,0.723641873055044
-0.4184702891394467,0.8163416347001736
-0.4299609432280921,0.901316416208209
-0.4340647482597511,0.980282879831838
-0.4299609432280921,1.0489493699393413
-0.41929105014577855,1.113324204415126
-0.4135457231014559,1.17083238988016
-0.42093257215844215,1.2240489197134752
-0.4496592073800555,1.2721154627887274
-0.49315954071564144,1.3176070124849486
-0.5432259621018818,1.3588069065494506
-0.5867262954374677,1.3974318072349212
-0.6203774966970719,1.431765052288673
-0.645821087893358,1.464381635089737
-0.6688023960706486,1.493564893385426
-0.6942459872669348,1.5210314894284274
-0.7237933834948799,1.547639754345085
-0.7525200187164932,1.5725313570090549
-0.7763220879001157,1.5982812907993686
-0.7878127419887611,1.621456231210651
-0.7853504589697656,1.6446311716219335
-0.7681144778367976,1.6626561252751533
-0.7393878426151843,1.6798227478020291
-0.7040951193429165,1.6935560458235297
-0.6720854400959759,1.709006006097718
-0.645821087893358,1.7201643107401872
-0.6310473897793855,1.7347559398880317
-0.6211982577034038,1.7416225888987822
-0.6121698866337538,1.75020590016222
-0.5965754275134494,1.7476309067831886
-0.5760564023551542,1.7459142445305011
-0.5530750941778635,1.7330392776353443
-0.5391221570702227,1.7244559663719063
-0.5333768300259001,1.7072893438450303
-0.5383013960638909,1.6978477014552487
-0.5440467231082136,1.6806810789283728
-0.5497920501525363,1.672097767664935
-0.5473297671335409,1.654931145138059
-0.5432259621018818,1.6454895027482772
-0.5317353080132364,1.6274645490950577
-0.5161408488929321,1.613731251073557
-0.4898764966903142,1.5914146417886184
-0.4586875784497054,1.5725313570090549
-0.4233948551774376,1.5459230920923974
-0.4020550690128106,1.5236064828074587
-0.3987720249874833,1.4952815556381136
-0.4225740941711058,1.4721066152268312
-0.4644329054940281,1.443781688057486
-0.5136785658739367,1.4206067476462036
-0.5588204212221862,1.3922818204768586
-0.5834432514121405,1.3673902178128885
-0.5924716224817904,1.3407819528962308
-0.5859055344311359,1.3184653436112923
-0.5752356413488223,1.2961487343263536
-0.5670280312855043,1.2806987740521654
-0.5555373771968589,1.2661071449043209
-0.54240520109555,1.254090509135508
-0.5161408488929321,1.2386405488613197
-0.4833104086396597,1.2240489197134752
-0.4488384463737237,1.2060239660602554
-0.425857138196433,1.1905740057860672
-0.41682876712678313,1.1734073832591914
-0.41518724511411953,1.1613907474903782
-0.39466821995582424,1.1476574494688776
-0.3191582073732978,1.137357475952752
-0.13777002497396787,1.1244825090575952
0.19627970460307864,1.116757528920501
0.7100760945667914,1.1073158865307193
1.3831001197588753,1.103882562025344
2.1275303525018265,1.0978742441409375
2.794809050649588,1.0952992507619062
3.220784012935797,1.0875742706248122
3.2839826104233465,1.0832826149930932
2.970451906004595,1.0721243103506237
2.372117132388706,1.0661159924662174
1.664621144930686,1.0558160189500918
1.0129369059032292,1.0532410255710603
0.5270463901547979,1.04637437656031
0.22008177378670113,1.0446577143076223
0.045259679438025675,1.0360744030441844
-0.06964686144842766,1.0317827474124655
-0.17060046522724023,1.0189077805173086
-0.27155406900605283,1.0103244692538706
-0.3560924526582292,0.9948745089796824
-0.4119042010887923,0.984574535463557
-0.42831942121542843,0.9708412374420563
-0.4184702891394467,0.9631162573049621
-0.3881021319051698,0.9536746149151805
-0.35773397467089285,0.9502412904098052
-0.3290073394492795,0.9433746413990549
-0.3109505973099797,0.9382246546409921
-0.3027429872466616,0.9279246811248666
-0.2969976602023389,0.9159080453560535
-0.3002807042276662,0.8987414228291777
-0.29371461617701167,0.8815748003023018
-0.2969976602023389,0.864408177775426
-0.2945353771833435,0.8498165486275815
-0.29781842120867075,0.835224919479737
-0.2986391822150025,0.8223499525845801
-0.2986391822150025,0.8094749856894232
-0.2945353771833435,0.7974583499206102
-0.2945353771833435,0.7837250518991095
-0.3027429872466616,0.7717084161302964
-0.3306488614619431,0.7579751181087957
-0.3725076727848654,0.7459584823399826
-0.4225740941711058,0.7330835154448256
-0.4660744275066917,0.7202085485496688
-0.49890486775996407,0.7073335816545119
-0.5128578048676048,0.6953169458856988
-0.5169616098992639,0.6815836478641981
-0.5144993268802684,0.669567012095385
-0.5218861759372547,0.653258720694853
-0.529273024994241,0.6378087604206647
-0.5440467231082136,0.6172088133884137
-0.5448674841145454,0.5974671974825064
-0.5374806350575592,0.574292257071224
-0.5030086727916231,0.5545506411653168
-0.45540453442437817,0.5339506941330658
-0.3807152828481835,0.5193590649852213
-0.30110146523399794,0.5047674358373768
-0.2001478614551854,0.4970424557002827
-0.09591121365104557,0.48931747556318855
0.028023698305057673,0.4858841510578134
0.15688317629915177,0.48073416429975063
0.3046201574388775,0.4773008397943755
0.45399866059126687,0.4695758596572813
0.6165093398449651,0.4618508795201872
0.7790200190986635,0.4498342437513741
0.9480967864030162,0.4386759391089048
1.117173553707369,0.42494264108740415
1.2928164090623762,0.412926005318591
1.4725630694490426,0.39919270729709033
1.6572342958736996,0.38717607152827727
1.8410847612920251,0.37344277350677657
2.0232937046976867,0.36228446886430726
2.203861126090685,0.35026783309549414
2.379503981445692,0.34254285295840003
2.5494015097563767,0.3356762039476497
2.707808383978416,0.3313845483159307
2.8506207990801506,0.32709289268421177
2.967168861979268,0.3228012370524928
3.0558110506631033,0.31593458804174246
3.1124435600999982,0.30735127677830454
3.139528673308948,0.29619297213583523
3.14034943431528,0.2841763363670221
3.116547365131657,0.27130136947186523
3.0681224657580803,0.25928473370305216
2.9901501701565585,0.24812642906058283
2.876064390276437,0.2395431177971449
2.7217613210860567,0.23267646878639456
2.5247786795664227,0.2283848131546756
2.290041031755525,0.22495148864930042
2.0323220757673366,0.22151816414392525
1.768037031728494,0.2172265085122063
1.5152426417782967,0.21293485288048733
1.2796842329610674,0.20778486612242458
1.0712109373527876,0.20177654823801802
0.8816151448901397,0.19490989922726767
0.7166421826174459,0.18890158134286114
0.5606975914144021,0.1820349323321108
0.4310173524139762,0.17774327670039183
0.315290050521191,0.1725932899423291
0.23239318888167826,0.1700182965632977
0.16180774233714265,0.16486830980523495
0.12076969202055216,0.1580016607944846
0.08793925176727978,0.14941834953104668
0.07891088069762987,0.14169336939395255
0.06824098761531634,0.13396838925685842
0.06906174862164816,0.12881840249879564
0.05675033352667101,0.1236684157407329
0.041976635412698436,0.12023509123535772
0.005042390127767006,0.11422677335095117
-0.03271261616349624,0.10736012434020083
-0.07867523251807758,0.0987768130767629
-0.11232643377768177,0.09019350181332499
-0.14269459101195872,0.08246852167623085
-0.16321361617025396,0.07731853491816809
-0.18865720736654007,0.07302687928644913
-0.21738384258815338,0.06873522365473016
-0.25185580485408937,0.06272690577032361
-0.2805824400757027,0.055860256759573276
-0.30110146523399794,0.04727694549613535
-0.30766755328465245,0.03869363423269742
-0.30766755328465245,0.030968654095603284
-0.3084883142909843,0.02581866733754053
-0.3166959243543023,0.021527011705821567
-0.3290073394492795,0.017235356074102603
-0.33967723253159304,0.012085369316039846
-0.3380357105189294,0.0043603891789457125
-0.3199789683796296,-0.005081253210836007
-0.28961081114535264,-0.014522895600617727
-0.2584218929047439,-0.024822869116743237
-0.23872362875278044,-0.03426451150652496
-0.23708210674011682,-0.04370615389630668
-0.25185580485408937,-0.0531477962860884
-0.27401635202504826,-0.06344776980221391
-0.29043157215168447,-0.075464405571027
-0.2928938551706799,-0.08748104133984011
-0.27976167906937094,-0.10035600823499699
-0.2567803708920803,-0.11065598175112251
-0.23544058472745322,-0.12009762414090422
-0.2182046035944852,-0.12610594202531078
-0.21245927655016253,-0.13039759765702974
-0.21574232057548978,-0.13383092216240491
-0.22887449667679874,-0.13898090892046766
-0.24446895579710312,-0.14498922680487422
-0.26498798095539833,-0.15357253806831214
-0.28304472309469814,-0.16215584933175006
-0.30110146523399794,-0.17073916059518798
-0.3142336413353069,-0.17674747847959454
-0.33146962246827494,-0.1818974652376573
-0.352809408632902,-0.18533078974303246
-0.3782529998291881,-0.1904807765010952
-0.40369659102547417,-0.19648909438550177
-0.4225740941711058,-0.2050724056489397
-0.4324232262470875,-0.21365571691237764
-0.43898931429774196,-0.22223902817581556
-0.4488384463737237,-0.2282473460602221
-0.47099899354468255,-0.23253900169194106
-0.5046501948042867,-0.23683065732366004
-0.5440467231082136,-0.241122312955379
-0.5776979243678178,-0.24713063083978554
-0.5973961885197813,-0.25657227322956727
-0.5998584715387767,-0.2677305778720366
-0.5891885784564631,-0.27974721364084965
-0.5727733583298269,-0.2926221805360065
-0.559641182228518,-0.30549714743116346
-0.5538958551841954,-0.31579712094728896
-0.5555373771968589,-0.3243804322107269
-0.5563581382031908,-0.3303887500951334
-0.5522543331715317,-0.3355387368531962
-0.5383013960638909,-0.33897206135857133
-0.5186031319119275,-0.3441220481166341
-0.4997256287662959,-0.35013036600104064
-0.49480106272830504,-0.3595720083908224
-0.503829433797955,-0.36729698852791653
-0.5243484589562502,-0.3767386309176982
-0.5399429180765546,-0.381888617675761
-0.5473297671335409,-0.38703860443382376
-0.5383013960638909,-0.38961359781285515
-0.5235276979499184,-0.3956219156972617
-0.503829433797955,-0.40077190245532446
-0.48905573568398236,-0.41107187597144995
-0.4742820375700098,-0.4205135183612317
-0.4636121444876963,-0.4342468163827323
-0.4488384463737237,-0.44540512102520163
-0.4406308363104056,-0.45999675017304614
-0.43488550926608294,-0.47115505481551545
-0.4398100753040738,-0.4857466839633599
-0.44555540234839647,-0.4969049886058292
-0.45130072939271915,-0.5114966177536737
-0.4480176853673919,-0.5235132535224868
-0.4414515973167374,-0.5355298892912999
-0.4340647482597511,-0.5449715316810816
-0.4406308363104056,-0.5544131740708633
-0.4652536665003599,-0.5604214919552699
-0.5095747608422776,-0.5672881409660202
-0.5637449872601771,-0.5741547899767705
-0.6170944526717447,-0.584454763492896
-0.6564909809756715,-0.5938964058826778
-0.6778307671402986,-0.6067713727778347
-0.680293050159294,-0.6187880085466477
-0.6688023960706486,-0.6325213065681484
-0.6466418488996898,-0.6445379423369616
-0.6228397797160673,-0.6574129092321185
-0.598216949526113,-0.6685712138745877
-0.5785186853741496,-0.6788711873907133
-0.5645657482665088,-0.6865961675278074
-0.5588204212221862,-0.692604485412214
-0.5604619432348498,-0.6960378099175891
-0.5686695532981679,-0.7011877966756519
-0.5809809683931451,-0.7054794523073709
-0.5932923834881222,-0.7140627635708088
-0.6006792325451085,-0.7226460748342467
-0.6014999935514402,-0.7355210417294036
-0.5908301004691268,-0.7466793463718728
-0.5719525973234951,-0.7621293066460612
-0.54240520109555,-0.7741459424148742
-0.5103955218486094,-0.7921708960680939
-0.47756508159533706,-0.8076208563422822
-0.4537630124117146,-0.8299374656272208
-0.43898931429774196,-0.849679081533128
-0.43734779228507836,-0.8737123530707542
-0.43570627027241476,-0.8908789755976301
-0.4316024652407557,-0.9114789226298811
-0.41108344008246045,-0.9243538895250379
-0.38153604385451534,-0.9415205120519138
-0.3462433205822475,-0.9518204855680393
-0.322441251398625,-0.9672704458422275
-0.3101298363036479,-0.9784287504846969
-0.3191582073732978,-0.9955953730115727
-0.34131875454425664,-1.0101870021594173
-0.37496995580386083,-1.0299286180653244
-0.4102626790761286,-1.0470952405922003
-0.44473464134206464,-1.068553518750795
-0.47920660360800066,-1.0831451478986396
-0.5021879117852913,-1.1003117704255154
-0.5218861759372547,-1.1123284061943286
-0.5317353080132364,-1.1277783664685168
-0.54240520109555,-1.1406533333636737
-0.5538958551841954,-1.1578199558905495
-0.5612827042411817,-1.176703240670113
-0.5637449872601771,-1.1990198499550517
-0.5547166161905271,-1.2196197969873026
-0.5440467231082136,-1.2410780751458974
-0.5350183520385637,-1.2591030287991172
-0.5391221570702227,-1.2779863135786806
-0.5497920501525363,-1.2934362738528689
-0.5489712891462045,-1.3123195586324323
-0.49726334574730047,-1.3303445122856519
-0.34542255957591567,-1.3526611215705906
-0.0384579432078189,-1.3732610686028415
0.46220627065458497,-1.3955776778877802
1.151645515973305,-1.4136026315409997
1.9617366292228011,-1.4324859163205632
2.763620132408979,-1.4445025520893764
3.38986078024015,-1.4608108434899083
3.6984669186209103,-1.4711108170060339
3.6180323400003926,-1.487419108406566
3.182208245638202,-1.4985774130490352
2.5075426984334546,-1.5191773600812863
1.755725616633517,-1.5354856514818183
1.0671071323211285,-1.5603772541457883
0.5360747612244479,-1.578402207799008
0.18314752850176969,-1.603293810462978
-0.012193591005200996,-1.6178854396108224
-0.10329806270803187,-1.6393437177694172
-0.13694926396763604,-1.6513603535382304
-0.1574682891259313,-1.673676962823169
-0.1820911193158856,-1.6891269230973573
-0.22148764761981243,-1.7140185257613272
-0.26170493693007113,-1.732043479414547
-0.30192222624032977,-1.7569350820785168
-0.3290073394492795,-1.7723850423527052
-0.3462433205822475,-1.7921266582586124
-0.352809408632902,-1.8041432940274253
-0.35116788662023835,-1.8204515854279575
-0.3552716916518974,-1.8298932278177393
-0.3519886476265702,-1.84362652583924
-0.3643000627215473,-1.8504931748499902
-0.36758310674687455,-1.8582181549870844
-0.38563984888617436,-1.8573598238607405
-0.39302669794316064,-1.8522098371026778
-0.40123430800647875,-1.8401932013338647
-0.4004135470001469,-1.8213099165543014
-0.39959278599381515,-1.7938433205113
-0.3987720249874833,-1.7595100754575483
-0.40533811303813777,-1.7183101813930461
-0.41682876712678313,-1.6668103138124186
-0.43324398725341934,-1.6015771482102903
-0.44555540234839647,-1.5234690157130053
-0.45130072939271915,-1.4393525653313135
-0.44555540234839647,-1.355236114949622
-0.43652703127874654,-1.279702975831368
-0.4225740941711058,-1.2170448036082713
-0.41518724511411953,-1.1698365916593627
-0.4069796350508014,-1.1226283797104541
-0.404517352031806,-1.0642618631190761
-0.39138517593049704,-0.9835787372427597
-0.3708661507722018,-0.8805790020815045
-0.3298281004556113,-0.7569793198879984
-0.28140320108203454,-0.622221333052023
-0.21492155956915796,-0.48231335945798476
-0.1492606790626132,-0.3466970414956655
-0.07375066648008671,-0.21365571691237764
-0.0039859809418829,-0.08404771683446494
0.0813731637166253,0.04298528986441638
0.17165687441312436,0.16658497205792253
0.2890256983185731,0.2867513297460535
0.4162436543000036,0.4034843629288093
0.5672636794650566,0.5150674093535024
0.7199252266427731,0.6206421378937889
0.8840774279091351,0.7202085485496688
1.0449465851501698,0.8137666413211422
1.215664874467186,0.8995997539555215
1.3872039247905343,0.9794245487054942
1.565309063164537,1.0540993566974042
1.7368481134878853,1.1236241779312515
1.9010003147542471,1.1879990124070359
2.0495580569003047,1.248940522377445
2.181700578919726,1.3038737144634478
2.3007109248378383,1.3545152509177316
2.4098721386799693,1.3991484694876088
2.514929547490441,1.4394900324257671
2.617524673281917,1.4746816086058625
2.716836755048066,1.5064398602805829
2.807120465744565,1.5339064563235842
2.879347434301764,1.560514721240242
2.920385484618355,1.5854063239042118
2.9212062456246866,1.6120145888208695
2.8736021072574416,1.6403395159902145
2.77757306951662,1.6686644431595596
2.6355814154212167,1.696989370328905
2.4574762770472143,1.7227393041192187
2.2522860254642616,1.7433392511514696
2.0298597927483413,1.7562142180466265
1.7975844279564392,1.7639391981837207
1.5603844971265461,1.7656558604364083
1.3248260883093168,1.766514191562752
1.0974752895554056,1.763080867057377
0.8873604719344623,1.7605058736783454
0.7018684845034734,1.7519225624149075
0.5492069373257568,1.7450559134041572
0.42937583040131255,1.729605953129969
0.3448374467491362,1.7158726551084682
0.2849218932869141,1.6935560458235297
0.24962917001464627,1.6755310921703102
0.22500633982469198,1.6480644961273088
0.21187416372338302,1.626606217968714
0.18971361655242416,1.597422959673025
0.16509078636246988,1.5759646815144301
0.11912817000788854,1.5459230920923974
0.06906174862164816,1.5244648139338026
0.005042390127767006,1.49442322451177
-0.04994859729646424,1.4729649463531749
-0.1074018677396909,1.4429233569311422
-0.15418524510060405,1.4214650787725474
-0.2091762325248353,1.3922818204768586
-0.2625256979364029,1.3699652111919198
-0.32408277341128866,1.3407819528962308
-0.3798945218418517,1.3176070124849486
-0.43324398725341934,1.2901404164419472
-0.47264051555734615,1.2669654760306648
-0.5046501948042867,1.241215542240351
-0.5284522639879092,1.2206155952081
-0.5506128111588681,1.2000156481758488
-0.5694903143044997,1.1845656879016606
-0.5867262954374677,1.1682573965011285
-0.6006792325451085,1.1562407607323155
-0.6121698866337538,1.1425074627108147
-0.6203774966970719,1.1304908269420018
-0.6236605407223992,1.116757528920501
-0.6220190187097355,1.104740893151688
-0.611349125627422,1.0910075951301872
-0.5875470564437996,1.0789909593613742
-0.5456882451208772,1.0652576613398734
-0.4857726916586551,1.0540993566974042
-0.4135457231014559,1.0403660586759034
-0.3372149495125976,1.0283494229070904
-0.26580874196173016,1.0146161248855896
-0.21328003755649436,1.0025994891167767
-0.18127035830955376,0.988866191095276
-0.17142122623357206,0.9777078864528066
-0.17470427025889929,0.9631162573049621
-0.18947796837287187,0.9519579526624928
-0.2091762325248353,0.9373663235146483
-0.23626134573378502,0.9262080188721791
-0.26745026397439375,0.9116163897243346
-0.30766755328465245,0.901316416208209
-0.3487056036012429,0.8858664559340208
-0.3922059369368288,0.8755664824178953
-0.4299609432280921,0.860116522143707
-0.4660744275066917,0.8506748797539253
-0.4980841067536323,0.8377999128587684
-0.5325560690195683,0.8317915949743618
-0.5629242262538452,0.8232082837109239
-0.594113144494454,0.818916628079205
-0.6187359746844083,0.8094749856894232
-0.6392549998427035,0.8017500055523291
-0.6523871759440125,0.789733369783516
-0.6646985910389897,0.7794333962673905
-0.676189245127635,0.764841767119546
-0.6909629432416076,0.7536834624770767
-0.7073781633682438,0.7390918333292322
-0.7246141445012118,0.7270751975604192
-0.7336425155708616,0.7124835684125747
-0.7311802325518661,0.6970336081383864
-0.7098404463872392,0.678150323358823
-0.6696231570769805,0.6584087074529157
-0.6162736916654129,0.6369504292943209
-0.5588204212221862,0.6154921511357261
-0.5062917168169504,0.5948922041034751
-0.4718197545510144,0.5768672504502554
-0.45458377341804634,0.5597006279233796
-0.45130072939271915,0.5433923365228475
-0.4504799683863873,0.5245090517432841
-0.4439138803357328,0.503909104711033
-0.42667789920276483,0.48159249542609445
-0.40369659102547417,0.45755922388846826
-0.38399832687351076,0.43180929009815444
-0.3798945218418517,0.4060593563078407
-0.39466821995582424,0.3803094225175269
-0.425857138196433,0.3545594887272131
-0.46279138348136445,0.32880955493689934
-0.49890486775996407,0.30391795227292934
-0.525169219962582,0.2781680184826156
-0.5481505281398726,0.2524180846923018
-0.5727733583298269,0.2275264820283318
-0.6121698866337538,0.20349321049070562
-0.6663401130516532,0.17860160782673562
-0.732000993558198,0.15371000516276564
-0.7919165470204201,0.12710174024610807
-0.8370584023686697,0.0987768130767629
-0.8567566665206331,0.06959355478107396
-0.8559359055143012,0.040410296485385
-0.8419829684066605,0.011227038189696054
-0.8280300312990198,-0.016239557853305314
-0.814077094191379,-0.042847822769962886
-0.80094491809007,-0.06859775656027667
-0.7787843709191111,-0.09434769035059044
-0.7500577356974978,-0.11923929301456043
-0.71476501242523,-0.14498922680487422
-0.6876798992162803,-0.17073916059518798
-0.6729062011023077,-0.19648909438550177
-0.6737269621086395,-0.22223902817581556
-0.680293050159294,-0.24798896196612932
-0.6819345721719576,-0.2728805646300993
-0.6671608740579851,-0.29691383616772554
-0.6376134778300399,-0.31837211432632034
-0.5998584715387767,-0.33725539910588376
-0.5653865092728406,-0.35442202163275965
-0.5383013960638909,-0.3707303130332917
-0.5235276979499184,-0.38875526668651134
-0.5186031319119275,-0.40763855146607475
-0.5202446539245912,-0.42995516075101337
-0.5227069369435866,-0.4531301011622958
-0.5276315029815775,-0.47888003495260956
-0.5317353080132364,-0.5037716376165795
