ECG,PPG
-0.6188057580158871,-0.48077739131826924
-0.010448763811133903,-0.23777725742285566
-0.5483118362421612,-0.5044847214544071
-0.8530454035947246,-0.6393201616036915
-0.5483118362421612,-0.5044847214544071
-0.32295331466631283,-0.4318810229124848
-0.4778179144684352,-0.5289329056572994
-0.6354578655214917,-0.5970914797986959
-0.5483118362421612,-0.5526402357934374
-0.441738348206292,-0.520783510923002
-0.4778179144684352,-0.5526402357934374
-0.557748030495337,-0.5815335443968555
-0.5483118362421612,-0.5770884199963295
-0.47948312521899566,-0.583015252530364
-0.40732399269470926,-0.6007957501324674
-0.3845661124370497,-0.6052408745329934
-0.40732399269470926,-0.6007957501324674
-0.4372977862047975,-0.6126494152005364
-0.40732399269470926,-0.6252439343353596
-0.35348217842658786,-0.625984788402114
-0.33683007092098327,-0.6252439343353596
-0.36236330242957693,-0.6385793075369373
-0.33683007092098327,-0.6489512644714976
-0.26411586814651,-0.6519146807385149
-0.19528715712334452,-0.6489512644714976
-0.19695236787390497,-0.6608049295395666
-0.19528715712334452,-0.6733994486743898
-0.1469960453570913,-0.67858542714167
-0.05429931357589258,-0.6733994486743898
-0.005453131559452535,-0.6733994486743898
0.01619460819783339,-0.6733994486743898
0.03451192645399841,-0.6733994486743898
0.08668852997155936,-0.6733994486743898
0.12443330698426303,-0.6852531137424588
0.15718245174528533,-0.6971067788105277
0.18105047250331854,-0.7037744654113165
0.2276763735190113,-0.6971067788105277
0.26098058853022044,-0.6941433625435105
0.29817029529273725,-0.6971067788105277
0.34202084505749597,-0.7111830060788596
0.43971320909037603,-0.7208141089466656
0.5512823293779265,-0.7274817955474544
0.6511949744115539,-0.7208141089466656
0.690604962174818,-0.7185915467464027
0.7216888961852799,-0.7208141089466656
0.7677597269507859,-0.7356311902817518
0.8626767397327318,-0.7452622931495578
0.9648096657671065,-0.7489665634833295
1.0747135753040966,-0.7452622931495578
1.1540886210808117,-0.7460031472163122
1.2157014188515485,-0.7452622931495578
1.2428998611107027,-0.7467440012830665
1.2861953406252744,-0.7452622931495578
1.345587857395264,-0.7474848553498208
1.4271831841727265,-0.7452622931495578
1.4738090851884191,-0.7445214390828035
1.4976771059464524,-0.7452622931495578
1.5121089324513097,-0.7578568122843812
1.5687260979703652,-0.7689696232856957
1.621457771738113,-0.7756373098864846
1.6392200197440912,-0.7689696232856957
1.5959245402295192,-0.7660062070186785
1.5687260979703652,-0.7689696232856957
1.563730465718684,-0.783786704620782
1.5687260979703652,-0.793417807488588
1.5309813209576615,-0.7978629318891138
1.4976771059464524,-0.793417807488588
1.468258382686551,-0.7926769534218338
1.4271831841727265,-0.793417807488588
1.3233850473877913,-0.7971220778223596
1.2157014188515485,-0.793417807488588
1.131330740823152,-0.7911952452883251
1.0747135753040966,-0.793417807488588
0.9770212112712164,-0.8074940347569199
0.8626767397327318,-0.8171251376247259
0.7450018466931263,-0.8223111160920061
0.6511949744115539,-0.8171251376247259
0.5424012053749375,-0.8178659916914802
0.43971320909037603,-0.8171251376247259
0.32925422930319914,-0.8200885538917432
0.2276763735190113,-0.8171251376247259
0.11000148047940575,-0.8186068457582345
0.01619460819783339,-0.8171251376247259
-0.06373550782906849,-0.8200885538917432
-0.12479323534961854,-0.8171251376247259
-0.20472335137652042,-0.8186068457582345
-0.2657810788970705,-0.8171251376247259
-0.3146272609135105,-0.8215702620252517
-0.33683007092098327,-0.8171251376247259
-0.37457484793368695,-0.8097165969571828
-0.40732399269470926,-0.793417807488588
-0.44839919120853383,-0.7823049964872734
-0.4778179144684352,-0.7689696232856957
-0.5216684642331939,-0.7615610826181527
-0.5483118362421612,-0.7452622931495578
-0.5632987329972052,-0.7200732548799114
-0.5483118362421612,-0.6733994486743898
-0.5455364849912271,-0.6230213721350968
-0.5483118362421612,-0.5770884199963295
-0.5616335222466449,-0.5467134032594029
-0.5483118362421612,-0.5044847214544071
-0.5416509932399194,-0.4504023745813426
-0.5483118362421612,-0.384466362640209
-0.5738450677507548,-0.3281614535668814
-0.5483118362421612,-0.26370714975925647
-0.48003819546918247,-0.1896217430838255
-0.40732399269470926,-0.09553327660602816
-0.3967776579411597,-0.009594204862528224
-0.40732399269470926,0.07264059654720016
-0.41620511669769833,0.1496894194896484
-0.40732399269470926,0.2415553237671828
-0.41676018694788514,0.33564379024498014
-0.40732399269470926,0.43417738112330334
-0.37846033968499465,0.5186347447332946
-0.33683007092098327,0.6023512542765317
-0.3323895089194887,0.6808817853524886
-0.33683007092098327,0.77052512742976
-0.34238077342285145,0.8549824910397513
-0.33683007092098327,0.9394398546497427
-0.34515612467378554,1.009820990991402
-0.33683007092098327,1.0831655436000787
-0.3307242981689283,1.1461381392741952
-0.33683007092098327,1.2039247564810311
-0.3634734429299506,1.2468942923527813
-0.33683007092098327,1.3002357851590916
-0.2618955871457628,1.3498730076316303
-0.19528715712334452,1.3965468138371517
-0.2158247563802568,1.418772435839781
-0.2657810788970705,1.444702328176182
-0.2902041699052905,1.4743364908463543
-0.2657810788970705,1.51656517265135
-0.2591202358948287,1.5417542109209965
-0.2657810788970705,1.56472068699038
-0.2791027649015541,1.5825011845924837
-0.2657810788970705,1.6128762013294102
-0.26411586814651,1.635842677398794
-0.2657810788970705,1.6610317156684404
-0.2774375541509937,1.672144526669755
-0.2657810788970705,1.6847390458045783
-0.2630057276461364,1.6899250242718584
-0.2657810788970705,1.7091872300074706
-0.2818781161524882,1.7225226032090482
-0.2657810788970705,1.7328945601436085
-0.25245939289258684,1.7262268735428197
-0.2657810788970705,1.7328945601436085
-0.32128810391575235,1.744007371144923
-0.33683007092098327,1.7573427443465006
-0.30519106666033463,1.744007371144923
-0.2657810788970705,1.7328945601436085
-0.2935345914064114,1.7262268735428197
-0.33683007092098327,1.7328945601436085
-0.3551473891771483,1.7225226032090482
-0.33683007092098327,1.7091872300074706
-0.33905035192173055,1.6899250242718584
-0.33683007092098327,1.6847390458045783
-0.3174026121644446,1.672144526669755
-0.2657810788970705,1.6610317156684404
-0.22970151263492727,1.6425103639995826
-0.19528715712334452,1.6365835314655481
-0.18474082236979497,1.6247298663974792
-0.19528715712334452,1.6128762013294102
-0.2419130581390373,1.5847237467927464
-0.2657810788970705,1.56472068699038
-0.27022164089856504,1.5461993353215224
-0.2657810788970705,1.5410133568542421
-0.2835433269030487,1.5202694429851216
-0.2657810788970705,1.4928578425152121
-0.2241508101330591,1.449888306643462
-0.19528715712334452,1.4202541439732896
-0.2341420746364218,1.3928425435033802
-0.2657810788970705,1.3720986296342597
-0.25079418214202637,1.3357967803632984
-0.19528715712334452,1.3002357851590916
-0.1825205413690477,1.2587479574208502
-0.19528715712334452,1.2276320866171693
-0.2097189836282018,1.1898485292126995
-0.19528715712334452,1.1557692421420012
-0.19473208687315768,1.1142814144037598
-0.19528715712334452,1.0831655436000787
-0.20305814062595998,1.0468636943291176
-0.19528715712334452,1.0113026991249108
-0.19972771912483905,0.9609246225856176
-0.19528715712334452,0.9149916704468505
-0.19972771912483905,0.8697995723748375
-0.19528715712334452,0.8431288259716824
-0.20305814062595998,0.8097903929677385
-0.19528715712334452,0.77052512742976
-0.19528715712334452,0.7157019264899411
-0.19528715712334452,0.6742140987516997
-0.21027405387838863,0.643839082014773
-0.19528715712334452,0.6260585844126696
-0.1625380123623222,0.5927201514087257
-0.12479323534961854,0.5541957399375016
-0.144775764356344,0.5097444959322429
-0.19528715712334452,0.4815920413955792
-0.2341420746364218,0.454921294992424
-0.19528715712334452,0.43417738112330334
-0.13922506185447583,0.4060249265866396
-0.12479323534961854,0.3860218667842732
-0.17585969836680587,0.3600919744478724
-0.19528715712334452,0.3378663524452431
-0.16642350411362994,0.3074913357083164
-0.12479323534961854,0.28971083810621295
-0.13200914860204718,0.27341204863761814
-0.12479323534961854,0.2652626539033207
-0.08871366908747533,0.24303703190069142
-0.05429931357589258,0.2171071395642906
-0.08926873933766215,0.18599126876060956
-0.12479323534961854,0.16895162522526044
-0.11202661959532172,0.15487539795692856
-0.05429931357589258,0.14524429508912254
-0.03986748707103529,0.12227781901973893
-0.05429931357589258,0.09708878075009239
-0.0698412805811235,0.06671376401316569
-0.05429931357589258,0.04893326641106225
-0.05318917307551894,0.03337533100922174
-0.05429931357589258,0.024485082208170028
-0.06262536732869485,0.003000314272295042
-0.05429931357589258,-0.023670432130860113
-0.05762973507701349,-0.05552715700129544
-0.05429931357589258,-0.07182594646989025
-0.05873987557738713,-0.0836796115379592
-0.05429931357589258,-0.09553327660602816
-0.061515226828321216,-0.12220402300918332
-0.05429931357589258,-0.1436887909450583
-0.05318917307551894,-0.16072843448040744
-0.05429931357589258,-0.16739612108119623
-0.08982380958784897,-0.1814723483495281
-0.12479323534961854,-0.19184430528408844
-0.14866125610765174,-0.2044388244189117
-0.12479323534961854,-0.21555163542022635
-0.08926873933766215,-0.2407406736898729
-0.05429931357589258,-0.26370714975925647
-0.05374424332570576,-0.28296935549486857
-0.05429931357589258,-0.2881553339621487
-0.0609601565781344,-0.2992681449634634
-0.05429931357589258,-0.3118626640982866
-0.05985001607776076,-0.32964316170039004
-0.05429931357589258,-0.33631084830117886
-0.05651959457663985,-0.3459419511689849
-0.05429931357589258,-0.36001817843731676
-0.06484564832944213,-0.38742977890722624
-0.05429931357589258,-0.4081736927763469
-0.05041382182458485,-0.4244724822449417
-0.05429931357589258,-0.43262187697923915
-0.07650212358336532,-0.4459572501808167
-0.05429931357589258,-0.45632920711537706
-0.009893693560947084,-0.4696645803169546
0.01619460819783339,-0.48077739131826924
-0.02377044981561755,-0.4978170348536184
-0.05429931357589258,-0.5044847214544071
-0.038202276320474834,-0.5059664295879158
0.01619460819783339,-0.5044847214544071
0.028406153701943403,-0.5163383865224761
0.01619460819783339,-0.5289329056572994
0.0017627816929761076,-0.542268278858877
0.01619460819783339,-0.5526402357934374
0.01730474869820703,-0.5696798793287865
0.01619460819783339,-0.5770884199963295
0.007313484194844295,-0.5785701281298382
0.01619460819783339,-0.5770884199963295
0.0134192569468993,-0.5889420850643985
0.01619460819783339,-0.6007957501324674
0.010088835445778387,-0.6141311233340451
0.01619460819783339,-0.6252439343353596
0.011198975946152025,-0.6422835778707088
0.01619460819783339,-0.6489512644714976
0.012309116446525662,-0.6489512644714976
0.01619460819783339,-0.6489512644714976
0.00897869494540475,-0.6637683458065838
0.01619460819783339,-0.6733994486743898
0.015084467697459756,-0.6748811568078984
0.01619460819783339,-0.6733994486743898
0.00509320319409702,-0.6859939678092131
0.01619460819783339,-0.6971067788105277
0.02063517019932794,-0.7015519032110535
0.01619460819783339,-0.6971067788105277
-0.005453131559452535,-0.7067378816783337
0.01619460819783339,-0.7208141089466656
0.05949008771240525,-0.7304452118144716
0.08668852997155936,-0.7208141089466656
0.048388682708668876,-0.7156281304793854
0.01619460819783339,-0.7208141089466656
0.028961223952130223,-0.7385946065487691
0.08668852997155936,-0.7452622931495578
0.10445077797753756,-0.7445214390828035
0.08668852997155936,-0.7452622931495578
0.06282050921352617,-0.760079374484644
0.08668852997155936,-0.7689696232856957
0.10334063747716392,-0.7711921854859587
0.08668852997155936,-0.7689696232856957
0.03229164545325113,-0.7815641424205191
0.01619460819783339,-0.793417807488588
0.020080099949141124,-0.7986037859558682
0.01619460819783339,-0.793417807488588
-0.014334255562441634,-0.7941586615553423
0.01619460819783339,-0.793417807488588
0.09778993497529574,-0.793417807488588
0.15718245174528533,-0.793417807488588
0.11999274498276848,-0.8060123266234113
0.08668852997155936,-0.8171251376247259
0.1294289392359444,-0.8223111160920061
0.2276763735190113,-0.8171251376247259
0.2570950967789127,-0.8178659916914802
0.2276763735190113,-0.8171251376247259
0.1977025800089231,-0.8193476998249889
0.2276763735190113,-0.8171251376247259
0.26486608028152814,-0.8200885538917432
0.29817029529273725,-0.8171251376247259
0.32037310530021,-0.8156434294912173
0.36921928731665005,-0.8171251376247259
0.4114046263308483,-0.8312013648930578
0.43971320909037603,-0.8415733218276181
0.41695532883271647,-0.8452775921613896
0.36921928731665005,-0.8415733218276181
0.29372973329124274,-0.8430550299611268
0.2276763735190113,-0.8415733218276181
0.16939399724939536,-0.8408324677608638
0.15718245174528533,-0.8415733218276181
0.17772005100219762,-0.8541678409624414
0.2276763735190113,-0.865280651963756
0.24599369177517633,-0.8704666304310362
0.2276763735190113,-0.865280651963756
0.15829259224565898,-0.865280651963756
0.08668852997155936,-0.865280651963756
0.02674094295138295,-0.8682440682307733
0.01619460819783339,-0.865280651963756
0.01730474869820703,-0.8667623600972647
0.01619460819783339,-0.865280651963756
-0.022105239065057094,-0.867503214164019
-0.05429931357589258,-0.865280651963756
-0.07206156158187077,-0.8667623600972647
-0.05429931357589258,-0.865280651963756
-0.048193540823837575,-0.867503214164019
-0.05429931357589258,-0.865280651963756
-0.09315423108896988,-0.8667623600972647
-0.12479323534961854,-0.865280651963756
-0.1469960453570913,-0.867503214164019
-0.12479323534961854,-0.865280651963756
-0.09093395008822261,-0.8667623600972647
-0.05429931357589258,-0.865280651963756
-0.05929494582757394,-0.8667623600972647
-0.05429931357589258,-0.865280651963756
-0.06318043757888167,-0.8667623600972647
-0.05429931357589258,-0.865280651963756
-0.06762099958037622,-0.8667623600972647
-0.05429931357589258,-0.865280651963756
-0.05374424332570576,-0.8667623600972647
-0.05429931357589258,-0.865280651963756
-0.05041382182458485,-0.8667623600972647
0.01619460819783339,-0.865280651963756
0.08113782746969117,-0.8667623600972647
0.08668852997155936,-0.865280651963756
0.056714736461471155,-0.8667623600972647
0.15718245174528533,-0.865280651963756
0.3747699898185182,-0.8667623600972647
0.510207130864102,-0.865280651963756
0.41640025858252966,-0.8667623600972647
0.43971320909037603,-0.865280651963756
1.2046000138478121,-0.8667623600972647
3.0502085957189844,-0.865280651963756
5.501953890794162,-0.8667623600972647
7.6361990027624795,-0.865280651963756
8.735238098132381,-0.8667623600972647
8.694717969868742,-0.865280651963756
7.672278569024623,-0.8667623600972647
5.872740817918957,-0.865280651963756
3.616935321159726,-0.8667623600972647
1.5687260979703652,-0.865280651963756
0.31426733254815503,-0.8667623600972647
-0.05429931357589258,-0.865280651963756
-0.0032328505587052602,-0.8667623600972647
0.01619460819783339,-0.865280651963756
-0.14533083460653085,-0.8667623600972647
-0.33683007092098327,-0.865280651963756
-0.4517296127096547,-0.8667623600972647
-0.4778179144684352,-0.865280651963756
-0.5050163567275894,-0.8667623600972647
-0.5483118362421612,-0.865280651963756
-0.6021536505102826,-0.867503214164019
-0.6188057580158871,-0.865280651963756
-0.625466601018129,-0.8667623600972647
-0.6188057580158871,-0.865280651963756
-0.6299071630196236,-0.867503214164019
-0.6188057580158871,-0.865280651963756
-0.6265767415185026,-0.8667623600972647
-0.6188057580158871,-0.865280651963756
-0.6282419522690631,-0.867503214164019
-0.6188057580158871,-0.865280651963756
-0.6215811092668212,-0.8667623600972647
-0.6188057580158871,-0.865280651963756
-0.6260216712683158,-0.8682440682307733
-0.6188057580158871,-0.865280651963756
-0.619360828266074,-0.865280651963756
-0.6188057580158871,-0.865280651963756
-0.6326825142705577,-0.8704666304310362
-0.6188057580158871,-0.865280651963756
-0.5882768942556121,-0.8549086950291958
-0.5483118362421612,-0.8415733218276181
-0.5433162039904799,-0.8400916136941096
-0.5483118362421612,-0.8415733218276181
-0.5583031007455239,-0.8445367380946354
-0.5483118362421612,-0.8415733218276181
-0.548866906492348,-0.8423141758943724
-0.5483118362421612,-0.8415733218276181
-0.557748030495337,-0.8437958840278811
-0.5483118362421612,-0.8415733218276181
-0.5283293072354357,-0.8430550299611268
-0.4778179144684352,-0.8415733218276181
-0.43396736470367653,-0.8430550299611268
-0.40732399269470926,-0.8415733218276181
-0.4156500464475115,-0.8430550299611268
-0.40732399269470926,-0.8415733218276181
-0.3795704801853683,-0.8423141758943724
-0.33683007092098327,-0.8415733218276181
-0.3296141576685546,-0.8437958840278811
-0.33683007092098327,-0.8415733218276181
-0.3501517569254669,-0.8415733218276181
-0.33683007092098327,-0.8415733218276181
-0.3146272609135105,-0.846018446228144
-0.2657810788970705,-0.8415733218276181
-0.2247058803832459,-0.8312013648930578
-0.19528715712334452,-0.8171251376247259
-0.20250307037577317,-0.814902575424463
-0.19528715712334452,-0.8171251376247259
-0.17197420661549814,-0.8215702620252517
-0.12479323534961854,-0.8171251376247259
-0.09426437158934352,-0.8163842835579717
-0.05429931357589258,-0.8171251376247259
-0.020995098564683456,-0.8230519701587604
0.01619460819783339,-0.8171251376247259
0.03562206695437205,-0.8067531806901656
0.08668852997155936,-0.793417807488588
0.1566273814950985,-0.7919360993550794
0.2276763735190113,-0.793417807488588
0.23822270827256087,-0.7963812237556053
0.2276763735190113,-0.793417807488588
0.23211693552050586,-0.7941586615553423
0.29817029529273725,-0.793417807488588
0.3736598493181446,-0.7963812237556053
0.43971320909037603,-0.793417807488588
0.4685768621000906,-0.7941586615553423
0.510207130864102,-0.793417807488588
0.5651590856325971,-0.7963812237556053
0.6511949744115539,-0.793417807488588
0.7233541069358403,-0.7926769534218338
0.7921828179590059,-0.793417807488588
0.849910123978435,-0.7986037859558682
0.9331706615064578,-0.793417807488588
1.0097703560322389,-0.7823049964872734
1.0747135753040966,-0.7689696232856957
1.1024670878134375,-0.7689696232856957
1.1452074970778225,-0.7689696232856957
1.2040449435976253,-0.7711921854859587
1.2861953406252744,-0.7689696232856957
1.3350415226417145,-0.7734147476862216
1.3566892623990006,-0.7689696232856957
1.3472530681458246,-0.7593385204178897
1.3566892623990006,-0.7452622931495578
1.3783370021562864,-0.743039730949295
1.4271831841727265,-0.7452622931495578
1.4671482421861775,-0.7489665634833295
1.4976771059464524,-0.7452622931495578
1.47713950668954,-0.7460031472163122
1.4271831841727265,-0.7452622931495578
1.3683457376529236,-0.7474848553498208
1.3566892623990006,-0.7452622931495578
1.3439226466447036,-0.7467440012830665
1.2861953406252744,-0.7452622931495578
1.1640798855841743,-0.7467440012830665
1.0747135753040966,-0.7452622931495578
1.0341934470404588,-0.7474848553498208
1.0042196535303707,-0.7452622931495578
0.9043070084967433,-0.7467440012830665
0.7921828179590059,-0.7452622931495578
0.706146929180049,-0.7474848553498208
0.6511949744115539,-0.7452622931495578
0.552947540128487,-0.7460031472163122
0.43971320909037603,-0.7452622931495578
0.3436860558080564,-0.7497074175500837
0.29817029529273725,-0.7452622931495578
0.23933284877293448,-0.7356311902817518
0.15718245174528533,-0.7208141089466656
0.04228290995661387,-0.7185915467464027
-0.05429931357589258,-0.7208141089466656
-0.13922506185447583,-0.7274817955474544
-0.19528715712334452,-0.7208141089466656
-0.2657810788970705,-0.7119238601456139
-0.33683007092098327,-0.6971067788105277
-0.4023283604430279,-0.688216530009476
-0.40732399269470926,-0.6733994486743898
-0.39455737694041243,-0.6563598051390407
-0.40732399269470926,-0.6252439343353596
-0.48447875747067704,-0.59264635539817
-0.5483118362421612,-0.5526402357934374
-0.5694045057492603,-0.5126341161887046
-0.5483118362421612,-0.45632920711537706
-0.5477567659919743,-0.39854258990854086
-0.5483118362421612,-0.33631084830117886
-0.5527523982436557,-0.28148764736135995
-0.5483118362421612,-0.21555163542022635
-0.5616335222466449,-0.14665220721207553
-0.5483118362421612,-0.07182594646989025
-0.5155626914811389,-0.005889934528756676
-0.4778179144684352,0.07264059654720016
-0.48059326571936933,0.16154308455771735
-0.4778179144684352,0.2652626539033207
-0.4533948234602152,0.3600919744478724
-0.40732399269470926,0.45788471125944125
-0.3978877984415333,0.55049146960373
-0.40732399269470926,0.6505067686155618
-0.4206456786991929,0.7431135269598506
-0.40732399269470926,0.8431288259716824
-0.40454864144377517,0.9386990005829884
-0.40732399269470926,1.0350100292610487
-0.4189804679486324,1.117244830670777
-0.40732399269470926,1.2039247564810311
-0.4023283604430279,1.2861595578907596
-0.40732399269470926,1.3720986296342597
-0.4267514514512479,1.442479765975919
-0.40732399269470926,1.51656517265135
-0.3662487941808847,1.5869463089930094
-0.33683007092098327,1.6610317156684404
-0.3673589346812583,1.7128915003412422
-0.40732399269470926,1.7573427443465006
-0.42564131095087426,1.7884586151501818
-0.40732399269470926,1.8292055888216687
-0.4039935711935883,1.863284875892367
-0.40732399269470926,1.901809287363591
-0.41620511669769833,1.9321843041005178
-0.40732399269470926,1.9736721318387591
-0.4089892034452697,2.008492272976212
-0.40732399269470926,2.0462758303806816
-0.41287469519657743,2.0670197442498024
-0.40732399269470926,2.0944313447197116
-0.41176455469620377,2.1151752585888324
-0.40732399269470926,2.1425868590587416
-0.41065441419583015,2.152958815993302
-0.40732399269470926,2.1662941891948795
-0.4150949761973247,2.172221021728914
-0.40732399269470926,2.190001519331018
-0.40454864144377517,2.200373476265578
-0.40732399269470926,2.21444970353391
-0.44340355895685246,2.212227141333647
-0.4778179144684352,2.21444970353391
-0.49946565422572115,2.207782016933121
-0.4778179144684352,2.21444970353391
-0.44506876970741294,2.212967995400401
-0.40732399269470926,2.21444970353391
-0.39899793894190694,2.198891768132069
-0.40732399269470926,2.190001519331018
-0.44506876970741294,2.174443583929177
-0.4778179144684352,2.1662941891948795
-0.49946565422572115,2.147772837526022
-0.4778179144684352,2.1425868590587416
-0.44340355895685246,2.1299923399239185
-0.40732399269470926,2.1181386748558495
-0.40454864144377517,2.0885045121856773
-0.40732399269470926,2.0699831605168195
-0.4150949761973247,2.0536843710482247
-0.40732399269470926,2.0462758303806816
-0.41009934394564335,2.0196050839775266
-0.40732399269470926,1.9981203160416514
-0.41287469519657743,1.970708715571742
-0.40732399269470926,1.9499648017026212
-0.41120948444601696,1.9106995361646428
-0.40732399269470926,1.877361103160699
-0.41176455469620377,1.8462452323570178
-0.40732399269470926,1.8292055888216687
-0.41287469519657743,1.7958671558177248
-0.40732399269470926,1.7573427443465006
-0.41009934394564335,1.7040012515401903
-0.40732399269470926,1.6610317156684404
-0.4145399059471379,1.6165804716631818
-0.40732399269470926,1.5891688711932723
-0.40732399269470926,1.5543487300558199
-0.40732399269470926,1.51656517265135
-0.4206456786991929,1.461741971711531
-0.40732399269470926,1.4202541439732896
-0.37790526943480784,1.3817297325020657
-0.33683007092098327,1.3483912994981218
-0.3296141576685546,1.29653151482532
-0.33683007092098327,1.2520802708200613
-0.3501517569254669,1.21059244308182
-0.33683007092098327,1.179476572278139
-0.3323895089194887,1.1305802038723545
-0.33683007092098327,1.0831655436000787
-0.352927108176401,1.0379734455280658
-0.33683007092098327,1.0113026991249108
-0.32295331466631283,0.9764825579874581
-0.33683007092098327,0.9394398546497427
-0.3912269554392915,0.8942477565777297
-0.40732399269470926,0.8668361561078203
-0.37790526943480784,0.8416471178381738
-0.33683007092098327,0.8186806417687902
-0.34127063292247783,0.7794153762308117
-0.33683007092098327,0.7468177972936221
-0.30463599641014777,0.7157019264899411
-0.2657810788970705,0.698662282954592
-0.29131431040566413,0.6727323906181911
-0.33683007092098327,0.6505067686155618
-0.35958795117864284,0.6216134600121438
-0.33683007092098327,0.6023512542765317
-0.3301692279187414,0.5756805078733765
-0.33683007092098327,0.5541957399375016
-0.3518169676760274,0.5260432854008378
-0.33683007092098327,0.5060402255984714
-0.3124069799127632,0.4801103332620706
-0.2657810788970705,0.45788471125944125
-0.22581602088361954,0.4297322567227775
-0.19528715712334452,0.40972919692041115
-0.21693489688063045,0.3845401586507646
-0.2657810788970705,0.361573682581381
-0.32295331466631283,0.3304578117777
-0.33683007092098327,0.31341816824235086
-0.33683007092098327,0.29934194097401895
-0.33683007092098327,0.28971083810621295
-0.35348217842658786,0.26452179983656643
-0.33683007092098327,0.2415553237671828
-0.2985302236580928,0.21488457736402766
-0.2657810788970705,0.19339980942815266
-0.2957548724071587,0.16302479269122597
-0.33683007092098327,0.14524429508912254
-0.3379402114213569,0.13116806782079063
-0.2657810788970705,0.1207961108862303
-0.20361321087614678,0.09486621854982946
-0.19528715712334452,0.07264059654720016
-0.24468840938997138,0.056341807078605345
-0.2657810788970705,0.04893326641106225
-0.2635607978963232,0.025966790341678647
-0.2657810788970705,0.0007777520720321123
-0.3135171204131369,-0.02070701586384287
-0.33683007092098327,-0.023670432130860113
-0.31518233116369737,-0.03107897279840321
-0.2657810788970705,-0.047377762266998025
-0.2591202358948287,-0.07775277900392473
-0.2657810788970705,-0.09553327660602816
-0.27077671114875185,-0.10886864980760574
-0.2657810788970705,-0.11924060674216608
-0.2990852939082796,-0.14591135314532122
-0.33683007092098327,-0.16739612108119623
-0.35625752967752194,-0.18443576461654534
-0.33683007092098327,-0.19184430528408844
-0.3307242981689283,-0.20592053255242032
-0.33683007092098327,-0.21555163542022635
-0.35070682717565377,-0.2274053004882953
-0.33683007092098327,-0.2399998196231186
-0.3301692279187414,-0.26667056602627376
-0.33683007092098327,-0.2881553339621487
-0.3584778106782692,-0.3044541234307435
-0.33683007092098327,-0.3118626640982866
-0.2935345914064114,-0.32742059950012714
-0.2657810788970705,-0.33631084830117886
-0.30019543440865326,-0.3392742645681961
-0.33683007092098327,-0.33631084830117886
-0.35070682717565377,-0.3466828052357392
-0.33683007092098327,-0.36001817843731676
-0.34182570317266464,-0.37631696790591157
-0.33683007092098327,-0.384466362640209
-0.3312793684191151,-0.3978017358417866
-0.33683007092098327,-0.4081736927763469
-0.3840110421868629,-0.4229907741114331
-0.40732399269470926,-0.43262187697923915
-0.3862313231876101,-0.446698104247571
-0.33683007092098327,-0.45632920711537706
-0.3290590874183678,-0.4696645803169546
-0.33683007092098327,-0.48077739131826924
-0.34515612467378554,-0.49633532672010977
-0.33683007092098327,-0.5044847214544071
-0.3434909139232251,-0.5081889917881788
-0.33683007092098327,-0.5044847214544071
-0.33294457916967557,-0.5126341161887046
-0.33683007092098327,-0.5289329056572994
-0.3612531619292033,-0.5489359654596657
-0.33683007092098327,-0.5526402357934374
-0.26689121939744415,-0.5511585276599287
-0.19528715712334452,-0.5526402357934374
-0.19029152487166315,-0.5689390252620321
-0.19528715712334452,-0.5770884199963295
-0.1741944876162454,-0.5770884199963295
-0.12479323534961854,-0.5770884199963295
-0.11702225184700309,-0.5919055013314157
-0.12479323534961854,-0.6007957501324674
-0.11591211134662945,-0.6022774582659761
-0.05429931357589258,-0.6007957501324674
-0.003787920808892079,-0.6148719774007994
0.01619460819783339,-0.6252439343353596
0.0039830626937233824,-0.6267256424688683
0.01619460819783339,-0.6252439343353596
0.027851083451756586,-0.6385793075369373
0.01619460819783339,-0.6489512644714976
-0.034871854819353926,-0.6511738266717605
-0.05429931357589258,-0.6489512644714976
-0.047638470573650754,-0.6615457836063209
-0.05429931357589258,-0.6733994486743898
-0.1270135163503658,-0.6763628649414071
-0.19528715712334452,-0.6733994486743898
-0.21971024813156453,-0.6837714056089501
-0.19528715712334452,-0.6971067788105277
-0.1741944876162454,-0.7045153194780708
-0.12479323534961854,-0.6971067788105277
-0.06873114008074986,-0.6956250706770191
-0.05429931357589258,-0.6971067788105277
-0.1469960453570913,-0.7015519032110535
-0.2657810788970705,-0.6971067788105277
-0.33683007092098327,-0.6956250706770191
-0.33683007092098327,-0.6971067788105277
-0.3557024594273351,-0.7104421520121054
-0.40732399269470926,-0.7208141089466656
-0.47004693096581973,-0.7274817955474544
-0.4778179144684352,-0.7208141089466656
-0.4511745424594679,-0.7178506926796484
-0.40732399269470926,-0.7208141089466656
-0.39622258769097285,-0.7363720443485061
-0.40732399269470926,-0.7452622931495578
-0.44839919120853383,-0.7482257094165751
-0.4778179144684352,-0.7452622931495578
-0.49669030297478706,-0.7474848553498208
-0.4778179144684352,-0.7452622931495578
-0.44839919120853383,-0.7445214390828035
-0.40732399269470926,-0.7452622931495578
-0.4062138521943356,-0.7585976663511355
-0.40732399269470926,-0.7689696232856957
-0.42508624070068746,-0.7748964558197302
-0.40732399269470926,-0.7689696232856957
-0.4062138521943356,-0.7689696232856957
-0.40732399269470926,-0.7689696232856957
-0.42841666220180835,-0.771933039552713
-0.40732399269470926,-0.7689696232856957
-0.34460105442359873,-0.7704513314192044
-0.2657810788970705,-0.7689696232856957
-0.25245939289258684,-0.7711921854859587
-0.2657810788970705,-0.7689696232856957
-0.22359573988287226,-0.7704513314192044
-0.05429931357589258,-0.7689696232856957
0.13331443098725212,-0.7711921854859587
0.2276763735190113,-0.7689696232856957
0.28318339853769314,-0.7711921854859587
0.7216888961852799,-0.7689696232856957
2.03720538912804,-0.7711921854859587
4.320209328146425,-0.7689696232856957
6.871312198005044,-0.7711921854859587
8.694717969868742,-0.7689696232856957
9.24146216630276,-0.7711921854859587
8.694717969868742,-0.7689696232856957
7.358108807418883,-0.7711921854859587
5.378728295252689,-0.7689696232856957
3.041327471715995,-0.7711921854859587
1.0747135753040966,-0.7689696232856957
0.03673220745474568,-0.7711921854859587
-0.19528715712334452,-0.7689696232856957
-0.21748996713081725,-0.7711921854859587
-0.33683007092098327,-0.7689696232856957
-0.5066815674781497,-0.7711921854859587
-0.6188057580158871,-0.7689696232856957
-0.7270444568023168,-0.7711921854859587
-0.830287523337065,-0.7689696232856957
-0.8985611641100437,-0.7711921854859587
-0.9013365153609778,-0.7689696232856957
-0.8996713046104174,-0.7711921854859587
-0.9013365153609778,-0.7689696232856957
-0.9307552386208793,-0.7711921854859587
-0.9718304371347039,-0.7689696232856957
-1.0362185861563749,-0.7711921854859587
-1.04232435890843,-0.7689696232856957
-1.0173461976500229,-0.7711921854859587
-0.9718304371347039,-0.7689696232856957
-0.9751608586358247,-0.7711921854859587
-0.9718304371347039,-0.7689696232856957
-0.9501826973774179,-0.7711921854859587
-0.9013365153609778,-0.7689696232856957
-0.8869046888561206,-0.7711921854859587
-0.9013365153609778,-0.7689696232856957
-0.9235393253684506,-0.7711921854859587
-0.9013365153609778,-0.7689696232856957
-0.8630366680980873,-0.7711921854859587
-0.830287523337065,-0.7689696232856957
-0.8325078043378124,-0.7711921854859587
-0.830287523337065,-0.7689696232856957
-0.8308425935872519,-0.7711921854859587
-0.830287523337065,-0.7689696232856957
-0.8458294903422959,-0.7704513314192044
-0.830287523337065,-0.7689696232856957
-0.7953180975752955,-0.7711921854859587
-0.7597936015633391,-0.7689696232856957
-0.7647892338150205,-0.7704513314192044
-0.7597936015633391,-0.7689696232856957
-0.732595159304185,-0.771933039552713
-0.6892996797896132,-0.7689696232856957
-0.6843040475379317,-0.7697104773524501
-0.6892996797896132,-0.7689696232856957
-0.6954054525416681,-0.7741556017529759
-0.6892996797896132,-0.7689696232856957
-0.6998460145431626,-0.7585976663511355
-0.6892996797896132,-0.7452622931495578
-0.6609910970300854,-0.7437805850160493
-0.6188057580158871,-0.7452622931495578
-0.5960478777582275,-0.7482257094165751
-0.5483118362421612,-0.7452622931495578
-0.47892805496880886,-0.7460031472163122
-0.40732399269470926,-0.7452622931495578
-0.39455737694041243,-0.7467440012830665
-0.40732399269470926,-0.7452622931495578
-0.42231088944975337,-0.7474848553498208
-0.40732399269470926,-0.7452622931495578
-0.3873414636879838,-0.7452622931495578
-0.33683007092098327,-0.7452622931495578
-0.27133178139893865,-0.7497074175500837
-0.19528715712334452,-0.7452622931495578
-0.15532209910989359,-0.7348903362149976
-0.12479323534961854,-0.7208141089466656
-0.09981507409121171,-0.7193324008131571
-0.05429931357589258,-0.7208141089466656
-0.020995098564683456,-0.7252592333471916
0.01619460819783339,-0.7208141089466656
0.043948120707174326,-0.7215549630134199
0.08668852997155936,-0.7208141089466656
0.11832753423220803,-0.7245183792804372
0.15718245174528533,-0.7208141089466656
0.1860461047549999,-0.7208141089466656
0.2276763735190113,-0.7208141089466656
0.2576501670290995,-0.7260000874139458
0.29817029529273725,-0.7208141089466656
0.34590633680880367,-0.7111830060788596
0.43971320909037603,-0.6971067788105277
0.5473968376266188,-0.6948842166102648
0.6511949744115539,-0.6971067788105277
0.6967107349268731,-0.7015519032110535
0.7216888961852799,-0.6971067788105277
0.7588786029477967,-0.6963659247437735
0.8626767397327318,-0.6971067788105277
0.9809067030225243,-0.7030336113445622
1.0747135753040966,-0.6971067788105277
1.106907649814932,-0.6867348218759673
1.1452074970778225,-0.6733994486743898
1.2040449435976253,-0.6719177405408812
1.2861953406252744,-0.6733994486743898
1.3317111011405935,-0.6763628649414071
1.3566892623990006,-0.6733994486743898
1.3561341921488137,-0.6733994486743898
1.3566892623990006,-0.6733994486743898
1.3444777168948905,-0.6756220108746528
1.3566892623990006,-0.6733994486743898
1.3650153161518028,-0.6741403027411441
1.3566892623990006,-0.6733994486743898
1.3083981506327473,-0.6763628649414071
1.2861953406252744,-0.6733994486743898
1.2900808323765822,-0.6726585946076356
1.2861953406252744,-0.6733994486743898
1.198494241095757,-0.6778445730749156
1.0747135753040966,-0.6733994486743898
0.9698052980187879,-0.6630274917398294
0.9331706615064578,-0.6489512644714976
0.9065272894974905,-0.647469556337989
0.8626767397327318,-0.6489512644714976
0.7655394459500385,-0.6526555348052692
0.6511949744115539,-0.6489512644714976
0.5279693788700802,-0.6504329726050062
0.43971320909037603,-0.6489512644714976
0.3642236550649687,-0.6511738266717605
0.29817029529273725,-0.6489512644714976
0.19548229900817582,-0.6511738266717605
0.08668852997155936,-0.6489512644714976
-0.010448763811133903,-0.6504329726050062
-0.05429931357589258,-0.6489512644714976
-0.1059208468432667,-0.6526555348052692
-0.19528715712334452,-0.6489512644714976
-0.3290590874183678,-0.6430244319374632
-0.40732399269470926,-0.6252439343353596
-0.4195355381988193,-0.6052408745329934
-0.40732399269470926,-0.5770884199963295
-0.46338608796357794,-0.5533810898601916
-0.5483118362421612,-0.5289329056572994
-0.6149202662645794,-0.511152408055196
-0.6188057580158871,-0.48077739131826924
-0.6176956175155135,-0.44003041764678225
-0.6188057580158871,-0.384466362640209
-0.6310173035199972,-0.33631084830117886
-0.6188057580158871,-0.2881553339621487
-0.616030406764953,-0.23925896555636428
-0.6188057580158871,-0.16739612108119623
-0.6360129357716785,-0.08738388187173075
-0.6188057580158871,0.0007777520720321123
-0.585501543004678,0.08004913721474326
-0.5483118362421612,0.16895162522526044
-0.548866906492348,0.26081752950279485
-0.5483118362421612,0.361573682581381
-0.5311046584863698,0.4541804409256697
-0.4778179144684352,0.5541957399375016
-0.4361876457044238,0.6497659145488075
-0.40732399269470926,0.7468177972936221
-0.40676892244452245,0.8275708905698419
-0.40732399269470926,0.9149916704468505
-0.41620511669769833,1.0061167206576305
-0.40732399269470926,1.107613727802971
-0.405103711693962,1.193552799546471
-0.40732399269470926,1.2757876009561993
-0.4239761002003138,1.346909591364613
-0.40732399269470926,1.4202541439732896
-0.37179949668275286,1.4795224693136344
-0.33683007092098327,1.5410133568542421
-0.33849528167154375,1.5891688711932723
-0.33683007092098327,1.6365835314655481
-0.3334996494198624,1.6751079429367723
-0.33683007092098327,1.7328945601436085
-0.37846033968499465,1.7943854476842163
-0.40732399269470926,1.853653773024561
-0.4150949761973247,1.8862513519617505
-0.40732399269470926,1.925516617499729
-0.4200906084490061,1.970708715571742
-0.40732399269470926,2.021827646177789
-0.3706893561823792,2.0462758303806816
-0.33683007092098327,2.0699831605168195
-0.3645835834303242,2.0973947609867287
-0.40732399269470926,2.1425868590587416
-0.42730652170143474,2.169257605461897
-0.40732399269470926,2.190001519331018
-0.4028834306932147,2.198150914065315
-0.40732399269470926,2.21444970353391
-0.417315257198072,2.2211173901346988
-0.40732399269470926,2.238157033670048
-0.40843413319508287,2.2492698446713626
-0.40732399269470926,2.26260521787294
-0.4145399059471379,2.2589009475391686
-0.40732399269470926,2.26260521787294
-0.41009934394564335,2.2611235097394315
-0.40732399269470926,2.26260521787294
-0.41342976544676424,2.245565574337591
-0.40732399269470926,2.238157033670048
-0.40954427369545654,2.2329710552027677
-0.40732399269470926,2.238157033670048
-0.4145399059471379,2.2255625145352247
-0.40732399269470926,2.21444970353391
-0.40732399269470926,2.1966692059318063
-0.40732399269470926,2.190001519331018
-0.4206456786991929,2.174443583929177
-0.40732399269470926,2.1662941891948795
-0.37735019918462104,2.1507362537930392
-0.33683007092098327,2.1425868590587416
-0.3307242981689283,2.116656966722341
-0.33683007092098327,2.0944313447197116
-0.3484865461749065,2.064056327982785
-0.33683007092098327,2.0462758303806816
-0.334609789920236,2.018864229910772
-0.33683007092098327,1.9981203160416514
-0.35070682717565377,1.9677452993047246
-0.33683007092098327,1.9499648017026212
-0.3079664179112687,1.9240349093662203
-0.2657810788970705,1.901809287363591
-0.2546796738933341,1.863284875892367
-0.2657810788970705,1.8292055888216687
-0.30685627741089505,1.7884586151501818
-0.33683007092098327,1.7573427443465006
-0.3557024594273351,1.7173366247417678
-0.33683007092098327,1.6847390458045783
-0.30574613691052144,1.6462146343333541
-0.2657810788970705,1.6128762013294102
-0.2585651656446418,1.56472068699038
-0.2657810788970705,1.51656517265135
-0.2840983971532355,1.4602602635780224
-0.2657810788970705,1.4202541439732896
-0.233587004386235,1.380248024368557
-0.19528715712334452,1.3483912994981218
-0.1919567356222236,1.3002357851590916
-0.19528715712334452,1.2520802708200613
-0.20416828112633362,1.195775361746734
-0.19528715712334452,1.1557692421420012
-0.1980625083742786,1.115022268470514
-0.19528715712334452,1.0831655436000787
-0.20139292987539953,1.0431594239953461
-0.19528715712334452,1.0113026991249108
-0.19972771912483905,0.9727782876536866
-0.19528715712334452,0.9394398546497427
-0.2002827893750259,0.8964703187779927
-0.19528715712334452,0.8668361561078203
-0.2008378596252127,0.8394245556379109
-0.19528715712334452,0.8186806417687902
-0.20139292987539953,0.7816379384310747
-0.19528715712334452,0.7468177972936221
-0.18085533061848724,0.7134793642896782
-0.12479323534961854,0.698662282954592
-0.07317170208224441,0.6764366609519626
-0.05429931357589258,0.6505067686155618
-0.09592958233990398,0.6097597949440747
-0.12479323534961854,0.5779030700736395
-0.11202661959532172,0.5490097614702214
-0.05429931357589258,0.5297475557346093
-0.03265157381860665,0.5030768093314542
-0.05429931357589258,0.4815920413955792
-0.1059208468432667,0.45566214905917835
-0.12479323534961854,0.43417738112330334
-0.1292337973511131,0.40454321845313096
-0.12479323534961854,0.3860218667842732
-0.13700478085372855,0.3697230773156784
-0.12479323534961854,0.361573682581381
-0.0964846525900908,0.3393480605787517
-0.05429931357589258,0.31341816824235086
-0.047083400323463934,0.28230229743866986
-0.05429931357589258,0.2652626539033207
-0.06762099958037622,0.2497047185014802
-0.05429931357589258,0.2415553237671828
-0.05096889207477166,0.21932970176455352
-0.05429931357589258,0.19339980942815266
-0.06928621033093668,0.16080223049096304
-0.05429931357589258,0.14524429508912254
-0.043752978822343025,0.13339063002105356
-0.05429931357589258,0.1207961108862303
-0.10481070634289308,0.09264365634956653
-0.12479323534961854,0.07264059654720016
-0.10314549559233262,0.05856436927886828
-0.05429931357589258,0.04893326641106225
-0.0459732598230903,0.023003374074661406
-0.05429931357589258,0.0007777520720321123
-0.06540071857962895,-0.015521037396562704
-0.05429931357589258,-0.023670432130860113
-0.05707466482682667,-0.046636908200243715
-0.05429931357589258,-0.07182594646989025
-0.05762973507701349,-0.09256986033901092
-0.05429931357589258,-0.09553327660602816
-0.06484564832944213,-0.10442352540707989
-0.05429931357589258,-0.11924060674216608
-0.048193540823837575,-0.14739306127882984
-0.05429931357589258,-0.16739612108119623
-0.08038761533467305,-0.18443576461654534
