ECG,PPG
0.3892491823791877,-2.177695996327961
0.10758095153520186,-1.8261697260988332
0.41680368322262107,-2.177695996327961
1.1852680956339303,-2.361145565922753
0.4443581840660545,-2.177695996327961
-1.5314015801149474,-2.068036197743364
-1.26095925702199,-2.177695996327961
2.4925760800946035,-2.2504609094074595
5.753192013234222,-2.177695996327961
4.722449574276158,-2.1336271053079825
1.1873091697704807,-2.177695996327961
-0.6557807755347307,-2.2084417342488756
-0.1608202974212049,-2.177695996327961
0.2871954755516566,-2.161298269436806
-0.2159292991080717,-2.177695996327961
-0.5016796782251588,-2.191019149427024
-0.10571129573433811,-2.177695996327961
0.15452565667586618,-2.1633479852982003
-0.050602294047471325,-2.1449005425456513
-0.19653909481084078,-2.128502815654497
-0.050602294047471325,-2.1131299466940394
0.08104698776004378,-2.104931083248462
0.059615709326262256,-2.0803344929117302
0.016753152458699197,-2.0516384708522093
0.004506707639395465,-2.0157684432778087
-0.03325316388679104,-1.9901469950103796
-0.050602294047471325,-1.9512023936438874
-0.015904033726110753,-1.9071335026239093
0.004506707639395465,-1.8538408902276566
-0.04549960870609477,-1.8210454364453474
-0.10571129573433811,-1.7892748405937353
-0.14449170432879993,-1.7534048130193345
-0.1608202974212049,-1.6919133371775048
-0.1781694275818852,-1.637595866850555
-0.1883747982646383,-1.5955766916919711
-0.1955185577425655,-1.5720049592859364
-0.2159292991080717,-1.5310106420580498
-0.23940165167840385,-1.4725937400083116
-0.2159292991080717,-1.40085368485951
-0.17102566810395803,-1.3496107883246518
-0.1883747982646383,-1.3045170393739765
-0.27920259734114095,-1.2635227221460898
-0.3261473024818053,-1.2071555359577457
-0.2720588378632138,-1.158987213214979
-0.2159292991080717,-1.1097940325415152
-0.2567507818390841,-1.0687997153136286
-0.3261473024818053,-1.0124325291252845
-0.31492139473077685,-0.9632393484518206
-0.2434837999515051,-0.916095883639751
-0.21388822497152107,-0.8873998615802304
-0.2434837999515051,-0.8515298340058297
-0.28022313440941626,-0.8105355167779431
-0.2985928016383719,-0.754168330589599
-0.32512676541353,-0.7141988712924096
-0.35370180332523865,-0.6896022809556777
-0.3567634145300646,-0.6824282754407975
-0.3261473024818053,-0.6568068271733684
-0.28430528268251753,-0.6260610892524534
-0.2434837999515051,-0.592240777539447
-0.2159292991080717,-0.5809673403017782
-0.2159292991080717,-0.5594453237571377
-0.2689972266583879,-0.5338238754897086
-0.35370180332523865,-0.49487927412321636
-0.3996259713976277,-0.4784815472320617
-0.35370180332523865,-0.46310867827160423
-0.2689972266583879,-0.45490981482602694
-0.2434837999515051,-0.430313224489295
-0.28634635681906817,-0.4169900713902318
-0.2985928016383719,-0.39854262863768286
-0.2547097077025335,-0.38726919140001403
-0.2434837999515051,-0.3657471748553736
-0.32818837661835587,-0.36369745899397926
-0.40779026794383016,-0.3657471748553736
-0.3965643601928017,-0.37804547002373956
-0.3261473024818053,-0.3657471748553736
-0.3098187093894003,-0.35857316934049344
-0.3261473024818053,-0.3657471748553736
-0.29757226457009656,-0.40674149208326016
-0.2159292991080717,-0.39854262863768286
-0.16694351983085678,-0.27965910867681176
-0.1883747982646383,-0.010121472903457447
-0.22919628099565073,0.3147584911275438
-0.2434837999515051,0.6047932855148414
-0.2598123930439101,0.7841434233868452
-0.3261473024818053,0.8958529378328361
-0.41697510155830797,0.9645184191895462
-0.40779026794383016,1.026009895031376
-0.15775868621637898,1.0495816274374108
0.3892491823791877,1.0577804908829882
1.1556725206539462,1.050606485368108
2.0394576217803655,1.0577804908829882
2.9854954840715786,1.0465070536453194
3.9101020679290106,1.026009895031376
4.556102032147282,0.9839907198727923
4.59794405194657,0.9614438453974546
3.9335744204993426,0.9399218288528142
2.8099631083282253,0.9286483916151455
1.5740927186468237,0.8938032219714418
0.4443581840660545,0.864082341981224
-0.46698141790379816,0.8353863199217034
-1.040523250274523,0.8312868881989147
-1.2558565716806136,0.8169388771691545
-1.26095925702199,0.7995162923473027
-1.2323842191102814,0.7595468330501133
-1.1782957544916899,0.7349502427133813
-1.0333794907965959,0.7093287944459522
-0.8211077805953311,0.702154788931072
-0.65373970139818,0.6806327723864316
-0.5731172730044305,0.6693593351487628
-0.5333163273416934,0.6478373186041223
-0.49045377047413036,0.6375887392971507
-0.4659608808355229,0.615041864821813
-0.46289926963069694,0.6047932855148414
-0.4680019549720735,0.5853209848315952
-0.4353447687872635,0.5730226896632292
-0.3873795265783239,0.546376383465103
-0.35370180332523865,0.54022723588092
-0.3741125446907449,0.5351029462274342
-0.40779026794383016,0.54022723588092
-0.400646508465903,0.5228046510590681
-0.3261473024818053,0.5084566400293079
-0.25062755942943227,0.48386004969257596
-0.2434837999515051,0.4756611862469986
-0.29757226457009656,0.4551640276330553
-0.3261473024818053,0.44286573246468935
-0.27716152320459037,0.4213437159200489
-0.1883747982646383,0.41109513661307723
-0.14245063019224932,0.38854826213773963
-0.1608202974212049,0.378299682830768
-0.20164178015221734,0.35882738214752186
-0.2159292991080717,0.34652908697915585
-0.2057239284253186,0.32090763871172673
-0.1883747982646383,0.3137336331968466
-0.17510781637705927,0.3075844856126636
-0.1608202974212049,0.3137336331968466
-0.15367653794327774,0.29733590630569195
-0.1608202974212049,0.2819630373452345
-0.18225157585498644,0.25634158907780535
-0.1883747982646383,0.24916758356292523
-0.1608202974212049,0.23174499874107343
-0.10571129573433811,0.21637212978061596
-0.07203357248125286,0.18972582358248966
-0.07815679489090473,0.18460153392900383
-0.09040323971020846,0.18050210220621518
-0.050602294047471325,0.18460153392900383
0.013691541253873262,0.16615409117645488
0.03206120848282886,0.15180608014669458
-0.015904033726110753,0.1302840636020541
-0.050602294047471325,0.12003548429508247
-0.027129941477139173,0.09646375188904768
0.004506707639395465,0.0872400305127732
-0.026109404408863862,0.08006602499789305
-0.07815679489090473,0.0872400305127732
-0.07101303541297754,0.07391687741371006
0.004506707639395465,0.05444457673046393
0.06573893173591412,0.025748554670943315
0.059615709326262256,0.02267398087885182
-0.006719200111632955,0.020624265017457493
-0.07815679489090473,0.02267398087885182
-0.11693720348536654,0.0011519643342113638
-0.10571129573433811,-0.010121472903457447
-0.08734162850538252,-0.018320336349034766
-0.10571129573433811,-0.010121472903457447
-0.15469707501155305,-0.022419768071823425
-0.1608202974212049,-0.04189206875506955
-0.10673183280261343,-0.07161294874528733
-0.050602294047471325,-0.07468752253737883
-0.05366390525229726,-0.07571238046807599
-0.07815679489090473,-0.07468752253737883
-0.07509518368607879,-0.09518468115132211
-0.050602294047471325,-0.10645811838899093
-0.05366390525229726,-0.11568183976526542
-0.07815679489090473,-0.10645811838899093
-0.08632109143710721,-0.1187564135573569
-0.050602294047471325,-0.1392535721713002
0.012671004185597952,-0.16999931009221514
0.08717021016969564,-0.17204902595360946
0.1371765265151859,-0.17102416802291232
0.14227921185656245,-0.17204902595360946
0.09635504378417345,-0.19562075835964426
0.059615709326262256,-0.20381962180522156
0.08104698776004378,-0.20689419559731306
0.16983371269999584,-0.20381962180522156
0.2616820488447738,-0.2263664962805592
0.3065856798488875,-0.23661507558753084
0.2922981608930331,-0.24071450731031951
0.2514766781620207,-0.23661507558753084
0.2055525100896317,-0.25711223420147417
0.16983371269999584,-0.26838567143914294
0.1575872678806921,-0.27350996109262876
0.19738821354342923,-0.26838567143914294
0.2627025859130491,-0.2899076879837834
0.3065856798488875,-0.30118112522145224
0.2974008462344097,-0.30630541487493806
0.2790311790054541,-0.30118112522145224
0.28617493848338127,-0.32167828383539554
0.3065856798488875,-0.3329517210730643
0.3004624574392356,-0.3391008686572473
0.2790311790054541,-0.3329517210730643
0.268825808322701,-0.3534488796870076
0.2790311790054541,-0.3657471748553736
0.2953597720978591,-0.37189632243955656
0.3065856798488875,-0.3657471748553736
0.2800517160737294,-0.3831697596772254
0.2514766781620207,-0.39854262863768286
0.22596325145513793,-0.40776635001395733
0.16983371269999584,-0.39854262863768286
0.1371765265151859,-0.4005923444990772
0.2514766781620207,-0.39854262863768286
0.35863307033092834,-0.40161720242977433
0.19738821354342923,-0.39854262863768286
0.008588855912496708,-0.4159652134595347
0.2790311790054541,-0.430313224489295
0.6300959304921611,-0.44261151965766093
0.2790311790054541,-0.430313224489295
-0.24858648529288166,-0.42826350862790064
0.3065856798488875,-0.430313224489295
1.2066993740677117,-0.4528600989646326
0.3065856798488875,-0.46310867827160423
-1.7487759756575887,-0.4702826837864844
-1.26095925702199,-0.46310867827160423
2.6915808084082893,-0.4661832520636957
5.753192013234222,-0.46310867827160423
4.23667392977711,-0.4672081099943929
0.41680368322262107,-0.46310867827160423
-1.26095925702199,-0.46823296792509006
-0.40779026794383016,-0.46310867827160423
0.21575788077238484,-0.4651583941329986
-0.3261473024818053,-0.46310867827160423
-0.6476164789885283,-0.4723323996478787
-0.1883747982646383,-0.46310867827160423
0.131053304105534,-0.4518352410339354
-0.07815679489090473,-0.430313224489295
-0.23838111461012854,-0.4231392189744148
-0.07815679489090473,-0.39854262863768286
0.04022550502903135,-0.37087146450885944
-0.050602294047471325,-0.3329517210730643
-0.15673814914810366,-0.3104048465977267
-0.1608202974212049,-0.26838567143914294
-0.14653277846535057,-0.22329192248846771
-0.1608202974212049,-0.17204902595360946
-0.19449802067429017,-0.1454027197554832
-0.2434837999515051,-0.10645811838899093
-0.3047160240480237,-0.0552152218541327
-0.35370180332523865,0.02267398087885182
-0.39758489726107704,0.07596659327510438
-0.40779026794383016,0.12003548429508247
-0.3822768412369474,0.15283093807739173
-0.35370180332523865,0.21637212978061596
-0.35268126625696333,0.2809381794145373
-0.35370180332523865,0.34652908697915585
-0.3434964326424856,0.38752340420704245
-0.35370180332523865,0.44286573246468935
-0.41493402742175733,0.5012826345144278
-0.49045377047413036,0.5730226896632292
-0.5343368644099687,0.621191012405996
-0.5455627721609971,0.6693593351487628
-0.5588297540485762,0.708303936515255
-0.5731172730044305,0.7667208385649934
-0.5771994212775318,0.813864303377063
-0.5731172730044305,0.864082341981224
-0.5863842548920095,0.9030269433477163
-0.600671773847864,0.9614438453974546
-0.5884253290285602,1.0106370260709185
-0.5455627721609971,1.0577804908829882
-0.5282136420003168,1.0823770812197202
-0.5731172730044305,1.1223465405169095
-0.6374111083057751,1.1653905736061905
-0.6282262746912973,1.2197080439331403
-0.5404600868196205,1.249428923923358
-0.46289926963069694,1.2842740935670616
-0.46289926963069694,1.312970115626582
-0.49045377047413036,1.3488401432009829
-0.49351538167895626,1.362163296300046
-0.49045377047413036,1.3816355969832923
-0.5200493454541143,1.392909034220961
-0.5455627721609971,1.4144310507656015
-0.5435216980244465,1.41135647697351
-0.5455627721609971,1.4144310507656015
-0.5761788842092564,1.4082819031814184
-0.5731172730044305,1.4144310507656015
-0.5047412894299846,1.3970084659437496
-0.4353447687872635,1.3816355969832923
-0.4384063799920895,1.3570390066465603
-0.46289926963069694,1.3488401432009829
-0.4577965842893204,1.3314175583791312
-0.4353447687872635,1.3170695473493708
-0.4618787325624216,1.2832492356363643
-0.49045377047413036,1.2525034977154494
-0.47208410324517475,1.2033103170419857
-0.40779026794383016,1.1551419942992187
-0.3649277110762671,1.088526228803903
-0.35370180332523865,1.026009895031376
-0.35268126625696333,0.9450461185063
-0.35370180332523865,0.864082341981224
-0.3700303964176436,0.7636462647729019
-0.40779026794383016,0.6693593351487628
-0.47106356617689943,0.558674678633469
-0.5455627721609971,0.44286573246468935
-0.5731172730044305,0.3075844856126636
-0.4353447687872635,0.18460153392900383
-0.03325316388679104,0.05649429259185826
0.6372396899700883,-0.07468752253737883
1.4618336411365396,-0.22841621214195354
2.342557131058133,-0.3657471748553736
3.2641021037107385,-0.4877052686083362
4.158092575519911,-0.592240777539447
4.687751313954798,-0.7111242975003181
4.432617046885969,-0.8187343802235204
3.353909365718966,-0.9212201732932369
1.9302601554749073,-1.0124325291252845
0.6780611727011007,-1.1272166173633669
-0.2434837999515051,-1.2389261318093578
-0.8976480607159794,-1.3465362145325601
-1.26095925702199,-1.4336491386418193
-1.32627362939161,-1.532035499988747
-1.26095925702199,-1.6273472875435833
-1.247692275134411,-1.7298330806132998
-1.2334047561785566,-1.8220702943760447
-1.0813447330055355,-1.9225063715843667
-0.8211077805953311,-2.0157684432778087
-0.6078155333257911,-2.1069807991098566
-0.49045377047413036,-2.177695996327961
-0.4312626205141623,-2.247386335615368
-0.40779026794383016,-2.3068280955958036
-0.4210572498314092,-2.3734438610911193
-0.40779026794383016,-2.4369850527943435
-0.3669687852128177,-2.5066753920817506
-0.35370180332523865,-2.566117152062186
-0.4088108050121055,-2.6224843382505303
-0.4353447687872635,-2.663478655478417
-0.3945232860562511,-2.701398398914212
-0.35370180332523865,-2.728044705112338
-0.38942060071487455,-2.7598153009639503
-0.4353447687872635,-2.7926107547462595
-0.4128929532852067,-2.842828793350421
-0.35370180332523865,-2.8899722581624903
-0.3373732102328337,-2.933016291251771
-0.35370180332523865,-2.954538307796412
-0.34043482143765963,-2.9719608926182635
-0.2985928016383719,-2.9863089036480237
-0.26695615252183724,-3.0098806360540586
-0.2434837999515051,-3.019104357430333
-0.21184715083497047,-3.015004925707544
-0.1883747982646383,-2.9863089036480237
-0.19245694653773954,-2.956588023657806
-0.1883747982646383,-2.921742854014102
-0.1516354638067271,-2.8950965478159763
-0.10571129573433811,-2.857176804380181
-0.08836216557365784,-2.815157629221597
-0.07815679489090473,-2.7598153009639503
-0.060807664730224434,-2.7106221202904863
-0.050602294047471325,-2.663478655478417
-0.061828201798499745,-2.6306832016961077
-0.050602294047471325,-2.5978877479137985
-0.0046781259750823334,-2.570216583784975
0.03206120848282886,-2.533321698279877
0.006547781775946087,-2.5015511024282646
-0.050602294047471325,-2.4687556486459554
-0.08428001730055659,-2.442109342447829
-0.07815679489090473,-2.4041895990120343
-0.07203357248125286,-2.370369287299028
-0.07815679489090473,-2.339623549378113
-0.07815679489090473,-2.32630039627905
-0.050602294047471325,-2.3068280955958036
-0.03223262681851573,-2.2812066473283745
-0.050602294047471325,-2.242262045961882
-0.07713625782262941,-2.21049145011027
-0.050602294047471325,-2.177695996327961
0.002465633502844843,-2.14899997426844
0.004506707639395465,-2.1131299466940394
-0.0485612199109207,-2.0834090667038216
-0.050602294047471325,-2.048563897060118
0.013691541253873262,-2.0085944377629286
0.03206120848282886,-1.9512023936438874
-0.065910350071601,-1.898934639178332
-0.1608202974212049,-1.8538408902276566
-0.1516354638067271,-1.8271945840295305
-0.10571129573433811,-1.7892748405937353
-0.13326579657777152,-1.7452059495737573
-0.1883747982646383,-1.6919133371775048
-0.1893953353329136,-1.6580930254644983
-0.1608202974212049,-1.6273472875435833
-0.17306674224050864,-1.6007009813454571
-0.1883747982646383,-1.562781237909662
-0.15673814914810366,-1.532035499988747
-0.10571129573433811,-1.4982151882757406
-0.08428001730055659,-1.46951916621622
-0.050602294047471325,-1.4336491386418193
0.009609392980772019,-1.4039282586516015
0.03206120848282886,-1.3690830890078978
-0.02304779320403793,-1.338337351086983
-0.050602294047471325,-1.3045170393739765
0.025937986073176995,-1.2860695966214275
0.14227921185656245,-1.2717215855916673
0.176977472177923,-1.2645475800767871
0.14227921185656245,-1.2389261318093578
0.12186847049105622,-1.2102301097498374
0.14227921185656245,-1.1743600821754365
0.13615598944691057,-1.157962355284282
0.08717021016969564,-1.1425894863238244
0.05247194984833508,-1.1313160490861556
0.08717021016969564,-1.1097940325415152
0.14125867478828713,-1.096470879442452
0.14227921185656245,-1.078023436689903
0.0922728955110722,-1.0657251415215372
0.08717021016969564,-1.0452279829075939
0.16166941615379335,-1.0329296877392278
0.2514766781620207,-1.0124325291252845
0.2800517160737294,-1.0011590918876156
0.2790311790054541,-0.9806619332736725
0.3004624574392356,-0.9683636381053065
0.3341401806923209,-0.9478664794913632
0.3229142729412925,-0.9355681843229972
0.3065856798488875,-0.916095883639751
0.32087319880474185,-0.9048224464020822
0.3065856798488875,-0.8833004298574417
0.23412754800134042,-0.8699772767583787
0.2514766781620207,-0.8515298340058297
0.31474997639509,-0.8412812546988581
0.16983371269999584,-0.8187343802235204
-0.04549960870609477,-0.8013117954016686
0.14227921185656245,-0.7859389264412111
0.4739537590460385,-0.792088074025394
0.19738821354342923,-0.7859389264412111
-0.28532581975079285,-0.7767152050649366
0.19738821354342923,-0.754168330589599
0.9862633673202446,-0.7428948933519302
0.2514766781620207,-0.7213728768072898
-1.0762420476641588,-0.7049751499161351
0.16983371269999584,-0.6896022809556777
3.43351125704444,-0.6947265706091634
3.937656568772444,-0.6896022809556777
0.5443708167570349,-0.6783288437180088
-1.26095925702199,-0.6568068271733684
2.0098620468003814,-0.6588565430347627
5.753192013234222,-0.6568068271733684
4.432617046885969,-0.6516825375198826
0.08717021016969564,-0.6250362313217562
-1.6987696593120984,-0.6096633623612988
-0.35370180332523865,-0.592240777539447
0.5178368529818769,-0.5830170561631726
-0.2434837999515051,-0.5594453237571377
-0.7129308513581482,-0.5461221706580746
-0.1608202974212049,-0.5276747279055256
0.18922391699722674,-0.5194758644599483
-0.10571129573433811,-0.49487927412321636
-0.2700177637266632,-0.4702826837864844
-0.050602294047471325,-0.430313224489295
0.05655409812143632,-0.4005923444990772
-0.050602294047471325,-0.3657471748553736
-0.07101303541297754,-0.34115058451864166
0.004506707639395465,-0.30118112522145224
-0.039376386296442904,-0.2612116659242628
-0.1608202974212049,-0.20381962180522156
-0.20266231722049266,-0.156676156993152
-0.1608202974212049,-0.10645811838899093
-0.1495943896701765,-0.07776209632947031
-0.1883747982646383,-0.04189206875506955
-0.23123735513220137,-0.0070468991113659535
-0.2159292991080717,0.05444457673046393
-0.17510781637705927,0.11593605257229381
-0.1883747982646383,0.18460153392900383
-0.2740999119997644,0.23072014081037626
-0.35370180332523865,0.2819630373452345
-0.3669687852128177,0.3229573545731211
-0.3261473024818053,0.378299682830768
-0.2740999119997644,0.42339343178144323
-0.2159292991080717,0.4756611862469986
-0.17306674224050864,0.5176803614055824
-0.1883747982646383,0.5730226896632292
-0.2598123930439101,0.6170915806832074
-0.2985928016383719,0.6693593351487628
-0.26797668959011256,0.7103536523766494
-0.2434837999515051,0.7667208385649934
-0.3077776352528497,0.813864303377063
-0.40779026794383016,0.864082341981224
-0.4526938989479438,0.8917535061100474
-0.4353447687872635,0.9286483916151455
-0.4404474541286401,0.9563195557439689
-0.49045377047413036,0.9932144412490668
-0.5414806238878959,1.0167861736551016
-0.5455627721609971,1.0577804908829882
-0.5190288083858391,1.0905759446652974
-0.49045377047413036,1.1223465405169095
-0.4771867885865513,1.130545403962487
-0.46289926963069694,1.1551419942992187
-0.4475912136065673,1.1828131584280424
-0.4353447687872635,1.2197080439331403
-0.4424885282651907,1.2299566232401118
-0.46289926963069694,1.2525034977154494
-0.48433054806447845,1.2771000880521814
-0.49045377047413036,1.3170695473493708
-0.49045377047413036,1.3314175583791312
-0.49045377047413036,1.3488401432009829
-0.48943323340585504,1.3601135804386517
-0.46289926963069694,1.3816355969832923
-0.413913490353482,1.3775361652605036
-0.35370180332523865,1.3816355969832923
-0.31594193179905217,1.386759886636778
-0.2985928016383719,1.4144310507656015
-0.3179830059356028,1.4185304824883902
-0.35370180332523865,1.4144310507656015
-0.38125630416867207,1.386759886636778
-0.35370180332523865,1.3816355969832923
-0.30267494991147315,1.3765113073298063
-0.2985928016383719,1.3816355969832923
-0.34247589557421027,1.3631881542307431
-0.35370180332523865,1.3488401432009829
-0.322065154208704,1.3252684107949482
-0.35370180332523865,1.3170695473493708
-0.47514571445000064,1.294522672874033
-0.5455627721609971,1.2842740935670616
-0.45371443601621914,1.2627520770224212
-0.2159292991080717,1.2525034977154494
0.19534713940687862,1.2279069073787174
0.9117641613361469,1.2197080439331403
1.8986235063583725,1.2022854591112884
2.8926266108585255,1.1879374480815281
3.737631303390483,1.1479679887843386
4.487726048572837,1.1223465405169095
4.975542767208435,1.0977499501801775
4.708162055320304,1.0905759446652974
3.4804559621851046,1.0680290701899597
1.8200421521011736,1.0577804908829882
0.4392554987246779,1.038308190199742
-0.4353447687872635,1.026009895031376
-0.9752088779049031,0.988090151595581
-1.26095925702199,0.9614438453974546
-1.3058628880261038,0.9337726812686312
-1.26095925702199,0.9286483916151455
-1.2701440906364678,0.9091760909318993
-1.2334047561785566,0.8958529378328361
-1.021133045977292,0.8733060633574985
-0.7384442780650309,0.864082341981224
-0.5853637178237342,0.8415354675058864
-0.5455627721609971,0.8312868881989147
-0.47208410324517475,0.8097648716542744
-0.3261473024818053,0.7995162923473027
-0.22001144738117295,0.7749197020105707
-0.2159292991080717,0.7667208385649934
-0.2996133387066472,0.7492982537431416
-0.40779026794383016,0.7349502427133813
-0.5118850489079119,0.6970304992775862
-0.5455627721609971,0.6693593351487628
-0.5016796782251588,0.6437378868813336
-0.40779026794383016,0.6375887392971507
-0.33227052489145714,0.6181164386139045
-0.2985928016383719,0.6047932855148414
-0.308798172321125,0.5812215531088066
-0.35370180332523865,0.5730226896632292
-0.40983134208038074,0.5525255310492859
-0.4353447687872635,0.54022723588092
-0.4037081196707289,0.5166555034748852
-0.3261473024818053,0.5084566400293079
-0.2455248740880557,0.4889843393460618
-0.1883747982646383,0.4756611862469986
-0.16388190862603083,0.44901488004887236
-0.1608202974212049,0.44286573246468935
-0.17714889051360988,0.43774144281120353
-0.1883747982646383,0.44286573246468935
-0.1689845939674074,0.4254431476428375
-0.10571129573433811,0.41109513661307723
-0.04549960870609477,0.38752340420704245
-0.050602294047471325,0.378299682830768
-0.141430093123974,0.3578025242168247
-0.2434837999515051,0.34652908697915585
-0.26695615252183724,0.32398221250381826
-0.1883747982646383,0.3137336331968466
-0.0944853879833097,0.29221161665220613
-0.07815679489090473,0.2819630373452345
-0.141430093123974,0.2614658787312912
-0.1883747982646383,0.24916758356292523
-0.1587792232846543,0.22457099322619326
-0.07815679489090473,0.21637212978061596
-0.016924570794386064,0.21022298219643296
0.004506707639395465,0.21637212978061596
-0.012842422521284822,0.20202411875085563
-0.050602294047471325,0.18460153392900383
-0.08019786902745535,0.15590551186948323
-0.050602294047471325,0.15180608014669458
0.012671004185597952,0.14873150635460308
0.03206120848282886,0.15180608014669458
-0.018965644930936686,0.13233377946344843
-0.050602294047471325,0.12003548429508247
-0.013862959589560133,0.09953832568113917
0.03206120848282886,0.0872400305127732
0.006547781775946087,0.06264344017604125
-0.050602294047471325,0.05444457673046393
-0.07815679489090473,0.0493202870769781
-0.07815679489090473,0.05444457673046393
-0.08734162850538252,0.03702199190861213
-0.07815679489090473,0.02267398087885182
-0.03427370095506635,0.00935082777978868
0.004506707639395465,0.02267398087885182
-0.014883496657835444,0.024723696740246152
-0.050602294047471325,0.02267398087885182
-0.04447907163781946,-0.0008977515271829656
0.004506707639395465,-0.010121472903457447
0.03920496796075604,-0.0172954784183376
0.059615709326262256,-0.010121472903457447
0.0922728955110722,-0.013196046695548943
0.14227921185656245,-0.010121472903457447
0.16064887908551803,-0.01524576255694327
0.14227921185656245,-0.010121472903457447
0.13513545237863525,-0.01524576255694327
0.19738821354342923,-0.010121472903457447
0.2708668824592516,-0.014220904626246107
0.2514766781620207,-0.010121472903457447
0.1198273963545056,-0.016270620487640435
0.004506707639395465,-0.010121472903457447
0.017773689526974508,-0.011146330834154613
0.14227921185656245,-0.010121472903457447
0.2575999005716726,-0.03061863151740074
0.3065856798488875,-0.04189206875506955
0.3004624574392356,-0.0521406480620412
0.2790311790054541,-0.04189206875506955
0.2565793635033973,-0.043941784616463885
0.2514766781620207,-0.04189206875506955
0.27392849366407757,-0.05009093220064687
0.3065856798488875,-0.04189206875506955
0.28515440141510595,-0.04189206875506955
0.19738821354342923,-0.04189206875506955
0.12493008169588216,-0.06341408529971002
0.16983371269999584,-0.07468752253737883
0.27699010486890346,-0.0839112439136533
0.3065856798488875,-0.07468752253737883
0.23514808506961574,-0.07571238046807599
0.19738821354342923,-0.07468752253737883
0.2412713074792676,-0.08288638598295614
0.3065856798488875,-0.07468752253737883
0.2780106419371788,-0.07468752253737883
0.16983371269999584,-0.07468752253737883
0.13207384117380933,-0.09518468115132211
0.2514766781620207,-0.10645811838899093
0.29842138330268503,-0.11670669769596258
0.059615709326262256,-0.10645811838899093
-0.1302041853729456,-0.10850783425038525
0.19738821354342923,-0.10645811838899093
0.6076441149901042,-0.11568183976526542
0.3065856798488875,-0.10645811838899093
-0.2342989663370273,-0.10645811838899093
0.19738821354342923,-0.10645811838899093
1.0260643129829816,-0.12900499286432854
0.3065856798488875,-0.1392535721713002
-1.5518123214804538,-0.14642757768618034
-1.26095925702199,-0.1392535721713002
2.355824112945712,-0.144377861824786
5.753192013234222,-0.1392535721713002
5.300073554919984,-0.14130328803269454
2.1772301259975326,-0.1392535721713002
0.02083530073180044,-0.1597507307852435
-0.1608202974212049,-0.17204902595360946
-0.013862959589560133,-0.18127274732988394
-0.35370180332523865,-0.17204902595360946
-0.49861806702033284,-0.1740987418150038
-0.2159292991080717,-0.17204902595360946
-0.11183451814398998,-0.1792230314684896
-0.3261473024818053,-0.17204902595360946
-0.40779026794383016,-0.17512359974570096
-0.2434837999515051,-0.17204902595360946
-0.14551224139707525,-0.1792230314684896
-0.1883747982646383,-0.17204902595360946
-0.18429264999153705,-0.16385016250803214
-0.07815679489090473,-0.1392535721713002
0.005527244707670776,-0.12490556114153989
0.004506707639395465,-0.10645811838899093
-0.07101303541297754,-0.10030897080480794
-0.1883747982646383,-0.07468752253737883
-0.28736689388734343,-0.0490660742699497
-0.2985928016383719,-0.010121472903457447
-0.2608329301121854,0.016524833294668834
-0.2434837999515051,0.05444457673046393
-0.2812436714776916,0.08416545672068171
-0.3261473024818053,0.12003548429508247
-0.33329106195973246,0.14258235877042008
-0.3261473024818053,0.18460153392900383
-0.3639071740079918,0.22764556701828476
-0.4353447687872635,0.2819630373452345
-0.4659608808355229,0.31270877526614943
-0.40779026794383016,0.34652908697915585
-0.3394142843693843,0.372150535246585
-0.35370180332523865,0.41109513661307723
-0.4261599351727857,0.43774144281120353
-0.4353447687872635,0.4756611862469986
-0.37105093348591894,0.5043572083065192
-0.35370180332523865,0.54022723588092
-0.4526938989479438,0.5627741103562576
-0.5455627721609971,0.6047932855148414
-0.4975975299520575,0.6488621765348195
-0.35370180332523865,0.702154788931072
-0.27512044906803973,0.7318756689212897
-0.3261473024818053,0.7667208385649934
-0.44146799119691543,0.795416860624514
-0.5455627721609971,0.8312868881989147
-0.613938755735443,0.8446100412979779
-0.6282262746912973,0.864082341981224
-0.5945485514382121,0.8835546426644701
-0.5455627721609971,0.9286483916151455
-0.5159671971810131,0.9614438453974546
-0.49045377047413036,0.9932144412490668
-0.45371443601621914,1.0044878784867355
-0.40779026794383016,1.026009895031376
-0.36798932228109305,1.0362584743383476
-0.3261473024818053,1.0577804908829882
-0.29349011629699534,1.0670042122592627
-0.2985928016383719,1.0905759446652974
-0.35064019212041275,1.1018493819029662
-0.40779026794383016,1.1223465405169095
-0.44146799119691543,1.130545403962487
-0.46289926963069694,1.1551419942992187
-0.5088234377030859,1.1705148632596762
-0.5455627721609971,1.1879374480815281
-0.5282136420003168,1.1797385846359507
-0.4353447687872635,1.1879374480815281
-0.35880448866661524,1.1961363115271053
-0.35370180332523865,1.2197080439331403
-0.41085187914865606,1.218683186002443
-0.4353447687872635,1.2197080439331403
-0.41493402742175733,1.2115091804875628
-0.40779026794383016,1.2197080439331403
-0.4496322877431179,1.2145837542796543
-0.46289926963069694,1.2197080439331403
-0.3945232860562511,1.2135588963489572
-0.3261473024818053,1.2197080439331403
-0.38023576710039675,1.2125340384182601
-0.5455627721609971,1.2197080439331403
-0.673129905695411,1.217658328071746
-0.5731172730044305,1.2197080439331403
-0.09244431384675908,1.1981860273884997
0.8025666950306886,1.1879374480815281
1.9016851175631986,1.1766640108438593
2.9201811117019587,1.1879374480815281
3.790699230940799,1.1848628742894365
4.59794405194657,1.1879374480815281
5.121479567971805,1.1787137267052537
4.84593455953747,1.1879374480815281
3.6212900776070973,1.1848628742894365
2.0119031209369322,1.1879374480815281
0.6831638580424773,1.1664154315368875
-0.2159292991080717,1.1551419942992187
-0.8629498003946188,1.1418188412001558
-1.26095925702199,1.1551419942992187
-1.342602222484015,1.157191710160613
-1.26095925702199,1.1551419942992187
-1.2446306639295852,1.1284956881010926
-1.26095925702199,1.1223465405169095
-1.158905550194459,1.119271966724818
-0.9588802848124981,1.1223465405169095
-0.8017175762981001,1.0987748081108748
-0.7108897772215975,1.0905759446652974
-0.6384316453740504,1.0854516550118116
-0.600671773847864,1.0905759446652974
-0.6261852005547467,1.0670042122592627
-0.6282262746912973,1.0577804908829882
-0.5639324393899527,1.0526562012295024
-0.49045377047413036,1.0577804908829882
-0.48331001099620313,1.0352336164076505
-0.46289926963069694,1.026009895031376
-0.39044113778314987,1.019860747447193
-0.3261473024818053,1.026009895031376
-0.3373732102328337,1.0034630205560384
-0.35370180332523865,0.9932144412490668
-0.30165441284319783,0.9870652936648838
-0.2434837999515051,0.9932144412490668
-0.2659356154535619,0.9716924247044263
-0.3261473024818053,0.9614438453974546
-0.3200240800721534,0.9542698398825745
-0.2434837999515051,0.9614438453974546
-0.18531318705981237,0.9399218288528142
-0.1883747982646383,0.9286483916151455
-0.2149087620397964,0.920449528169568
-0.2159292991080717,0.9286483916151455
-0.19245694653773954,0.9091760909318993
-0.1608202974212049,0.8958529378328361
-0.13122472244122088,0.8845795005951673
-0.10571129573433811,0.8958529378328361
-0.1138755922805406,0.8927783640407446
-0.1608202974212049,0.8958529378328361
-0.2057239284253186,0.888678932317956
-0.1883747982646383,0.8958529378328361
-0.14449170432879993,0.8897037902486532
-0.1608202974212049,0.8958529378328361
-0.2353195034053026,0.8917535061100474
-0.2434837999515051,0.8958529378328361
-0.141430093123974,0.8866292164565617
-0.050602294047471325,0.8958529378328361
-0.08223894316400597,0.9061015171398078
-0.1608202974212049,0.9286483916151455
-0.16694351983085678,0.9255738178230539
-0.10571129573433811,0.9286483916151455
-0.065910350071601,0.9306981074765397
-0.050602294047471325,0.9614438453974546
-0.02406833027231324,0.9788664302193065
0.004506707639395465,0.9932144412490668
-0.01182188545300951,0.9839907198727923
-0.050602294047471325,0.9932144412490668
-0.06488981300332568,1.0044878784867355
-0.050602294047471325,1.026009895031376
-0.04652014577437008,1.0229353212392847
-0.050602294047471325,1.026009895031376
-0.049581756979196014,1.019860747447193
-0.050602294047471325,1.026009895031376
-0.09142377677848376,1.0178110315857987
-0.1608202974212049,1.026009895031376
-0.2087855396301445,1.0249850371006788
-0.1883747982646383,1.026009895031376
-0.12612203709984435,1.001413304694644
-0.07815679489090473,0.9932144412490668
-0.08325948023228127,0.9870652936648838
-0.10571129573433811,0.9932144412490668
-0.09958807332468625,0.9727172826351235
-0.050602294047471325,0.9614438453974546
0.0014450964345695321,0.951195266090483
0.03206120848282886,0.9614438453974546
0.04941033864350915,0.9460709764369972
0.08717021016969564,0.9286483916151455
0.13309437824208464,0.8999523695556247
0.16983371269999584,0.8958529378328361
0.19738821354342923,0.8907286481793503
0.2514766781620207,0.8958529378328361
0.29944192037096035,0.8794552109416816
0.2790311790054541,0.864082341981224
0.19738821354342923,0.8364111778524006
0.16983371269999584,0.8312868881989147
0.2565793635033973,0.826162598545429
0.3892491823791877,0.8312868881989147
0.45252248061225697,0.8128394454463658
0.4443581840660545,0.7995162923473027
0.42394744270054824,0.7851682813175423
0.41680368322262107,0.7995162923473027
0.38516703410608644,0.801566008208697
0.3341401806923209,0.7995162923473027
0.3004624574392356,0.7728699861491763
0.3065856798488875,0.7667208385649934
0.3157705134633653,0.7626214068422047
0.3065856798488875,0.7667208385649934
0.2974008462344097,0.7451988220203529
0.3341401806923209,0.7349502427133813
0.40353670133504205,0.7257265213371068
0.4443581840660545,0.7349502427133813
0.41170099788124453,0.7195773737529239
0.3341401806923209,0.702154788931072
0.2698463453909763,0.6755084827329457
0.3065856798488875,0.6693593351487628
0.3933313306522889,0.6529616082576081
0.3892491823791877,0.6375887392971507
0.32087319880474185,0.6017187117227498
0.3892491823791877,0.5730226896632292
0.508652019367399,0.534078088296737
0.3892491823791877,0.5084566400293079
0.19330606527032798,0.4705368965935128
0.3892491823791877,0.44286573246468935
0.6698968761548982,0.4059708469595914
0.3065856798488875,0.378299682830768
-0.2159292991080717,0.34140479732567003
0.3065856798488875,0.3137336331968466
1.1822064844291043,0.27683874769174865
0.3341401806923209,0.24916758356292523
-1.6691740843321146,0.20099926082015848
-1.26095925702199,0.15180608014669458
2.573198508488353,0.09133946223556186
5.753192013234222,0.05444457673046393
4.612231570902424,0.019599407086760327
1.0495366655533138,-0.010121472903457447
-0.7966148909567237,-0.06341408529971002
-0.35370180332523865,-0.10645811838899093
0.03002013434627824,-0.1484772935475747
-0.46289926963069694,-0.17204902595360946
-0.6639450720809332,-0.20791905352801024
-0.1883747982646383,-0.23661507558753084
0.07900591362349316,-0.27350996109262876
-0.1608202974212049,-0.30118112522145224
-0.3261473024818053,-0.3421754424493388
-0.1883747982646383,-0.3657471748553736
-0.10162914746123687,-0.3882940493307112
-0.1883747982646383,-0.39854262863768286
-0.23327842926875197,-0.42211436104371763
-0.1608202974212049,-0.430313224489295
-0.09958807332468625,-0.4374872300041751
-0.10571129573433811,-0.430313224489295
-0.1587792232846543,-0.4374872300041751
-0.2434837999515051,-0.430313224489295
-0.3292089136866312,-0.4210895031130205
-0.35370180332523865,-0.39854262863768286
-0.3475785809155868,-0.3975177707069857
-0.35370180332523865,-0.39854262863768286
-0.3567634145300646,-0.39854262863768286
-0.2985928016383719,-0.3657471748553736
-0.21286768790324576,-0.3329517210730643
-0.2159292991080717,-0.30118112522145224
-0.3353321360962831,-0.2919574038451777
-0.4353447687872635,-0.26838567143914294
-0.41799563862658323,-0.24071450731031951
-0.35370180332523865,-0.20381962180522156
-0.3649277110762671,-0.19049646870615844
-0.4353447687872635,-0.17204902595360946
-0.48228947392792787,-0.15052700940896901
-0.49045377047413036,-0.10645811838899093
-0.5139261230444625,-0.07468752253737883
-0.5455627721609971,-0.04189206875506955
-0.5537270687071996,-0.027544057725309247
-0.5455627721609971,-0.010121472903457447
-0.5557681428437502,-0.002947467388577295
-0.5731172730044305,0.02267398087885182
-0.5823021066189084,0.05034514500767527
-0.600671773847864,0.0872400305127732
-0.6455754048519776,0.10261289947323067
-0.683335276378164,0.12003548429508247
-0.689458498787816,0.12925920567135696
-0.683335276378164,0.15180608014669458
-0.6904790358560913,0.16410437531506056
-0.683335276378164,0.18460153392900383
-0.6445548677837023,0.19587497116667266
-0.600671773847864,0.21637212978061596
-0.600671773847864,0.2266207090875876
-0.6282262746912973,0.24916758356292523
-0.6353700341692244,0.2614658787312912
-0.600671773847864,0.2819630373452345
-0.568014587663054,0.28913704286011466
-0.5731172730044305,0.3137336331968466
-0.6098566074623417,0.3301313600880012
-0.6282262746912973,0.34652908697915585
-0.6037333850526898,0.33833022353357856
-0.5455627721609971,0.34652908697915585
-0.5047412894299846,0.3578025242168247
-0.49045377047413036,0.378299682830768
-0.5006591411568835,0.37420025110797933
-0.49045377047413036,0.378299682830768
-0.46698141790379816,0.3864985462763453
-0.4353447687872635,0.41109513661307723
-0.4353447687872635,0.4121199945437744
-0.46289926963069694,0.41109513661307723
-0.4955564558155069,0.4008465573061056
-0.49045377047413036,0.41109513661307723
-0.44657067653829197,0.41109513661307723
-0.40779026794383016,0.41109513661307723
-0.4384063799920895,0.3905979779991339
-0.5455627721609971,0.378299682830768
-0.6649656091492085,0.366001387662402
-0.683335276378164,0.378299682830768
-0.4975975299520575,0.38137425662285945
-0.050602294047471325,0.378299682830768
0.6403013011749141,0.35267823456333885
1.5169426428234063,0.34652908697915585
2.500740376640806,0.3434545131870644
3.4702505915023516,0.34652908697915585
4.1989140582509235,0.32398221250381826
4.432617046885969,0.3137336331968466
4.04073081266825,0.3075844856126636
3.1130626176059923,0.3137336331968466
1.8557609494908094,0.2942613325136005
0.5270216865963546,0.2819630373452345
-0.5792404954140824,0.27171445803826283
-1.2058502553351234,0.2819630373452345
-1.345663833688841,0.27683874769174865
-1.26095925702199,0.2819630373452345
-1.2252404596323543,0.278888463553143
-1.26095925702199,0.2819630373452345
-1.2436101268613098,0.260441020800594
-1.1231867528048232,0.24916758356292523
-0.9813321003145549,0.23994386218665073
-0.8762167822821979,0.24916758356292523
-0.7966148909567237,0.2440432939094394
-0.7108897772215975,0.24916758356292523
-0.6333289600326739,0.24711786770153088
-0.5731172730044305,0.24916758356292523
-0.5322957902734181,0.22764556701828476
-0.49045377047413036,0.21637212978061596
-0.47514571445000064,0.20817326633503863
-0.49045377047413036,0.21637212978061596
-0.5343368644099687,0.21124784012713013
-0.5455627721609971,0.21637212978061596
-0.50576182649826,0.21534727184991878
-0.4353447687872635,0.21637212978061596
-0.38125630416867207,0.19485011323597548
-0.35370180332523865,0.18460153392900383
-0.34451696971076085,0.17537781255272936
-0.35370180332523865,0.18460153392900383
-0.36798932228109305,0.17947724427551803
-0.35370180332523865,0.18460153392900383
-0.2996133387066472,0.1825518180676095
-0.2434837999515051,0.18460153392900383
-0.22103198444944824,0.16307951738436338
-0.2159292991080717,0.15180608014669458
-0.20470339135704327,0.14360721670111726
-0.1883747982646383,0.15180608014669458
-0.18531318705981237,0.14668179049320876
-0.1883747982646383,0.15180608014669458
-0.19653909481084078,0.14975636428530023
-0.2159292991080717,0.15180608014669458
-0.23634004047357793,0.13130892153275128
-0.2159292991080717,0.12003548429508247
-0.15265600087500242,0.11081176291880798
-0.10571129573433811,0.12003548429508247
-0.12918364830467027,0.11491119464159665
-0.1883747982646383,0.12003548429508247
-0.2159292991080717,0.11798576843368813
-0.1883747982646383,0.12003548429508247
-0.1434711672605246,0.09851346775044201
-0.10571129573433811,0.0872400305127732
-0.07917733195918003,0.07801630913649872
-0.050602294047471325,0.0872400305127732
-0.02202725613576262,0.08416545672068171
0.004506707639395465,0.0872400305127732
0.0014450964345695321,0.08211574085928737
-0.050602294047471325,0.0872400305127732
-0.13428633364604683,0.08109088292859021
-0.1883747982646383,0.0872400305127732
-0.187354261196363,0.08621517258207603
-0.1608202974212049,0.0872400305127732
-0.15571761207982834,0.06674287189882991
-0.1608202974212049,0.05444457673046393
-0.14653277846535057,0.045220855354189446
-0.10571129573433811,0.05444457673046393
-0.07713625782262941,0.052394860869069595
-0.07815679489090473,0.05444457673046393
-0.09856753625641095,0.04727057121558378
-0.10571129573433811,0.05444457673046393
-0.10367022159778749,0.052394860869069595
-0.10571129573433811,0.05444457673046393
-0.11489612934881592,0.04727057121558378
-0.10571129573433811,0.05444457673046393
-0.0761157207543541,0.05444457673046393
