ECG,PPG
-0.45582921674118426,0.5643610879683061
-0.4716111154259268,1.6735495393929334
-0.4600377230571156,1.791727913212909
-0.4574074066096585,1.4684256476911188
-0.4679286723994869,1.3350529115228607
-0.4700329255574526,1.4439458416855524
-0.4579334698991499,1.519073522185394
-0.4458340142408473,1.4312838730619837
-0.43952125476695025,1.3240792053824344
-0.43005211555610473,1.3190144179330068
-0.411639900423905,1.3603768487699983
-0.38954524226526543,1.3282998615902908
-0.3679766473961173,1.249795656124164
-0.3521947487113747,1.2160304064613139
-0.3390431664740892,1.236289556259024
-0.32536552094731236,1.2253158501185977
-0.30169267292019847,1.1721355818996086
-0.27275919199817045,1.1316172823041886
-0.24487783765512522,1.1324614135457598
-0.226991685812417,1.123175969888476
-0.20700128081174307,1.0818135390514847
-0.1801720530476807,1.0261008771077818
-0.14755612909921273,0.9948680211696455
-0.11441414186125333,0.9670116901977941
-0.06706844580702562,0.946752540400084
-0.0023626611995810898,0.9197403406698039
0.07444257906616608,0.9104548970125201
0.14546112314750764,0.90370184707995
0.21016690775495217,0.9020135845968076
0.27119024933595676,0.8842868285238112
0.3416827301278069,0.8750013848665275
0.42637891973592534,0.8657159412092437
0.5368522105291234,0.8640276787261011
0.662055273428081,0.843768528928391
0.7862062097480559,0.8285741665801085
0.8987837536992196,0.8150680667149685
1.012413424229366,0.8100032792655409
1.129199474496461,0.7914323919509734
1.2354642589737277,0.780458685810547
1.318582258713372,0.7711732421532632
1.396439625558102,0.7694849796701208
1.486922511350626,0.7534464860802669
1.5842442199065385,0.7433169111814119
1.656314890566863,0.7340314675241281
1.6847223081993996,0.7323432050409856
1.6768313588570283,0.717148842692703
1.65526276398788,0.7070192677938479
1.625277156486869,0.6968896928949929
1.5800357135906071,0.6943572991702791
1.5100692960882485,0.6800070680635678
1.4264252330591127,0.6698774931647128
1.3396247902930287,0.6597479182658578
1.252298284237453,0.657215524541144
1.1486638162076437,0.6420211621928614
1.023460753308686,0.6293591935692926
0.8851061081724427,0.6124765687378675
0.759903045273485,0.6048793875637263
0.6652116531650296,0.5879967627323012
0.6052404381630078,0.5778671878334461
0.5621032484247115,0.5643610879683061
0.5179139321074323,0.560984563002021
0.4537342107894792,0.5491667256200236
0.3685119578918693,0.5381930194795972
0.26592961644104257,0.5196221321650296
0.1670297180166558,0.5103366885077458
0.08812022459294297,0.4951423261594633
0.04708728801261229,0.484168620019037
0.03551389564380108,0.4639094702213269
0.030779326038378307,0.4529357640809006
0.005002224853298776,0.4394296642157605
-0.04286953449042035,0.430988351800048
-0.09863224317651076,0.4141057269686229
-0.1386130531778586,0.4073526770360529
-0.16018164804700677,0.3989113646203403
-0.16702047081039523,0.39215831468777035
-0.17385929357378369,0.37189916489006025
-0.18122417962666354,0.3592371962664914
-0.1906933188375091,0.34657522764292265
-0.1991103314693718,0.3381339152272101
-0.2138401035751315,0.3161865029463575
-0.2327783819968226,0.3026804030812174
-0.24908634397105658,0.29001843445764863
-0.2501384705500394,0.2832653845250786
-0.23961720476021103,0.261317972244226
-0.2327783819968226,0.24612360989594342
-0.249612407260548,0.23346164127237462
-0.28433258436698167,0.2267085913398046
-0.31379212857850114,0.208137704025237
-0.31484425515748393,0.1971639978848107
-0.29274959699884434,0.18956681671066944
-0.27328525528766184,0.18703442298595568
-0.2806501413405417,0.16846353567138808
-0.3106357488415526,0.15326917332310552
-0.33956922976358067,0.14060720469953672
-0.34482986265849486,0.1338541547669667
-0.32326126778934666,0.11443913621082785
-0.2916974704198615,0.09840064262097403
-0.2690767489717305,0.08405041151426272
-0.26486824265579917,0.07729736158169269
-0.2790719514720675,0.05957060550869636
-0.30379692607816416,0.04775276812669881
-0.32589158423680376,0.03762319322784377
-0.3348346601581579,0.03509079950313001
-0.33799103989510637,0.020740568396418694
-0.34851230568493474,0.007234468531278636
-0.3632420777906945,-0.008804025058575185
-0.36166388792222026,-0.01640120623271647
-0.34062135634256346,-0.03328383106414154
-0.32536552094731236,-0.04763406217085286
-0.33167828042120934,-0.06536081824384918
-0.3443037993690034,-0.07464626190113298
-0.337464976605615,-0.08899649300784429
-0.31642244502595823,-0.09997019914827059
-0.30905755897307835,-0.11347629901341065
-0.32273520449985527,-0.11854108646283816
-0.33378253357917503,-0.12867066136169322
-0.3222091412103638,-0.1396443675021195
-0.304849052657147,-0.15737112357511585
-0.31642244502595823,-0.1675006984739709
-0.35903357147476317,-0.18100679833911093
-0.39585800173916247,-0.197889423170536
-0.3942798118706882,-0.2274340166255299
-0.3637681410801859,-0.2502255601479537
-0.33799103989510637,-0.2696405787040926
-0.33062615384222654,-0.2839908098108039
-0.3295740272632437,-0.30678235333322773
-0.32641764752629515,-0.3219767156815103
-0.32904796397375224,-0.33379455306350786
-0.3469341158164605,-0.3405476029960779
-0.3690287739751001,-0.35827435906907423
-0.3748154701595057,-0.36924806520950054
-0.353772938579849,-0.3760011151420705
-0.3190527614734153,-0.3802217713499268
-0.2959059767357929,-0.39879265866449437
-0.3006405463412156,-0.4148311522543482
-0.32536552094731236,-0.4266489896363458
-0.35009049555340904,-0.43424617081048705
-0.36271601450120305,-0.45450532060819715
-0.3658723942381516,-0.4713879454396222
-0.3679766473961173,-0.48320578282161974
-0.36745058410662584,-0.4899588327541898
-0.35903357147476317,-0.5076855888271862
-0.3443037993690034,-0.5203475574507549
-0.3348346601581579,-0.5279447386248962
-0.34325167279002056,-0.53047713234961
-0.3679766473961173,-0.5465156259394638
-0.39164949542323113,-0.5625541195293177
-0.4000665080550938,-0.5760602193944576
-0.39164949542323113,-0.5828132693270277
-0.37691972331747137,-0.6013841566415953
-0.36482026765916875,-0.6174226502314492
-0.3606117613432374,-0.6326170125797317
-0.36218995121171166,-0.640214193753873
-0.36218995121171166,-0.6562526873437268
-0.35272081200086614,-0.6689146559672956
-0.3322043437107008,-0.6790442308661506
-0.3132660652890097,-0.6832648870740069
-0.3158963817364668,-0.6950827244560045
-0.3443037993690034,-0.7085888243211445
-0.38112822963340276,-0.7246273179109983
-0.4016446979235681,-0.7347568928098533
-0.3963840650286539,-0.7491071239165646
-0.37691972331747137,-0.7609249612985622
-0.36008569805374596,-0.7735869299221311
-0.3542990018693404,-0.7794958486131298
-0.3548250651588318,-0.7887812922704136
-0.35903357147476317,-0.7997549984108399
-0.3732372802910315,-0.8174817544838362
-0.3974361916076367,-0.8292995918658338
-0.411639900423905,-0.8419615604894026
-0.3969101283181453,-0.8537793978714001
-0.36745058410662584,-0.8731944164275389
-0.3579814448957803,-0.8858563850511078
-0.37639366002797997,-0.8976742224331054
-0.3911234321337397,-0.9086479285735316
-0.37271121700154003,-0.9289070783712418
-0.3369389133161236,-0.943257309477953
-0.32589158423680376,-0.9542310156183793
-0.3521947487113747,-0.9635164592756631
-0.3884931156862826,-0.9837756090733732
-0.405327140950008,-0.999814102663227
-0.40900958397644793,-1.0107878088036533
-0.4195308497662763,-1.0192291212193658
-0.42742179910864764,-1.036111746050791
-0.40374895108153375,-1.0479295834327884
-0.34851230568493474,-1.0538385021237873
-0.30432298936765556,-1.0580591583316434
-0.30379692607816416,-1.0757859144046398
-0.33115221713171794,-1.0926685392360649
-0.35324687529035753,-1.1044863766180626
-0.3679766473961173,-1.1120835577922037
-0.38638886252831695,-1.1289661826236288
-0.3995404447656024,-1.142472282488769
-0.38901917897577404,-1.1483812011797676
-0.36166388792222026,-1.1517577261460528
-0.3390431664740892,-1.1686403509774779
-0.32852190068426085,-1.1846788445673315
-0.32115701463138097,-1.1964966819493292
-0.3158963817364668,-1.2049379943650418
-0.32273520449985527,-1.222664750438038
-0.34482986265849486,-1.2403915065110342
-0.36692452081713445,-1.2530534751346032
-0.3716590904225572,-1.2614947875503157
-0.3564032550273061,-1.2783774123817409
-0.33430859686866643,-1.2952600372131657
-0.3216830779208724,-1.3096102683198771
-0.3201048880523981,-1.318895711977161
-0.3216830779208724,-1.3340900743254436
-0.3201048880523981,-1.3501285679152972
-0.3222091412103638,-1.3653229302635799
-0.33325647028968364,-1.375452505162435
-0.34851230568493474,-1.3898027362691463
-0.353772938579849,-1.4049970986174287
-0.343777736079512,-1.4218797234488538
-0.32326126778934666,-1.43285342958928
-0.3053751159466384,-1.445515398212849
-0.29222353370935295,-1.4607097605611314
-0.2795980147615589,-1.4775923853925566
-0.2622379262083421,-1.488566091532983
-0.24750815410258234,-1.5012280601565517
-0.24277358449715955,-1.5206430787126906
-0.24592996423410807,-1.5535641971339695
-0.24435177436563382,-1.5831087905889634
-0.22541349594394272,-1.605900334111387
-0.19384969857445758,-1.625315352667526
-0.16596834423141238,-1.652327552397806
-0.15176463541514407,-1.6768073584033725
-0.1386130531778586,-1.6928458519932263
-0.1023146862029507,-1.7004430331673677
-0.033926458569066224,-1.7139491330325076
0.04550909814413804,-1.7299876266223615
0.10179787011971987,-1.741805464004359
0.12178827512039378,-1.7409613327627877
0.12389252827835946,-1.7434937264875014
0.12915316117327366,-1.7561556951110704
0.13441379406818785,-1.7721941887009243
0.1223143384098852,-1.7637528762852117
0.09548511064582284,-1.7426495952459302
0.08180746511904595,-1.7274552328976478
0.09022447775090865,-1.7274552328976478
0.08391171827701162,-1.7038195581336526
0.015523490643127155,-1.6573923398472337
-0.11230988870328765,-1.6177181714933848
-0.2385650781812282,-1.6042120716282446
-0.3106357488415526,-1.5712909532069659
-0.3348346601581579,-1.5029163226396942
-0.3606117613432374,-1.4311651671061376
-0.411639900423905,-1.39233512999386
-0.4600377230571156,-1.3450637804658698
-0.47318930529440106,-1.2648713125166007
-0.45688134332016705,-1.1753934009100477
-0.45688134332016705,-1.1213690014494875
-0.48055419134728095,-1.0698769957136411
-0.5136961785852403,-0.9888403965228008
-0.5121179887167661,-0.890077041258964
-0.499492469768972,-0.8191700169669788
-0.4916015204266007,-0.7575484363322772
-0.515800431743206,-0.6782000996245794
-0.5352647734543885,-0.5752160881528864
-0.5242174443750687,-0.4882705702710473
-0.4773978116103324,-0.4165194147374907
-0.4332084952930532,-0.3456123904455054
-0.41479628016085357,-0.25444621635581
-0.4242654193716991,-0.17087722344025588
-0.43426062187203607,-0.09997019914827059
-0.4190047864767849,-0.04256927472142533
-0.3569293183167975,0.03593493074470126
-0.22488743265445132,0.11950392366025538
0.04130059182820668,0.19378747291852572
0.5710463243460656,0.2427470849296584
1.4853443214821518,0.30605692804750245
2.7715690642886712,0.3828728710304865
4.240863831838205,0.4529357640809006
5.613889017410807,0.4926099324347495
6.606044381391624,0.5466343318953097
6.951141899297995,0.6226061436367226
6.487154077966563,0.6985779553781354
5.324554208190527,0.7390962549735556
3.871567402615228,0.7855234732599745
2.6000724319144686,0.8522098413441036
1.739432890306507,0.9222727343945176
1.2275733096313564,0.9551938528157965
0.8814236651460028,0.9914914962033604
0.5794633369779283,1.049736551871777
0.29065459104713925,1.1181111824390486
0.03288357919634398,1.1501881696187561
-0.17964598975818927,1.1805768943153212
-0.34325167279002056,1.2270041126017401
-0.4652983559520298,1.286093299511728
-0.554729115165571,1.3114172367588657
-0.6152263934570842,1.3350529115228607
-0.645212000958095,1.3721946861519958
-0.645212000958095,1.4245308231294136
-0.6399513680631809,1.4515430228596937
-0.645212000958095,1.472646303898975
-0.6751976084591059,1.4979702411461127
-0.6888752539858828,1.5384885407415327
-0.6830885578014773,1.5604359530223855
-0.6583635831953806,1.5764744466122393
-0.6509986971425007,1.5874481527526656
-0.6504726338530092,1.6110838275166606
-0.6420556212211466,1.6203692711739444
-0.6189088364835241,1.6279664523480857
-0.6057572542462386,1.6262781898649432
-0.6152263934570842,1.6364077647637982
-0.6336386085892839,1.6380960272469407
-0.6294301022733525,1.6406284209716546
-0.5968141783248845,1.6296547148312281
-0.5594636847709937,1.625434058623372
-0.5452599759547254,1.615304483724517
-0.5578854949025195,1.611927958758232
-0.5789280264821762,1.5967335964099494
-0.5947099251669189,1.5857598902695231
-0.6057572542462386,1.568877265438098
-0.6152263934570842,1.5629683467470992
-0.6157524567465756,1.5443974594325316
-0.6015487479303073,1.5249824408763928
-0.5784019631926849,1.495437847421399
-0.5605158113499766,1.4810876163146875
-0.554729115165571,1.4582960727922638
-0.5515727354286225,1.4245308231294136
-0.5436817860862512,1.3620651112531408
-0.5363169000333713,1.3105731055172944
-0.5399993430598112,1.2675224121971604
-0.5526248620076053,1.2371336875005954
-0.5610418746394681,1.1940829941804614
-0.5568333683235367,1.1679149256917525
-0.5463121025337083,1.149344038377185
-0.5378950899018456,1.1392144634783299
-0.53210839371744,1.1079816075401934
-0.515800431743206,1.0851900640177696
-0.4863408875316865,1.0691515704279158
-0.4484643306883044,1.0623985204953457
-0.4221611662137334,1.0345421895234943
-0.41058777384492223,1.0109065147594993
-0.4021707612130595,0.993179758686503
-0.3742894068700143,0.9872708399955041
-0.32326126778934666,0.963635165231509
-0.25855548318190213,0.946752540400084
-0.19858426817988037,0.933246440534944
-0.1438736860727728,0.9290257843270877
-0.08705885080769954,0.9079225032878063
-0.019722749752797916,0.8918840096979526
0.051821857618035067,0.8766896473496699
0.12547071814683372,0.8724689911418136
0.2054323381495294,0.8538981038272461
0.30643648973188187,0.8429243976868198
0.4274310463149082,0.8319506915463935
0.5542122990823402,0.8311065603048222
0.6699462227704523,0.8159121979565397
0.7756849439582275,0.8057826230576847
0.8751109056721057,0.7948089169172583
0.9713804876490354,0.7931206544341158
1.0644936898890165,0.7779262920858333
1.1607632718659462,0.7652643234622645
1.2544025373954188,0.7483816986308394
1.3327859675296403,0.7407845174566982
1.3869704863472565,0.723901892625273
1.4258991697696215,0.713772317726418
1.4616714734550378,0.700266217861278
1.4911310176665573,0.6960455616534217
1.5021783467458771,0.6850718555129953
1.4890267645085917,0.6774746743388541
1.4469417013492782,0.6631244432321428
1.3722407142414967,0.6580596557827152
1.2738668791066012,0.6479300808838602
1.174440917392723,0.640332899709719
1.0808016518632506,0.6259826686030076
0.9782193104124238,0.62091788115358
0.8551205006714319,0.610788306254725
0.7278131846145084,0.6031911250805837
0.6157617039528362,0.5829319752828737
0.5189660586864151,0.5719582691424474
0.42111828684101116,0.5584521692773073
0.3227444517061158,0.5491667256200236
0.22857912288715185,0.5272193133391709
0.14546112314750764,0.5145573447156021
0.06812981959226905,0.5018953760920333
-0.0002584080416154138,0.494298194917892
-0.06022962304363717,0.47572730760332443
-0.11230988870328765,0.4672859951876119
-0.16596834423141238,0.4596888140134706
-0.21541829344360577,0.45546815780561434
-0.2606597363398678,0.43520900800790424
-0.29485385015681004,0.42085877690119294
-0.3201048880523981,0.4090409395191954
-0.33588678673714073,0.40144375834505414
-0.3558771917378146,0.38034047730577275
-0.3858627992388255,0.36430198371591893
-0.4163744700293278,0.35164001509235016
-0.4221611662137334,0.34573109640135136
-0.3995404447656024,0.32462781536207
-0.3711330271330658,0.3085893217722162
-0.36745058410662584,0.29508322190707614
-0.3821803562123856,0.28917430321607734
-0.3911234321337397,0.27144754714308106
-0.3795500397649285,0.2596297097610835
-0.36218995121171166,0.25034426610379973
-0.3606117613432374,0.2486560036206572
-0.37849791318594567,0.23177337878923213
-0.3995404447656024,0.2174231476825208
-0.40900958397644793,0.2030729165758095
-0.40585320423949944,0.1954757354016682
-0.4026968245025509,0.17774897932867187
-0.4069053308184823,0.1625546169803893
-0.41795265989780206,0.1465161233905355
-0.43215636871407037,0.13807481097482296
-0.44741220410932153,0.12203631738496915
-0.46108984963609845,0.11106261124454284
-0.46687654582050403,0.09840064262097403
-0.4600377230571156,0.09502411765468902
-0.44425582437237304,0.08320628027269147
-0.4337345585825446,0.07138844289069392
-0.4432036977933902,0.05366168681769759
-0.47318930529440106,0.044376243160413796
-0.5047531026638862,0.030026012053702485
-0.5147483051642232,0.016519912188562427
-0.5005445963479549,-0.0020509751260051555
-0.48318450779473804,-0.012180550024860199
-0.48055419134728095,-0.02568664989000026
-0.4889712039791436,-0.04172514347985408
-0.4937057735845664,-0.07211386817641921
-0.49265364700558356,-0.09574954294041432
-0.4989664064794806,-0.11516456149655314
-0.5189568114801545,-0.1269823988785507
-0.5363169000333713,-0.1472415486762608
-0.5326344570069315,-0.15652699233354458
-0.5126440520062575,-0.16328004226611462
-0.5005445963479549,-0.16834482971554213
-0.5063312925323604,-0.18775984827168096
-0.5131701152957489,-0.20295421061996355
-0.5089616089798176,-0.21561617924353235
-0.5073834191113433,-0.22236922917610238
-0.5236913810855773,-0.2400959852490987
-0.548416355691674,-0.251069691389525
-0.5610418746394681,-0.25782274132209504
-0.5589376214815024,-0.26119926628838
-0.5563073050340452,-0.2806142848445189
-0.5610418746394681,-0.2958086471928014
-0.5647243176659079,-0.30847061581637025
-0.5599897480604852,-0.3152236657489403
-0.552098798718114,-0.3354828155466504
-0.5499945455601483,-0.3515213091365042
-0.5526248620076053,-0.36502740900164427
-0.5573594316130281,-0.3717804589342143
-0.5584115581920109,-0.38866308376563935
-0.5573594316130281,-0.4013250523892082
-0.5573594316130281,-0.4097663648049207
-0.5615679379289594,-0.41229875852963443
-0.5694588872713308,-0.427493120877917
-0.5778758999031934,-0.4426874832261996
-0.5841886593770904,-0.4570377143329109
-0.5857668492455648,-0.46547902674862346
-0.5768237733242106,-0.4815175203384773
-0.5568333683235367,-0.49417948896204605
-0.5373690266123542,-0.5043090638609011
-0.5326344570069315,-0.5085297200687574
-0.5410514696387941,-0.5203475574507549
-0.5463121025337083,-0.533853657315895
-0.5389472164808284,-0.5498921509057488
-0.5305302038489658,-0.5600217258046039
-0.5305302038489658,-0.5743719569113152
-0.5363169000333713,-0.5861897942933127
-0.5410514696387941,-0.5988517629168815
-0.5478902924021826,-0.6047606816078803
-0.554729115165571,-0.6140461252651641
-0.5499945455601483,-0.6250198314055904
-0.5294780772699829,-0.6427465874785867
-0.5115919254272746,-0.6545644248605843
-0.5126440520062575,-0.667226393484153
-0.5231653177960859,-0.6782000996245794
-0.5242174443750687,-0.6984592494222894
-0.5173786216116802,-0.7119653492874295
-0.5168525583221888,-0.7237831866694271
-0.5278998874015086,-0.7322244990851396
-0.5352647734543885,-0.7491071239165646
-0.5268477608225258,-0.7583925675738484
-0.5073834191113433,-0.7651456175064185
-0.49212758371609217,-0.7710545361974173
-0.4910754571371093,-0.7896254235119848
-0.5010706596374462,-0.8048197858602675
-0.509487672269309,-0.816637623242265
-0.509487672269309,-0.8250789356579775
-0.5026488495059205,-0.8419615604894026
-0.4984403431899892,-0.8537793978714001
-0.5005445963479549,-0.859688316562399
-0.5058052292428691,-0.8639089727702551
-0.5021227862164291,-0.8824798600848228
-0.4842366343737209,-0.8985183536746766
-0.45845953318864135,-0.9094920598151028
-0.4410994446354245,-0.9170892409892442
-0.44004731805644165,-0.9373483907869543
-0.4500425205567786,-0.9542310156183793
-0.4579334698991499,-0.9668929842419481
-0.45898559647813275,-0.9736460341745181
-0.45845953318864135,-0.9905286590059432
-0.4600377230571156,-1.0040347588710834
-0.4600377230571156,-1.0116319400452245
-0.45372496358321857,-1.0150084650115097
-0.4458340142408473,-1.0293586961182208
-0.4432036977933902,-1.0453971897080747
-0.4410994446354245,-1.058903289573215
-0.4289999889771219,-1.0681887332304987
-0.41111383713441363,-1.083383095578781
-0.40848352068695654,-1.09604506420235
-0.4268957358191562,-1.106174639101205
-0.44688614081983014,-1.1103952953090612
-0.4500425205567786,-1.1222131326910587
-0.44425582437237304,-1.1365633637977701
-0.4437297610828816,-1.1517577261460528
-0.4463600775303387,-1.162731432286479
-0.4384691281879674,-1.176237532151619
-0.421635102924242,-1.188899500775188
-0.41058777384492223,-1.2007173381571854
-0.4121659637133965,-1.2066262568481843
-0.41479628016085357,-1.215911700505468
-0.4100617105554308,-1.2277295378874655
-0.4016446979235681,-1.2446121627188906
-0.3974361916076367,-1.255585868859317
-0.3963840650286539,-1.2674037062413144
-0.38954524226526543,-1.2876628560390246
-0.37849791318594567,-1.3205839744603034
-0.3732372802910315,-1.3501285679152972
-0.37691972331747137,-1.37207598019615
-0.37902397647543706,-1.388958605027575
-0.3685027106856087,-1.409217754825285
-0.3521947487113747,-1.4201914609657114
-0.34062135634256346,-1.425256248415139
-0.3322043437107008,-1.4311651671061376
-0.3190527614734153,-1.4505801856622764
-0.3032708627886727,-1.4666186792521303
-0.2938017235778272,-1.475904122909414
-0.2880150273934216,-1.486033697808269
-0.2743373818666447,-1.5105135038138355
-0.2464560275235995,-1.5341491785778307
-0.21173585041716583,-1.5493435409261131
-0.18385449607412063,-1.5594731158249682
-0.16859866067886947,-1.5797322656226782
-0.16123377462598962,-1.598303152937246
-0.14808219238870415,-1.6101209903192435
-0.12072690133515036,-1.6168740402518136
-0.07969396475481967,-1.6371331900495236
-0.03603071172703191,-1.6624571272966613
-0.0002584080416154138,-1.6835604083359426
0.021310186827532763,-1.6928458519932263
0.028675072880412628,-1.7046636893752238
0.0223623134065156,-1.7207021829650777
0.001319781826858843,-1.7375848077965028
-0.029191888963643456,-1.7392730702796453
-0.053916863569740146,-1.7375848077965028
-0.05759930659618008,-1.7409613327627877
-0.04339559777991177,-1.7536233013863567
-0.039713154753471834,-1.751935038903214
-0.07916790146532826,-1.735052414071789
-0.1664944075209038,-1.7131050017909364
-0.2774937616035932,-1.7029754268920814
-0.37691972331747137,-1.6844045395775138
-0.44215157121440735,-1.6497951586730923
-0.47108505213643537,-1.6025238091451022
-0.4795020647682981,-1.5679144282406807
-0.4842366343737209,-1.534993309819402
-0.4958100267425321,-1.4902543540161255
-0.5105397988482918,-1.425256248415139
-0.5294780772699829,-1.3644787990220086
-0.5442078493757426,-1.3112985308030196
-0.5631461277974337,-1.2589623938256018
-0.5678806974028565,-1.1813023196010466
-0.5699849505608221,-1.0968891954439213
-0.5594636847709937,-1.0242939086687934
-0.5589376214815024,-0.9685812467250906
-0.5568333683235367,-0.8892329100173928
-0.5536769885865882,-0.7921578172366986
-0.5399993430598112,-0.706900561838002
-0.5236913810855773,-0.653720293619013
-0.5105397988482918,-0.5794367443607427
-0.5126440520062575,-0.477296864130621
-0.5189568114801545,-0.38359829631621184
-0.4958100267425321,-0.3329504218219366
-0.4048010776605166,-0.26795231622095006
-0.2385650781812282,-0.16834482971554213
0.016575617222109994,-0.07211386817641921
0.46478153986879894,-0.024842518648429006
1.2622934867377902,0.02918188081213123
2.4501443944094143,0.12203631738496915
3.858941883667434,0.21911141016566332
5.19566870226513,0.264694497210511
6.1683597245347634,0.31027758425535873
6.530817330994351,0.3904700522046278
6.132061357559856,0.4791038325696095
5.064152879892275,0.5204662634066008
3.699544706951534,0.5592963005188786
2.4895991411212703,0.6293591935692926
1.675253168988554,0.7129281864848467
1.2196823602889852,0.7534464860802669
0.9529682725168358,0.7888999982262596
0.7341259440884055,0.8488333163778186
0.4995017169752326,0.9256492593608027
0.2443610215718944,0.9661675589562229
-0.008675420673478117,1.0007769398606443
-0.23330444528631403,1.0514248143549194
-0.4142702168713621,1.1206435761637623
-0.5431557227967598,1.1620060070007536
-0.6178567099045412,1.196615387905175
-0.6525768870109749,1.236289556259024
-0.6694109122747003,1.292846349444298
-0.6899273805648657,1.3282998615902908
-0.7062353425390997,1.3586885862868558
-0.7214911779343508,1.3865449172587072
-0.7167566083289281,1.4295956105788412
-0.704131089381134,1.459140204033835
-0.6746715451696145,1.4861524037641152
-0.6583635831953806,1.5038791598371115
-0.6609938996428376,1.5342678845336766
-0.6778279249065631,1.5595918217808142
-0.6788800514855459,1.5874481527526656
-0.6573114566163977,1.6001101213762343
-0.6346907351682667,1.6169927462076594
-0.6331125452997924,1.6279664523480857
-0.6388992414841981,1.645693208421082
-0.6320604187208095,1.6482256021457957
-0.6147003301675927,1.6473814709042245
-0.6052311909567473,1.6364077647637982
-0.6068093808252215,1.635563633522227
-0.6041790643777644,1.625434058623372
-0.591027482140479,1.6136162212413745
-0.574719520166245,1.5866040215110944
-0.5699849505608221,1.572253790404383
-0.5768237733242106,1.5579035592976718
-0.5857668492455648,1.541865065707818
-0.5852407859560733,1.5072556848033964
-0.574719520166245,1.485308272522544
-0.5610418746394681,1.4675815164495476
-0.5542030518760795,1.452387154101265
-0.5542030518760795,1.4152453794721298
-0.5536769885865882,1.3899214422249921
-0.5489424189811654,1.3721946861519958
-0.5415775329282855,1.359532717528427
-0.5352647734543885,1.3215468116577207
-0.5247435076645601,1.2886256932364417
-0.5068573558218519,1.2641458872308753
-0.4821323812157552,1.249795656124164
-0.4600377230571156,1.2134980127366002
-0.4458340142408473,1.1839534192816064
-0.43478668516152746,1.1620060070007536
-0.4137441535818707,1.1527205633434698
-0.3800761030544199,1.1240201011300472
-0.3385171031845978,1.0995402951244808
-0.30379692607816416,1.0792811453267708
-0.27538950844562754,1.0716839641526295
-0.25329485028698795,1.0505806831133482
-0.22593955923343415,1.033698058281923
-0.1859587492320863,1.016815433450498
-0.12335721778260746,1.0117506460010706
-0.045499850937877444,0.9940238899280742
0.034987832354309654,0.9788295275797917
0.10337605998819412,0.9611027715067954
0.17071216104309575,0.9551938528157965
0.2506737810457914,0.9374670967428003
0.3527300592071267,0.9239609968776602
0.46425547657930755,0.9053901095630926
0.5742027040830141,0.8969487971473801
0.6799414252707893,0.8817544347990974
0.7940971590904272,0.8716248599002424
0.9187741586998935,0.8564304975519599
1.0471336013357997,0.8522098413441036
1.1623414617344205,0.8412361352036772
1.2586110437113502,0.8353272165126785
1.3327859675296403,0.820132854164396
1.3880226129262392,0.8142239354733972
1.4311598026645356,0.8049384918161134
1.4764012455607975,0.7990295731251146
1.5279554479309567,0.7829910795352608
1.574775080695693,0.7762380296026907
1.593713359117384,0.7669525859454069
1.5763532705641672,0.7627319297375507
1.5263772580624824,0.7458493049061257
1.4553587139811408,0.7382521237319843
1.3738189041099709,0.7298108113162718
1.2880705879228695,0.7247460238668443
1.1918010059459399,0.7044868740691342
1.0823798417317247,0.6918249054455654
0.9666459180436127,0.6783188055804253
0.8661678297507516,0.6715657556478553
0.7814716401426332,0.6521507370917164
0.6967754505345147,0.6428652934344327
0.5920888559257224,0.6352681122602913
0.4805634385535415,0.6318915872940064
0.3837677932871204,0.6124765687378675
0.31537956565323594,0.5981263376311562
0.25698654051968844,0.5846202377660161
0.194911072359701,0.5787113190750174
0.12652284472581657,0.5601404317604498
0.06812981959226905,0.5483225943784522
0.021836250117024184,0.540725413204311
-0.013936053568392308,0.5390371507211684
-0.05023442054330021,0.5204662634066008
-0.08074609133380252,0.5061160322998896
-0.10967957225583055,0.4926099324347495
-0.1386130531778586,0.4858568825021795
-0.17438535686327508,0.46644186394604065
-0.2048970276537774,0.45124750159775806
-0.22646562252292557,0.43605313924947553
-0.23961720476021103,0.4293000893169055
-0.2527687869974965,0.4107292020023379
-0.2569772933134279,0.39553483965405534
-0.24908634397105658,0.3794963460642015
-0.2385650781812282,0.3727432961316315
-0.24329964778665097,0.35501654005863514
-0.2643421793663077,0.34066630895192385
-0.2916974704198615,0.3237836841204988
-0.31116181213104405,0.31534237170478624
-0.3180006348944325,0.2993038781149324
-0.31431819186799254,0.2849536470082211
-0.31116181213104405,0.2672268909352248
-0.3195788247629067,0.2596297097610835
-0.3348346601581579,0.24359121617122967
-0.3364128500266321,0.22248793513194834
-0.3153703184469754,0.18872268546909818
-0.2859107742354559,0.1625546169803893
-0.2738113185771533,0.13807481097482296
-0.2838065210774902,0.12203631738496915
-0.3001144830517242,0.09755651137940279
-0.30432298936765556,0.08405041151426272
-0.29695810331477573,0.07223257413226516
-0.2938017235778272,0.06463539295812389
-0.304849052657147,0.04690863688512756
-0.32273520449985527,0.038467324469415025
-0.33167828042120934,0.03087014329527374
-0.32641764752629515,0.025805355845846218
-0.31642244502595823,0.006390337289707382
-0.31484425515748393,-0.008804025058575185
-0.32641764752629515,-0.020621862440572736
-0.3416734829215463,-0.02821904361471402
-0.34746017910595195,-0.04594579968771035
-0.33799103989510637,-0.056919505828136645
-0.32799583739476945,-0.06367255576070667
-0.33588678673714073,-0.06704908072699169
-0.36166388792222026,-0.08646409928313052
-0.3853367359493341,-0.1016584616314131
-0.3884931156862826,-0.11347629901341065
-0.3737633435805229,-0.12022934894598067
-0.36008569805374596,-0.14133262998526203
-0.36482026765916875,-0.15737112357511585
-0.3884931156862826,-0.17003309219868465
-0.41795265989780206,-0.17678614213125468
-0.43426062187203607,-0.19620116068739352
-0.4263696725296648,-0.21223965427724734
-0.3995404447656024,-0.22658988538395863
-0.3753415334489971,-0.23334293531652867
-0.3732372802910315,-0.251069691389525
-0.3911234321337397,-0.26288752877152255
-0.405327140950008,-0.27301710367037757
-0.3969101283181453,-0.2755494973950914
-0.3748154701595057,-0.2898997285018027
-0.36745058410662584,-0.30340582836694274
-0.38691492581780834,-0.31944432195679656
-0.4142702168713621,-0.32788563437250906
-0.4221611662137334,-0.3439241279623629
-0.4074313941079737,-0.3557419653443605
-0.3900713055547569,-0.367559802726358
-0.3911234321337397,-0.3717804589342143
-0.4074313941079737,-0.38275416507464055
-0.42058297634525915,-0.39457200245663815
-0.4121659637133965,-0.41229875852963443
-0.382706419501877,-0.4224283334284895
-0.3521947487113747,-0.4359344332936296
-0.34272560950052916,-0.44859640191719835
-0.36218995121171166,-0.4680114204733372
-0.3921755587127225,-0.47982925785533476
-0.4042750143710252,-0.49249122647890353
-0.3858627992388255,-0.5034649326193299
-0.35272081200086614,-0.5237240824170399
-0.3348346601581579,-0.5363860510406088
-0.34746017910595195,-0.5490480196641776
-0.37691972331747137,-0.55748933207989
-0.3942798118706882,-0.5743719569113152
-0.38638886252831695,-0.5836574005685989
-0.3706069638435744,-0.590410450501169
-0.3748154701595057,-0.5963193691921678
-0.4016446979235681,-0.6157343877483066
-0.42794786239813903,-0.6300846188550179
-0.4305781788455961,-0.6419024562370155
-0.41111383713441363,-0.650343768652728
-0.3821803562123856,-0.6706029184504381
-0.3542990018693404,-0.6866414120402919
-0.3353607234476493,-0.6984592494222894
-0.3369389133161236,-0.7060564305964308
-0.36166388792222026,-0.7237831866694271
-0.3948058751601796,-0.7356010240514246
-0.4142702168713621,-0.7423540739839947
-0.4132180902923793,-0.7457305989502797
-0.39796225489712816,-0.7634573550232759
-0.37639366002797997,-0.7794958486131298
-0.3495644322639176,-0.7913136859951274
-0.3295740272632437,-0.7989108671692686
-0.337464976605615,-0.8174817544838362
-0.3821803562123856,-0.8343643793152613
-0.43426062187203607,-0.8478704791804014
-0.4458340142408473,-0.8554676603545427
-0.40322288779204235,-0.8731944164275389
-0.34482986265849486,-0.890077041258964
-0.32115701463138097,-0.9044272723656753
-0.34062135634256346,-0.9120244535398166
-0.3732372802910315,-0.9280629471296704
-0.3921755587127225,-0.9407249157532392
-0.399014381476111,-0.9508544906520943
-0.40585320423949944,-0.9550751468599505
-0.4100617105554308,-0.9677371154835194
-0.4000665080550938,-0.9812432153486594
-0.3779718498964542,-0.996437577696942
-0.36692452081713445,-1.0057230213542259
-0.3821803562123856,-1.0209173837025083
-0.4137441535818707,-1.036111746050791
-0.4326824320035618,-1.052994370882216
-0.42321329279271624,-1.0622798145394998
-0.39375374858119677,-1.076630045646211
-0.3653463309486602,-1.0968891954439213
-0.3542990018693404,-1.1255896576573439
-0.3579814448957803,-1.1475370699381964
-0.3606117613432374,-1.166107957252764
-0.34746017910595195,-1.1813023196010466
-0.32378733107883806,-1.203249731881899
-0.31116181213104405,-1.2175999629886105
-0.3185266981839239,-1.2277295378874655
-0.33378253357917503,-1.2387032440278918
-0.3390431664740892,-1.2589623938256018
-0.3348346601581579,-1.2741567561738845
-0.33167828042120934,-1.2842863310727395
-0.33115221713171794,-1.2935717747300233
-0.32641764752629515,-1.3138309245277333
-0.3180006348944325,-1.3307135493591584
-0.31694850831544963,-1.3408431242580134
-0.33325647028968364,-1.349284436673726
-0.36482026765916875,-1.3695435864714363
-0.3942798118706882,-1.3872703425444324
-0.40111863463407665,-1.3965557862017162
-0.37691972331747137,-1.4049970986174287
-0.33430859686866643,-1.425256248415139
-0.29853629318325,-1.4429830044881353
-0.2880150273934216,-1.4531125793869903
-0.2995884197622328,-1.4607097605611314
-0.3216830779208724,-1.4809689103588417
-0.3443037993690034,-1.498695666431838
-0.3606117613432374,-1.508825241330693
-0.36218995121171166,-1.5164224225048344
-0.3464080525269691,-1.538369834785687
-0.3201048880523981,-1.562005509549682
-0.2980102298937585,-1.5797322656226782
-0.2853847109459645,-1.5907059717631047
-0.27801982489308463,-1.6092768590776723
-0.2664464325242734,-1.628691877633811
-0.2517166604185137,-1.6430421087405223
-0.2385650781812282,-1.6506392899146636
-0.2301480655493655,-1.6666777835045175
-0.21910073647004571,-1.68862519578537
-0.1996363947588632,-1.7122608705493652
-0.17070291383683517,-1.725766970414505
-0.132826356993453,-1.738428939038074
-0.08495459764973387,-1.751935038903214
-0.03234826870059197,-1.7688176637346391
0.010262857748212966,-1.7764148449087804
0.034987832354309654,-1.7789472386334941
0.04971760446006939,-1.7764148449087804
0.06655162972379479,-1.7789472386334941
0.08812022459294297,-1.7772589761503517
0.11126700933056541,-1.7696617949762103
0.1307313510417479,-1.7468702514537866
0.13757017380513636,-1.7266111016560766
0.12441859156785089,-1.7097284768246515
0.09653723722480567,-1.6920017207516551
0.08022927525057169,-1.648951027431521
0.09548511064582284,-1.595770759212532
0.12441859156785089,-1.5527200658923983
0.11231913590954824,-1.522331341195833
0.020784123538041346,-1.4666186792521303
-0.12072690133515036,-1.3906468675107175
-0.24066933133919388,-1.3273370243928735
-0.30853149568358695,-1.2918835122468808
-0.35061655884290044,-1.229417800370608
-0.3874409891072998,-1.1298103138652
-0.39585800173916247,-1.0378000085339334
-0.36745058410662584,-0.9888403965228008
-0.34325167279002056,-0.9229981596802429
-0.36429420436967735,-0.8174817544838362
-0.3969101283181453,-0.7161860054952858
-0.40374895108153375,-0.667226393484153
-0.37639366002797997,-0.6089813378157366
-0.3706069638435744,-0.5051531951024724
-0.3800761030544199,-0.3971043961813519
-0.3905973688442483,-0.34476825920393417
-0.3679766473961173,-0.2915879909849452
-0.3416734829215463,-0.19535702944582226
-0.33167828042120934,-0.08984062424941554
-0.3443037993690034,-0.03497209354728405
-0.3469341158164605,0.013143387222277411
-0.327469774105278,0.09840064262097403
-0.2864368375249473,0.1996963916095245
-0.23225231870733118,0.25540905355322724
-0.1638640910734467,0.3018362718396462
-0.0802200280443111,0.3735874273732027
0.05708249051294925,0.46137707649661314
0.37745503381322343,0.5137132134740309
1.0602851835730853,0.5559197755525935
2.182904243347773,0.6175413561872951
3.6143224540539243,0.6994220866197066
5.0715177659451545,0.7568230110465519
6.249899534405933,0.8049384918161134
6.888540367848516,0.8581187600351023
6.8106830010037855,0.9281816530855164
6.014223180713778,0.9796736588213629
4.742728210013018,1.023568483383068
3.406527454704814,1.0657750454616308
2.353348749142993,1.1257083636131897
1.6905090043838051,1.176356238107465
1.2970136638442238,1.219406931427599
0.9908448293602179,1.255704574815163
0.682045678428755,1.3207026804161495
0.3885023628925432,1.4000510171238472
0.15177388262140468,1.4802434850731163
-0.02287912948974643,1.5283589658426777
-0.16175983791548104,1.568877265438098
-0.2906453438408787,1.6001101213762343
-0.40374895108153375,1.632187108555942
-0.46635048253101263,1.6414725522132259
-0.45319890029372717,1.6507579958705096
-0.40111863463407665,1.6600434395277934
-0.37849791318594567,1.681990851808646
-0.43005211555610473,1.6870556392580736
-0.5000185330584634,1.6895880329827873
-0.5426296595072684,1.6870556392580736
-0.53210839371744,1.6980293453984998
-0.5152743684537145,1.698873476640071
-0.49738821661100635,1.6938086891906434
-0.4800281280577895,1.6743936706345046
-0.45425102687270996,1.6667964894603635
-0.44425582437237304,1.655822783319937
-0.45688134332016705,1.645693208421082
-0.4721371787154182,1.6195251399323731
-0.4574074066096585,1.6085514337919469
-0.4163744700293278,1.599265990134663
-0.38638886252831695,1.5908246777189505
-0.3905973688442483,1.5579035592976718
-0.4121659637133965,1.5342678845336766
-0.42321329279271624,1.515696997219109
-0.4190047864767849,1.5038791598371115
-0.405327140950008,1.4667373852079764
-0.38112822963340276,1.4355045292698398
-0.3490383689744262,1.4101805920227022
-0.3322043437107008,1.3941420984328485
-0.3464080525269691,1.3578444550452846
-0.3706069638435744,1.3249233366240056
-0.37271121700154003,1.2953787431690118
-0.34851230568493474,1.2801843808207292
-0.3222091412103638,1.2481073936410216
-0.31221393871002684,1.219406931427599
-0.32063095134188957,1.1915506004557477
-0.3385171031845978,1.1788886318321787
-0.3521947487113747,1.1544088258266123
-0.34325167279002056,1.133305544787331
-0.30642724252562126,1.1071374762986221
-0.2580294198924107,1.0961637701581959
-0.23172625541783975,1.076748751602057
-0.24172145791817673,1.059866126770632
-0.2669724958137648,1.033698058281923
-0.26539430594529057,1.0193478271752119
-0.22488743265445132,1.0016210711022155
-0.16859866067886947,0.989803233720218
-0.13230029370396157,0.9686999526809366
-0.11494020515074475,0.9577262465405103
-0.09810617988701933,0.943376015433799
-0.06285993949109427,0.9366229655012289
-0.020248813042289336,0.9188962094282326
0.02814900959092121,0.9121431594956626
0.0860159714349773,0.9028577158383788
0.16860790788513008,0.8986370596305225
0.2648774898620597,0.8817544347990974
0.3595688819705152,0.8741572536249562
0.43953050197321086,0.8657159412092437
0.5210703118443808,0.8614952850013874
0.6152356406633448,0.8412361352036772
0.7241307415880684,0.8277300353385373
0.8324997792233008,0.8142239354733972
0.9387645637005675,0.8074708855408271
1.046081474756817,0.7888999982262596
1.1565547655500148,0.7787704233274045
1.2622934867377902,0.770329110911692
1.3585630687147199,0.7686408484285495
1.440628941875381,0.7509140923555532
1.512173549246214,0.7416286486982694
1.5789835870116242,0.7331873362825568
1.6500021310929658,0.7314990737994143
1.7131297258319362,0.7120840552432754
1.7499541560963354,0.6977338241365642
1.7546887257017583,0.6842277242714241
1.74416745991193,0.6783188055804253
1.7220728017532902,0.6597479182658578
1.675253168988554,0.6479300808838602
1.5916091059594184,0.6386446372265764
1.4916570809560488,0.6369563747434339
1.3922311192421706,0.6200737499120088
1.2891227145018525,0.6065676500468687
1.169180284497809,0.5913732876985862
1.046081474756817,0.5837761065244449
0.9356081839636189,0.5668934816930198
0.8388125386971979,0.5550756443110223
0.7346520073778969,0.5441019381705959
0.6241787165846989,0.5415695444458822
0.5189660586864151,0.5272193133391709
0.432165615920331,0.5154014759571733
0.34536517315424686,0.4985188511257483
0.2501477177563,0.49007753871003573
0.15387813577937035,0.4731949138786107
0.09075054104040006,0.4596888140134706
0.0723383259082004,0.4419620579404743
0.08128140182955453,0.434364876766333
0.07128619932921756,0.4183263831764792
0.028675072880412628,0.3980672333787691
-0.036556775016523324,0.3634578524743477
-0.08968916725515663,0.33728978398563886
-0.12125296462464177,0.3136541092216437
-0.13177423041447014,0.29677148439021866
-0.13493061015141866,0.2722916783846523
-0.13230029370396157,0.2587855785195122
-0.13230029370396157,0.24696774113751468
