ECG,PPG
0.03102331130475047,-0.3535606800405045
0.0020001498828969696,0.49435738112327915
0.03102331130475047,-0.3535606800405045
0.049392400812252685,-0.7945830771783239
0.03102331130475047,-0.3535606800405045
0.014491130747998475,-0.09192239284961563
0.03102331130475047,-0.3535606800405045
0.06372029062810441,-0.5206941678447178
0.08061985297500644,-0.3535606800405045
0.07841556223410619,-0.27393163611284266
0.08061985297500644,-0.40956352412149744
0.10192799680370902,-0.4909426569266903
0.13021639464526244,-0.40956352412149744
0.14087046655961372,-0.36756139106075275
0.13021639464526244,-0.40956352412149744
0.11956232273091115,-0.4401900794782905
0.13021639464526244,-0.40956352412149744
0.15593311995576553,-0.3973129019787802
0.17944555452536837,-0.40956352412149744
0.1996515529836208,-0.4253143240192767
0.22904209619562435,-0.40956352412149744
0.2628412208894284,-0.38681236871359403
0.27863863786588033,-0.3535606800405045
0.2745974381742298,-0.3535606800405045
0.27863863786588033,-0.3535606800405045
0.30472274496653345,-0.36231112442815966
0.32786779774598623,-0.3535606800405045
0.32933732490658646,-0.3588109466730976
0.32786779774598623,-0.3535606800405045
0.3488085597845388,-0.3596859911118631
0.37746433941624224,-0.3535606800405045
0.3881184113305935,-0.36231112442815966
0.37746433941624224,-0.3535606800405045
0.35799310453828986,-0.3535606800405045
0.32786779774598623,-0.3535606800405045
0.2944360548423322,-0.3859373242748286
0.27863863786588033,-0.40956352412149744
0.28488412829843107,-0.42706441289680774
0.27863863786588033,-0.40956352412149744
0.23565496841832514,-0.4060633463664354
0.17944555452536837,-0.40956352412149744
0.14601381162171434,-0.44544034611088357
0.13021639464526244,-0.4664414126412559
0.10964301439685994,-0.48131716810026964
0.08061985297500644,-0.4664414126412559
0.05674003661525357,-0.46469132376372485
0.03102331130475047,-0.4664414126412559
-0.010490830982204536,-0.49969310131434547
-0.06780239024561145,-0.5233193011610143
-0.12327704055826813,-0.5408201899363246
-0.16662809179597335,-0.5233193011610143
-0.196753398588277,-0.5171939900896557
-0.21622463346622933,-0.5233193011610143
-0.2349611047638816,-0.5626963009054625
-0.26582117513648534,-0.5801971896807728
-0.29962029983028937,-0.5863225007521314
-0.31505033501659124,-0.5801971896807728
-0.3110091353249408,-0.6099487005988002
-0.31505033501659124,-0.6370750782005312
-0.3403996785369443,-0.655451011414607
-0.36464687668684725,-0.6370750782005312
-0.36795331279819765,-0.6318248115679381
-0.36464687668684725,-0.6370750782005312
-0.36795331279819765,-0.6720768557511518
-0.36464687668684725,-0.6930779222815242
-0.3403996785369443,-0.709703766618069
-0.31505033501659124,-0.6930779222815242
-0.31064175353479073,-0.6887027000876966
-0.31505033501659124,-0.6930779222815242
-0.29998768162043943,-0.7307048331484413
-0.26582117513648534,-0.7499558108012826
-0.23459372297373154,-0.7604563440664688
-0.21622463346622933,-0.7499558108012826
-0.196753398588277,-0.7569561663114067
-0.16662809179597335,-0.7499558108012826
-0.1361354032135197,-0.7508308552400481
-0.11739893191586742,-0.7499558108012826
-0.10086675135911544,-0.7832074994743722
-0.06780239024561145,-0.8068336993210411
-0.0160015578344552,-0.8208344103412893
0.03102331130475047,-0.8068336993210411
0.06004647272660397,-0.8085837881985721
0.08061985297500644,-0.8068336993210411
0.1059691964953595,-0.8155841437086963
0.13021639464526244,-0.8068336993210411
0.15005501131336482,-0.8112089215148687
0.17944555452536837,-0.8068336993210411
0.22904209619562435,-0.8138340548311652
0.27863863786588033,-0.8068336993210411
0.309498708238484,-0.8129590103923997
0.32786779774598623,-0.8068336993210411
0.3517476141057391,-0.8129590103923997
0.37746433941624224,-0.8068336993210411
0.4009767739858451,-0.8138340548311652
0.4270608810864982,-0.8068336993210411
0.45792095145910194,-0.8120839659536342
0.47629004096660416,-0.8068336993210411
0.4770248045469042,-0.8147090992699307
0.47629004096660416,-0.8068336993210411
0.4847398221400552,-0.8094588326373376
0.47629004096660416,-0.8068336993210411
0.43404113509934905,-0.8190843214637583
0.37746433941624224,-0.8068336993210411
0.342195687561838,-0.7867076772294342
0.32786779774598623,-0.7499558108012826
0.31207038076953436,-0.745580588607455
0.27863863786588033,-0.7499558108012826
0.23161376872667466,-0.7665816551378274
0.17944555452536837,-0.7499558108012826
0.14013570297931363,-0.7272046553933793
0.13021639464526244,-0.6930779222815242
0.13940093939901355,-0.6895777445264621
0.13021639464526244,-0.6930779222815242
0.08576319803710707,-0.7263296109546138
0.03102331130475047,-0.7499558108012826
-0.0020410498087535174,-0.772706966209186
-0.018205848575355465,-0.7499558108012826
-0.03914661061390799,-0.7219543887607862
-0.06780239024561145,-0.6930779222815242
-0.09351911555611454,-0.7009533222304138
-0.11739893191586742,-0.6930779222815242
-0.14385042080667063,-0.6764520779449794
-0.16662809179597335,-0.6370750782005312
-0.17324096401867417,-0.6178241005476899
-0.16662809179597335,-0.5801971896807728
-0.16221951031417284,-0.5355699233037315
-0.16662809179597335,-0.4664414126412559
-0.1703019096974738,-0.4183139685091526
-0.16662809179597335,-0.3535606800405045
-0.16074998315357264,-0.2835571249392633
-0.16662809179597335,-0.18292701448122917
-0.18867099920497601,-0.10154788167603629
-0.21622463346622933,-0.013168393360719316
-0.22687870538058064,0.06033533949558391
-0.21622463346622933,0.1565902277597905
-0.20410103439127789,0.2528451160239971
-0.21622463346622933,0.3832267374000588
-0.24598255846838293,0.5022327810721688
-0.26582117513648534,0.6098632470403271
-0.2639842661857351,0.6798668021415682
-0.26582117513648534,0.7804969125996024
-0.28786408254548795,0.8907525118840572
-0.31505033501659124,1.0071334222398707
-0.3220305890294421,1.0815121995349395
-0.31505033501659124,1.1768920433603807
-0.3113765171150908,1.2853975537673044
-0.31505033501659124,1.403528553000649
-0.3154177168067413,1.4621565303979382
-0.31505033501659124,1.5172843300401657
-0.31578509859689136,1.5829126629475794
-0.31505033501659124,1.6870429511606757
-0.3110091353249408,1.7535463285068547
-0.31505033501659124,1.8007987282001925
-0.3227653526097422,1.832300327995751
-0.31505033501659124,1.913679460800944
-0.28676193717503784,2.00030886023873
-0.26582117513648534,2.084313126360219
-0.26508641155618523,2.1131895928394813
-0.26582117513648534,2.140315970441212
-0.2441456495176327,2.156941814777757
-0.21622463346622933,2.1971938589609707
-0.20704008871247823,2.2208200588076394
-0.21622463346622933,2.254071747480729
-0.22063321494802987,2.257571925235791
-0.21622463346622933,2.254071747480729
-0.21218343377457885,2.2138197032975153
-0.21622463346622933,2.1971938589609707
-0.21842892420712962,2.1866933256957846
-0.21622463346622933,2.1971938589609707
-0.213285579145029,2.1691924369204743
-0.21622463346622933,2.140315970441212
-0.21842892420712962,2.0983138373804673
-0.21622463346622933,2.084313126360219
-0.21181605198442882,2.05106143768713
-0.21622463346622933,2.0274352378404608
-0.2224701238987801,1.9863081492184815
-0.21622463346622933,1.9705573493207023
-0.1908752899458763,1.9381807050863784
-0.16662809179597335,1.913679460800944
-0.15964783778312253,1.8708022833014337
-0.16662809179597335,1.8568015722811855
-0.16956714611717372,1.83055023911822
-0.16662809179597335,1.8007987282001925
-0.16479118284522315,1.7307951730989513
-0.16662809179597335,1.6870429511606757
-0.16662809179597335,1.650291084732524
-0.16662809179597335,1.6301650626409172
-0.16662809179597335,1.5706620408048622
-0.16662809179597335,1.5172843300401657
-0.16479118284522315,1.4525310415715176
-0.16662809179597335,1.403528553000649
-0.16919976432702366,1.3317749090218767
-0.16662809179597335,1.2906478203998974
-0.16148474673387275,1.2556460428492768
-0.16662809179597335,1.233769931880139
-0.17581263654972445,1.1698916878502565
-0.16662809179597335,1.1200141548406222
-0.13576802142336963,1.0797621106574085
-0.11739893191586742,1.0640113107596292
-0.13356373068246938,1.0062583778011052
-0.16662809179597335,0.9502555337201123
-0.17838430908077477,0.8977528673941814
-0.16662809179597335,0.8933776452003538
-0.15744354704222224,0.8881273785677607
-0.16662809179597335,0.8933776452003538
-0.1761800183398745,0.8671263120373884
-0.16662809179597335,0.8373748011193609
-0.1394418393248701,0.788372312548492
-0.11739893191586742,0.7804969125996024
-0.11152082327346671,0.7778717792833059
-0.11739893191586742,0.7804969125996024
-0.11923584086661765,0.7419949572939198
-0.11739893191586742,0.723619024079844
-0.11519464117496717,0.7148685796921889
-0.11739893191586742,0.723619024079844
-0.11776631370601746,0.6921174242842855
-0.11739893191586742,0.6667411355600855
-0.1162967865454173,0.6492402467847752
-0.11739893191586742,0.6667411355600855
-0.11739893191586742,0.6649910466825545
-0.11739893191586742,0.6667411355600855
-0.1162967865454173,0.6553655578561338
-0.11739893191586742,0.6667411355600855
-0.11739893191586742,0.6614908689274924
-0.11739893191586742,0.6667411355600855
-0.1162967865454173,0.6579906911724304
-0.11739893191586742,0.6667411355600855
-0.11776631370601746,0.6597407800499614
-0.11739893191586742,0.6667411355600855
-0.11556202296511721,0.6588657356111959
-0.11739893191586742,0.6667411355600855
-0.11923584086661765,0.6597407800499614
-0.11739893191586742,0.6667411355600855
-0.1129903504340669,0.6579906911724304
-0.11739893191586742,0.6667411355600855
-0.12437918592871827,0.6606158244887269
-0.11739893191586742,0.6667411355600855
-0.09094744302506423,0.6571156467336648
-0.06780239024561145,0.6667411355600855
-0.06302642697366087,0.6632409578050235
-0.06780239024561145,0.6667411355600855
-0.0674350084554614,0.6536154689786028
-0.06780239024561145,0.6667411355600855
-0.07184358993726193,0.6702413133151476
-0.06780239024561145,0.6667411355600855
-0.04392257388585857,0.6247390024993409
-0.018205848575355465,0.6098632470403271
-0.010490830982204536,0.6054880248464996
-0.018205848575355465,0.6098632470403271
-0.021879666476855908,0.5731113806121755
-0.018205848575355465,0.5538604029593341
-0.015634176044305156,0.545109958571679
-0.018205848575355465,0.5538604029593341
-0.019675375735955642,0.5206087142862446
-0.018205848575355465,0.4969825144395757
-0.017103703204905334,0.4847318922968585
-0.018205848575355465,0.4969825144395757
-0.01857323036550551,0.46898109239907926
-0.018205848575355465,0.44010462591981725
-0.017838466785205422,0.4182285149506794
-0.018205848575355465,0.44010462591981725
-0.018205848575355465,0.44622993699117586
-0.018205848575355465,0.44010462591981725
-0.018205848575355465,0.4007276261753691
-0.018205848575355465,0.3832267374000588
-0.017838466785205422,0.3709761152573416
-0.018205848575355465,0.3832267374000588
-0.01857323036550551,0.3788515152062312
-0.018205848575355465,0.3832267374000588
-0.017471084995055376,0.37360124857363813
-0.018205848575355465,0.3832267374000588
-0.0193079939458056,0.37972655964499674
-0.018205848575355465,0.3832267374000588
-0.016368939624605245,0.3569754042370934
-0.018205848575355465,0.3272238933190659
-0.020777521106405777,0.2808465380644936
-0.018205848575355465,0.2703460047993074
-0.01342988530340489,0.26509573816671433
-0.018205848575355465,0.2703460047993074
-0.02628824795865644,0.23971944944251442
-0.018205848575355465,0.21346811627954898
0.010817312846498032,0.17759129429016288
0.03102331130475047,0.1565902277597905
0.01743018506919883,0.11721322801534237
-0.018205848575355465,0.10058738367879759
-0.035840174502557595,0.08921180597484589
-0.018205848575355465,0.10058738367879759
0.014123748957848431,0.09271198372990795
0.03102331130475047,0.10058738367879759
0.031390693094900515,0.09883729480126656
0.03102331130475047,0.10058738367879759
0.036901419947151175,0.06646065056694252
0.03102331130475047,0.04370949515903914
0.00714349494499759,0.02795869526125987
-0.018205848575355465,0.04370949515903914
-0.024818720798056262,0.041959406281508106
-0.018205848575355465,0.04370949515903914
-0.014899412464005068,0.01658311755730818
-0.018205848575355465,-0.013168393360719316
-0.019675375735955642,-0.060420793054057106
-0.018205848575355465,-0.07004628188047776
-0.017838466785205422,-0.07092132631924328
-0.018205848575355465,-0.07004628188047776
-0.017471084995055376,-0.1076731927473949
-0.018205848575355465,-0.1269241704002362
-0.02041013931625573,-0.13304948147159482
-0.018205848575355465,-0.1269241704002362
-0.01416464888370498,-0.15930081463456025
-0.018205848575355465,-0.18292701448122917
-0.02628824795865644,-0.19692772550147739
-0.018205848575355465,-0.18292701448122917
0.009347785685897855,-0.19080241443011878
0.03102331130475047,-0.18292701448122917
0.03249283846535064,-0.18205197004246365
0.03102331130475047,-0.18292701448122917
0.05012716439255277,-0.2223040142256773
0.08061985297500644,-0.2398049030009876
0.10707134186580963,-0.2441801251948152
0.13021639464526244,-0.2398049030009876
0.15850479248681584,-0.2765567694291392
0.17944555452536837,-0.29668279152074606
0.1838541360071689,-0.30280810259210467
0.17944555452536837,-0.29668279152074606
0.1798129363155184,-0.3316845690713666
0.17944555452536837,-0.3535606800405045
0.17687388199431806,-0.36056103555062863
0.17944555452536837,-0.3535606800405045
0.1878953356988194,-0.38681236871359403
0.17944555452536837,-0.40956352412149744
0.15189192026411505,-0.4191890129479181
0.13021639464526244,-0.40956352412149744
0.1316859218058626,-0.4401900794782905
0.13021639464526244,-0.4664414126412559
0.09458036100070813,-0.48219221253903516
0.03102331130475047,-0.4664414126412559
-0.025920866168506397,-0.47081663483508346
-0.06780239024561145,-0.4664414126412559
-0.11188820506361676,-0.46994159039631794
-0.16662809179597335,-0.4664414126412559
-0.2085096158730784,-0.49794301243681444
-0.21622463346622933,-0.5233193011610143
-0.2059379433420281,-0.5399451454975591
-0.21622463346622933,-0.5233193011610143
-0.24855423099943325,-0.5224442567222488
-0.26582117513648534,-0.5233193011610143
-0.24634994025853296,-0.5364449677424971
-0.21622463346622933,-0.5233193011610143
-0.21034652482382862,-0.5206941678447178
-0.21622463346622933,-0.5233193011610143
-0.22100059673817993,-0.5591961231504005
-0.21622463346622933,-0.5801971896807728
-0.22393965105938027,-0.5933228562622556
-0.21622463346622933,-0.5801971896807728
-0.19491648963752678,-0.5836973674358349
-0.16662809179597335,-0.5801971896807728
-0.16185212852402278,-0.5880725896296625
-0.16662809179597335,-0.5801971896807728
-0.16736285537627346,-0.5863225007521314
-0.16662809179597335,-0.5801971896807728
-0.18426241772317548,-0.5854474563133659
-0.21622463346622933,-0.5801971896807728
-0.22540917821998044,-0.588947634068428
-0.16662809179597335,-0.5801971896807728
0.0027349134631970582,-0.5810722341195383
0.32786779774598623,-0.5801971896807728
0.8800426283415028,-0.6116987894763313
1.7132645284018033,-0.6370750782005312
2.813572989901186,-0.6563260558533726
4.087653038141539,-0.6370750782005312
5.405084137619598,-0.6134488783538623
6.5612346312217875,-0.5801971896807728
7.24272785195012,-0.5775720563644763
7.154923604104259,-0.5801971896807728
6.300026178425107,-0.5959479895785521
5.027415657345353,-0.5801971896807728
3.751498700154249,-0.5565709898341039
2.6530271476056164,-0.5233193011610143
1.7261228910570547,-0.5233193011610143
0.9711533122987138,-0.5233193011610143
0.4417561526925,-0.532944789987435
0.13021639464526244,-0.5233193011610143
-0.04759639178735901,-0.5276945233548419
-0.16662809179597335,-0.5233193011610143
-0.23863492266538205,-0.531194701109904
-0.26582117513648534,-0.5233193011610143
-0.2783121560015868,-0.5285695677936074
-0.31505033501659124,-0.5233193011610143
-0.3730966578602983,-0.5303196566711385
-0.4142434183571032,-0.5233193011610143
-0.42342796311085434,-0.5294446122323729
-0.4142434183571032,-0.5233193011610143
-0.4164477090980035,-0.5303196566711385
-0.4142434183571032,-0.5233193011610143
-0.4142434183571032,-0.5294446122323729
-0.4142434183571032,-0.5233193011610143
-0.42710178101235474,-0.5303196566711385
-0.4142434183571032,-0.5233193011610143
-0.3668511674277475,-0.5285695677936074
-0.31505033501659124,-0.5233193011610143
-0.30255935415148977,-0.5320697455486695
-0.31505033501659124,-0.5233193011610143
-0.3066005538431402,-0.5268194789160764
-0.26582117513648534,-0.5233193011610143
-0.2250417964298304,-0.534694878864966
-0.21622463346622933,-0.5233193011610143
-0.22357226926923024,-0.5206941678447178
-0.21622463346622933,-0.5233193011610143
-0.18756885383452587,-0.560071167589166
-0.16662809179597335,-0.5801971896807728
-0.16552594642552323,-0.588947634068428
-0.16662809179597335,-0.5801971896807728
-0.14715685691802102,-0.6073235672825037
-0.11739893191586742,-0.6370750782005312
-0.09094744302506423,-0.6589511891696691
-0.06780239024561145,-0.6370750782005312
-0.03877922882375795,-0.626574544935345
-0.018205848575355465,-0.6370750782005312
-0.01416464888370498,-0.6799522557000415
-0.018205848575355465,-0.6930779222815242
-0.015634176044305156,-0.6948280111590552
-0.018205848575355465,-0.6930779222815242
-0.03730970166315777,-0.7298297887096757
-0.06780239024561145,-0.7499558108012826
-0.09278435197581446,-0.7560811218726412
-0.11739893191586742,-0.7499558108012826
-0.1445851843869707,-0.7814574105968412
-0.16662809179597335,-0.8068336993210411
-0.16956714611717372,-0.8199593659025238
-0.16662809179597335,-0.8068336993210411
-0.17875169087092482,-0.8120839659536342
-0.21622463346622933,-0.8068336993210411
-0.26618855692663534,-0.8068336993210411
-0.31505033501659124,-0.8068336993210411
-0.3477473143399452,-0.8427105213104272
-0.36464687668684725,-0.8637115878407995
-0.3786073847125489,-0.8715869877896891
-0.4142434183571032,-0.8637115878407995
-0.4664116325584095,-0.8925880543200615
-0.5130691199074652,-0.9197144319217925
-0.5391532270081183,-0.9380903651358683
-0.5622982797875711,-0.9197144319217925
-0.5909540594192745,-0.918839387483027
-0.611894821457827,-0.9197144319217925
-0.6122622032479771,-0.9328400985032752
-0.611894821457827,-0.9197144319217925
-0.6309986745456293,-0.918839387483027
-0.661491363128083,-0.9197144319217925
-0.6725128168325843,-0.9372153206971028
-0.661491363128083,-0.9197144319217925
-0.6512046730038817,-0.8943381431975925
-0.661491363128083,-0.8637115878407995
-0.6736149622030345,-0.8689618544733926
-0.661491363128083,-0.8637115878407995
-0.6295291473850292,-0.8462106990654893
-0.611894821457827,-0.8068336993210411
-0.6152012575691774,-0.8007083882496825
-0.611894821457827,-0.8068336993210411
-0.586545477937474,-0.8234595436575859
-0.5622982797875711,-0.8068336993210411
-0.5461334810209691,-0.7849575883519032
-0.5130691199074652,-0.7499558108012826
-0.4546554152736081,-0.745580588607455
-0.4142434183571032,-0.7499558108012826
-0.41350865477680315,-0.7683317440153584
-0.4142434183571032,-0.7499558108012826
-0.3727292760701482,-0.7228294331995517
-0.31505033501659124,-0.6930779222815242
-0.28235335569323733,-0.7009533222304138
-0.26582117513648534,-0.6930779222815242
-0.2250417964298304,-0.6747019890674484
-0.16662809179597335,-0.6370750782005312
-0.12658347666961853,-0.6335749004454692
-0.11739893191586742,-0.6370750782005312
-0.10527533284091596,-0.6475756114657174
-0.06780239024561145,-0.6370750782005312
-0.013062503513254846,-0.6405752559555933
0.03102331130475047,-0.6370750782005312
0.059311709146303876,-0.6440754337106553
0.08061985297500644,-0.6370750782005312
0.10670396007565959,-0.6432003892718898
0.13021639464526244,-0.6370750782005312
0.15262668384441513,-0.6414503003943588
0.17944555452536837,-0.6370750782005312
0.21177515205857225,-0.6458255225881864
0.22904209619562435,-0.6370750782005312
0.22940947798577438,-0.6379501226392967
0.22904209619562435,-0.6370750782005312
0.23822664094937546,-0.6528258780983105
0.22904209619562435,-0.6370750782005312
0.18605842674806916,-0.6108237450375658
0.13021639464526244,-0.5801971896807728
0.09641726995145836,-0.5863225007521314
0.08061985297500644,-0.5801971896807728
0.06261814525765427,-0.561821256466697
0.03102331130475047,-0.5233193011610143
-0.011225594562504625,-0.5206941678447178
-0.06780239024561145,-0.5233193011610143
-0.12768562204006867,-0.534694878864966
-0.16662809179597335,-0.5233193011610143
-0.1710366732777739,-0.5276945233548419
-0.16662809179597335,-0.5233193011610143
-0.18205812698227522,-0.5303196566711385
-0.21622463346622933,-0.5233193011610143
-0.24561517667823288,-0.5320697455486695
-0.26582117513648534,-0.5233193011610143
-0.28786408254548795,-0.5259444344773109
-0.31505033501659124,-0.5233193011610143
-0.3275413158816928,-0.5399451454975591
-0.31505033501659124,-0.5233193011610143
-0.2988855362499893,-0.49881805687557995
-0.31505033501659124,-0.4664414126412559
-0.36501425847699726,-0.47519185702891104
-0.4142434183571032,-0.4664414126412559
-0.42710178101235474,-0.43406476840693187
-0.4142434183571032,-0.3535606800405045
-0.40505887360335213,-0.293182613765684
-0.4142434183571032,-0.2398049030009876
-0.420856290579804,-0.2039280810116015
-0.4142434183571032,-0.1269241704002362
-0.40395672823290196,-0.03066928213602961
-0.4142434183571032,0.10058738367879759
-0.4406949072479064,0.21259307184078347
-0.46347257823720917,0.3272238933190659
-0.4675137779288596,0.4252288704608035
-0.46347257823720917,0.5538604029593341
-0.462003051076609,0.6702413133151476
-0.46347257823720917,0.7804969125996024
-0.46053352391600877,0.8522505565783747
-0.46347257823720917,0.9502555337201123
-0.48257643132501143,1.0578859996882706
-0.5130691199074652,1.1768920433603807
-0.5270296279331668,1.2573961317268079
-0.5130691199074652,1.347525708919656
-0.48257643132501143,1.43065493060238
-0.46347257823720917,1.5172843300401657
-0.46053352391600877,1.563661685294738
-0.46347257823720917,1.6301650626409172
-0.462003051076609,1.7071689732522823
-0.46347257823720917,1.8007987282001925
-0.4675137779288596,1.852426350087358
-0.46347257823720917,1.913679460800944
-0.4403275254577564,1.9688072604431712
-0.4142434183571032,2.0274352378404608
-0.404324110023052,2.04318603773824
-0.4142434183571032,2.084313126360219
-0.42048890878965395,2.1376908371249157
-0.4142434183571032,2.1971938589609707
-0.4057936371836522,2.1954437700834397
-0.4142434183571032,2.1971938589609707
-0.42453010848130446,2.211194569981219
-0.4142434183571032,2.254071747480729
-0.3819138208238993,2.254071747480729
-0.36464687668684725,2.254071747480729
-0.38117905724359924,2.2461963475318396
-0.4142434183571032,2.254071747480729
-0.4263670174320547,2.2208200588076394
-0.4142434183571032,2.1971938589609707
-0.3899962202072003,2.1788179257468947
-0.36464687668684725,2.1971938589609707
-0.3359910970551438,2.192818636767143
-0.31505033501659124,2.1971938589609707
-0.30917222637419056,2.1866933256957846
-0.31505033501659124,2.1971938589609707
-0.3172546257574915,2.1884434145733156
-0.31505033501659124,2.1971938589609707
-0.312846044275691,2.1919435923283777
-0.31505033501659124,2.1971938589609707
-0.31578509859689136,2.1665673036041775
-0.31505033501659124,2.140315970441212
-0.3135808078559911,2.1000639262579983
-0.31505033501659124,2.084313126360219
-0.31578509859689136,2.049311348809599
-0.31505033501659124,2.0274352378404608
-0.313213426065841,1.987183193657247
-0.31505033501659124,1.9705573493207023
-0.3165198621771914,1.9381807050863784
-0.31505033501659124,1.913679460800944
-0.3110091353249408,1.854176438964889
-0.31505033501659124,1.8007987282001925
-0.321295825449142,1.7316702175377168
-0.31505033501659124,1.6870429511606757
-0.29006837328638824,1.6257898404470896
-0.26582117513648534,1.5741622185599242
-0.25847353933348444,1.502408574581152
-0.26582117513648534,1.4604064415204072
-0.2687602294576857,1.4210294417759592
-0.26582117513648534,1.403528553000649
-0.26251473902513495,1.351025886674718
-0.26582117513648534,1.2906478203998974
-0.2672907022970855,1.2127688653497666
-0.26582117513648534,1.1768920433603807
-0.26288212081528495,1.1453904435648221
-0.26582117513648534,1.1200141548406222
-0.2676580840872355,1.057010955249505
-0.26582117513648534,1.0071334222398707
-0.2614125936546848,0.961631111424064
-0.26582117513648534,0.9502555337201123
-0.2720666655690361,0.9187539339245537
-0.26582117513648534,0.8933776452003538
-0.24047183161613225,0.8531256010171402
-0.21622463346622933,0.8373748011193609
-0.2092443794533785,0.8049981568850368
-0.21622463346622933,0.7804969125996024
-0.2191636877874297,0.7393698239776233
-0.21622463346622933,0.723619024079844
-0.21365296093517902,0.6938675131618165
-0.21622463346622933,0.6667411355600855
-0.21695939704652942,0.6194887358667478
-0.21622463346622933,0.6098632470403271
-0.21512248809577922,0.6081131581627961
-0.21622463346622933,0.6098632470403271
-0.2158572516760793,0.5713612917346444
-0.21622463346622933,0.5538604029593341
-0.21622463346622933,0.5459850030104445
-0.21622463346622933,0.5538604029593341
-0.2143877245154791,0.5188586254087135
-0.21622463346622933,0.4969825144395757
-0.21806154241697956,0.485606936735624
-0.21622463346622933,0.4969825144395757
-0.21181605198442882,0.46810604796031374
-0.21622463346622933,0.44010462591981725
-0.22320488747908018,0.41910355938944494
-0.21622463346622933,0.44010462591981725
-0.19014052636557618,0.4436048036748793
-0.16662809179597335,0.44010462591981725
-0.1611173649437227,0.4042278039304312
-0.16662809179597335,0.3832267374000588
-0.16736285537627346,0.36310071530845195
-0.16662809179597335,0.3832267374000588
-0.16919976432702366,0.4068529372467277
-0.16662809179597335,0.44010462591981725
-0.14568732975742082,0.4383545370422862
-0.11739893191586742,0.44010462591981725
-0.10527533284091596,0.4304791370933966
-0.11739893191586742,0.44010462591981725
-0.1287877674105188,0.43397931484845864
-0.11739893191586742,0.44010462591981725
-0.08764100691371383,0.4331042704096931
-0.06780239024561145,0.44010462591981725
-0.06670024487516131,0.4313541815321621
-0.06780239024561145,0.44010462591981725
-0.04869853715780914,0.4357294037259897
-0.018205848575355465,0.44010462591981725
-0.004245340549653784,0.42872904821586555
-0.018205848575355465,0.44010462591981725
-0.03253373839120719,0.4418547147973483
-0.018205848575355465,0.44010462591981725
0.016328039698748697,0.40247771505290014
0.03102331130475047,0.3832267374000588
0.011184694636648077,0.3718511596961071
-0.018205848575355465,0.3832267374000588
-0.02628824795865644,0.37535133745116916
-0.018205848575355465,0.3832267374000588
-0.01416464888370498,0.3841017818388243
-0.018205848575355465,0.3832267374000588
-0.019675375735955642,0.3455998265331417
-0.018205848575355465,0.3272238933190659
-0.018205848575355465,0.3184734489314107
-0.018205848575355465,0.3272238933190659
-0.0160015578344552,0.29659733796227283
-0.018205848575355465,0.2703460047993074
-0.02371657542760613,0.2519700715852316
-0.018205848575355465,0.2703460047993074
0.006041349574547457,0.27209609367683846
0.03102331130475047,0.2703460047993074
0.03837094710775135,0.22484369398350065
0.03102331130475047,0.1565902277597905
0.02771687519340007,0.05421002842422531
0.03102331130475047,-0.013168393360719316
0.03396236562595082,-0.05517052642146402
0.03102331130475047,-0.07004628188047776
0.029186402354000246,-0.10942328162492593
0.03102331130475047,-0.1269241704002362
0.03359498383580078,-0.13392452591036033
0.03102331130475047,-0.1269241704002362
0.028819020563850203,-0.15842577019579474
0.03102331130475047,-0.18292701448122917
0.035064510996400955,-0.19955285881777393
0.03102331130475047,-0.18292701448122917
0.024777820872199714,-0.18555214779752568
0.03102331130475047,-0.18292701448122917
0.05600527303495348,-0.1916774588688843
0.08061985297500644,-0.18292701448122917
0.08760010698785729,-0.19080241443011878
0.08061985297500644,-0.18292701448122917
0.076946035073506,-0.18555214779752568
0.08061985297500644,-0.18292701448122917
0.08319152550605675,-0.2153036587155532
0.08061985297500644,-0.2398049030009876
0.07878294402425623,-0.25818083621506344
0.08061985297500644,-0.2398049030009876
0.08282414371590671,-0.23455463636839452
0.08061985297500644,-0.2398049030009876
0.07841556223410619,-0.2774318138679047
0.08061985297500644,-0.29668279152074606
0.08392628908635685,-0.30718332478593224
0.08061985297500644,-0.29668279152074606
0.07510912612275579,-0.31768385805111843
0.08061985297500644,-0.3535606800405045
0.10449966933475932,-0.4025631686113733
0.13021639464526244,-0.40956352412149744
0.13940093939901355,-0.40956352412149744
0.13021639464526244,-0.40956352412149744
0.12323614063241159,-0.4463153905496491
0.13021639464526244,-0.4664414126412559
0.15225930205426508,-0.47606690146767655
0.17944555452536837,-0.4664414126412559
0.20663180699647163,-0.49181770136545583
0.22904209619562435,-0.5233193011610143
0.25255453076522716,-0.5644463897829936
0.27863863786588033,-0.5801971896807728
0.292231764101432,-0.6099487005988002
0.27863863786588033,-0.6370750782005312
0.24851333107357668,-0.6764520779449794
0.22904209619562435,-0.6930779222815242
0.20552966162602151,-0.7210793443220207
0.13021639464526244,-0.7499558108012826
-0.010490830982204536,-0.7954581216170894
-0.16662809179597335,-0.8068336993210411
-0.29741600908938914,-0.8085837881985721
-0.4142434183571032,-0.8068336993210411
-0.528866536883917,-0.8409604324328962
-0.611894821457827,-0.8637115878407995
-0.6427548918304308,-0.8750871655447512
-0.661491363128083,-0.8637115878407995
-0.7008012146741378,-0.8707119433509236
-0.710720523008189,-0.8637115878407995
-0.594995259110925,-0.8462106990654893
-0.31505033501659124,-0.8068336993210411
0.07253745359170548,-0.799833343810917
0.47629004096660416,-0.8068336993210411
0.8238332144485461,-0.8243345880963514
1.0699790138490757,-0.8068336993210411
1.1846021323758895,-0.7989582993721515
1.1688047153994376,-0.8068336993210411
1.0604270873051747,-0.8488358323817858
0.9215567706284579,-0.8637115878407995
0.7757061999388902,-0.8654616767183305
0.624712284187222,-0.8637115878407995
0.46122738757045234,-0.8995884098301856
0.32786779774598623,-0.9197144319217925
0.21765326070097296,-0.9275898318706821
0.13021639464526244,-0.9197144319217925
0.06004647272660397,-0.951216031717351
0.08061985297500644,-0.9765923204415509
0.19193653539046987,-0.9897179870230336
0.32786779774598623,-0.9765923204415509
0.4020789193562952,-0.9993434758494543
0.4270608810864982,-1.0334702089613095
0.44579735238415047,-1.0614716310018057
0.47629004096660416,-1.0334702089613095
0.5302951641186606,-1.00021852028822
0.674308825857478,-0.9765923204415509
0.9781335663115647,-0.9888429425842681
1.4656492018406735,-0.9765923204415509
2.1397947867660045,-0.9529661205948821
3.0486973355972142,-0.9197144319217925
4.238279572103058,-0.92408965411562
5.67070117189808,-0.9197144319217925
7.187620583427614,-0.9048386764627787
8.539952952969927,-0.8637115878407995
9.432690703034535,-0.8549611434531443
9.628137815394357,-0.8637115878407995
9.085514911342742,-0.8829625654936408
7.99586052175771,-0.8637115878407995
6.6611624781426,-0.8374602546778341
5.324260143786589,-0.8068336993210411
4.115574054192943,-0.8068336993210411
3.09829387726747,-0.8068336993210411
2.3131989917168254,-0.8155841437086963
1.762493688281909,-0.8068336993210411
1.3914380802303645,-0.8094588326373376
1.1195755555193316,-0.8068336993210411
0.8984117178490051,-0.8155841437086963
0.723905367527734,-0.8068336993210411
0.591647923073718,-0.8085837881985721
0.47629004096660416,-0.8068336993210411
0.35138023231558907,-0.8190843214637583
0.22904209619562435,-0.8068336993210411
0.11992970452106119,-0.8024584771272135
0.03102331130475047,-0.8068336993210411
-0.05714831833126016,-0.8453356546267238
-0.11739893191586742,-0.8637115878407995
-0.155239256301322,-0.8689618544733926
-0.16662809179597335,-0.8637115878407995
-0.19161005352617638,-0.8943381431975925
-0.21622463346622933,-0.9197144319217925
-0.24377826772748265,-0.9354652318195718
-0.26582117513648534,-0.9197144319217925
-0.29410957297803875,-0.9214645207993235
-0.31505033501659124,-0.9197144319217925
-0.320928443658992,-0.9284648763094476
-0.31505033501659124,-0.9197144319217925
-0.312846044275691,-0.9258397429931511
-0.31505033501659124,-0.9197144319217925
-0.31578509859689136,-0.92408965411562
-0.31505033501659124,-0.9197144319217925
-0.31578509859689136,-0.9302149651869787
-0.31505033501659124,-0.9197144319217925
-0.31247866248554096,-0.9170892986054959
-0.31505033501659124,-0.9197144319217925
-0.3187241529180917,-0.9582163872274752
-0.31505033501659124,-0.9765923204415509
-0.30733531742344034,-0.9827176315129095
-0.31505033501659124,-0.9765923204415509
-0.3271739340915427,-1.005468786920813
-0.31505033501659124,-1.0334702089613095
-0.2783121560015868,-1.0667218976343988
-0.26582117513648534,-1.0903480974810678
-0.2904357550765383,-1.131475186103047
-0.31505033501659124,-1.1463509415620607
-0.3102743717446407,-1.1507261637558883
-0.31505033501659124,-1.1463509415620607
-0.35987091341489663,-1.1796026302351503
-0.4142434183571032,-1.2032288300818192
-0.4263670174320547,-1.216354496663302
-0.4142434183571032,-1.2032288300818192
-0.42269319953055423,-1.2102291855919434
-0.46347257823720917,-1.2032288300818192
-0.4980064665113133,-1.1866029857452745
-0.5130691199074652,-1.1463509415620607
-0.5273970097233168,-1.1402256304907021
-0.5622982797875711,-1.1463509415620607
-0.5971995498518252,-1.1629767858986055
-0.611894821457827,-1.1463509415620607
-0.620711984421428,-1.1402256304907021
-0.661491363128083,-1.1463509415620607
-0.7232115038732905,-1.1848528968677434
-0.760317064678445,-1.2032288300818192
-0.7559084831966444,-1.2102291855919434
-0.760317064678445,-1.2032288300818192
-0.8058724066570504,-1.2303552076835502
-0.8591427662288068,-1.2601067186015777
-0.8708989835136083,-1.2819828295707156
-0.8591427662288068,-1.2601067186015777
-0.8705316017234582,-1.248731140897626
-0.9087393078990629,-1.2601067186015777
-0.9274757791967151,-1.3064840738561498
-0.9087393078990629,-1.316984607121336
-0.8753075649954088,-1.2977336294684947
-0.8591427662288068,-1.2601067186015777
-0.8595101480189569,-1.2601067186015777
-0.8591427662288068,-1.2601067186015777
-0.8415084403016048,-1.2653569852341708
-0.8099136063487009,-1.2601067186015777
-0.7768492452351969,-1.274107429621826
-0.760317064678445,-1.2601067186015777
-0.7584801557276947,-1.2338553854386123
-0.760317064678445,-1.2032288300818192
-0.7459891748625932,-1.2111042300307089
-0.710720523008189,-1.2032288300818192
-0.6596544541773328,-1.1804776746739158
-0.611894821457827,-1.1463509415620607
-0.5791978421344731,-1.1516012081946538
-0.5622982797875711,-1.1463509415620607
-0.5442965720702189,-1.126224919470454
-0.5130691199074652,-1.0903480974810678
-0.4642073418175092,-1.0920981863585988
-0.4142434183571032,-1.0903480974810678
-0.3782400029223989,-1.073722253144523
-0.36464687668684725,-1.0334702089613095
-0.3503189868709955,-1.0264698534511854
-0.31505033501659124,-1.0334702089613095
-0.26031044828423466,-1.046595875542792
-0.21622463346622933,-1.0334702089613095
-0.19124267173602633,-1.0317201200837784
-0.16662809179597335,-1.0334702089613095
-0.12144013160751792,-1.0623466754405713
-0.06780239024561145,-1.0903480974810678
-0.017471084995055376,-1.1288500527867504
0.03102331130475047,-1.1463509415620607
0.08686534340755721,-1.1743523636025572
0.13021639464526244,-1.2032288300818192
0.14307475730051397,-1.248731140897626
0.13021639464526244,-1.2601067186015777
0.1225013770521115,-1.2601067186015777
0.13021639464526244,-1.2601067186015777
0.13976832118916357,-1.2959835405909637
0.13021639464526244,-1.316984607121336
0.10633657828550955,-1.3239849626314601
0.08061985297500644,-1.316984607121336
0.05894432735615383,-1.345861073600598
0.03102331130475047,-1.3738624956410945
0.0020001498828969696,-1.3887382511001083
-0.018205848575355465,-1.3738624956410945
-0.03290112018135724,-1.3904883399776393
-0.06780239024561145,-1.4298653397220875
-0.12290965876811809,-1.4823680060480184
-0.16662809179597335,-1.486743228241846
-0.17324096401867417,-1.4823680060480184
-0.16662809179597335,-1.486743228241846
-0.18058859982167505,-1.5278703168638252
-0.21622463346622933,-1.5436211167616043
-0.24634994025853296,-1.5444961612003698
-0.26582117513648534,-1.5436211167616043
-0.28676193717503784,-1.5829981165060525
-0.31505033501659124,-1.6004990052813628
-0.32790869767184283,-1.585623249822349
-0.31505033501659124,-1.5436211167616043
-0.2981507726696892,-1.5418710278840733
-0.31505033501659124,-1.5436211167616043
-0.36574902205729737,-1.5339956279351836
-0.4142434183571032,-1.486743228241846
-0.42599963564190463,-1.459616850640115
-0.4142434183571032,-1.4298653397220875
-0.4068957825541023,-1.3974886954877634
-0.4142434183571032,-1.316984607121336
-0.4186519998389037,-1.2347304298773778
-0.4142434183571032,-1.1463509415620607
-0.4076305461344024,-1.0780974753383505
-0.4142434183571032,-0.9765923204415509
-0.43371465323505554,-0.8540860990143788
-0.46347257823720917,-0.6930779222815242
-0.4928631214492127,-0.5504456787627453
-0.5130691199074652,-0.40956352412149744
-0.5167429378089655,-0.28530721381679436
-0.5130691199074652,-0.1269241704002362
-0.5097626837961148,0.03758418408768053
-0.5130691199074652,0.21346811627954898
-0.5149060288582153,0.35522531535956237
-0.5130691199074652,0.4969825144395757
-0.5093953020059647,0.628239180254403
-0.5130691199074652,0.7804969125996024
-0.5178450831794157,0.9030031340267745
-0.5130691199074652,1.0071334222398707
-0.4895566853378623,1.0780120217798774
-0.46347257823720917,1.1768920433603807
-0.45281850632285786,1.2836474648897733
-0.46347257823720917,1.403528553000649
-0.4730245047811103,1.4866577746833727
-0.46347257823720917,1.5741622185599242
-0.4359189439759558,1.6511661291712896
-0.4142434183571032,1.743920839680434
-0.40836530971470253,1.801673772638958
-0.4142434183571032,1.8568015722811855
-0.4153455637275533,1.8996787497806957
-0.4142434183571032,1.9705573493207023
-0.41277389119650304,2.0274352378404608
-0.4142434183571032,2.084313126360219
-0.4131412729866531,2.1088143706456535
-0.4142434183571032,2.140315970441212
-0.41608032730785344,2.142941103757509
-0.4142434183571032,2.140315970441212
-0.395874328849601,2.1184398594720744
-0.36464687668684725,2.140315970441212
-0.33231727915364334,2.1709425257980053
-0.31505033501659124,2.1971938589609707
-0.3113765171150908,2.1648172147266465
-0.31505033501659124,2.140315970441212
-0.3161524803870414,2.1263152594209638
-0.31505033501659124,2.140315970441212
-0.313213426065841,2.1149396817170123
-0.31505033501659124,2.084313126360219
-0.31578509859689136,2.041435948860709
-0.31505033501659124,2.0274352378404608
-0.313213426065841,1.9933085047286057
-0.31505033501659124,1.9705573493207023
-0.3161524803870414,1.9338054828925508
-0.31505033501659124,1.913679460800944
-0.31174389890524085,1.859426705597482
-0.31505033501659124,1.8007987282001925
-0.3198262982885418,1.7246698620275926
-0.31505033501659124,1.6870429511606757
-0.29190528223713846,1.652041173610055
-0.26582117513648534,1.6301650626409172
-0.25516710322213404,1.5724121296823932
-0.26582117513648534,1.5172843300401657
-0.2750057198902364,1.4472807749389245
-0.26582117513648534,1.403528553000649
-0.23863492266538205,1.3422754422870629
-0.21622463346622933,1.2906478203998974
-0.2099791430336786,1.2215193097374217
-0.21622463346622933,1.1768920433603807
-0.2191636877874297,1.1173890215243256
-0.21622463346622933,1.0640113107596292
-0.21291819735487894,0.9896325334645605
-0.21622463346622933,0.9502555337201123
-0.21879630599727964,0.9152537561694917
-0.21622463346622933,0.8933776452003538
-0.21144867019427876,0.8329995789255333
-0.21622463346622933,0.7804969125996024
-0.22283750568893013,0.7314944240287337
-0.21622463346622933,0.723619024079844
-0.19050790815572624,0.6973676909168786
-0.16662809179597335,0.6667411355600855
-0.16001521957327255,0.6186136914279823
-0.16662809179597335,0.6098632470403271
-0.16956714611717372,0.6063630692852651
-0.16662809179597335,0.6098632470403271
-0.1644238010550731,0.5748614694897065
-0.16662809179597335,0.5538604029593341
-0.16736285537627346,0.5389846475003204
-0.16662809179597335,0.5538604029593341
-0.16589332821567326,0.5328593364289618
-0.16662809179597335,0.4969825144395757
-0.16626071000582332,0.44535489255241034
-0.16662809179597335,0.44010462591981725
-0.1669954735861234,0.44097967035858276
-0.16662809179597335,0.44010462591981725
-0.16515856463537318,0.3998525817366036
-0.16662809179597335,0.3832267374000588
-0.16846500074672358,0.3771014263287002
-0.16662809179597335,0.3832267374000588
-0.16295427389447292,0.3499750487269693
-0.16662809179597335,0.3272238933190659
-0.17287358222852411,0.3132231822988176
-0.16662809179597335,0.3272238933190659
-0.1420135118559204,0.30447273791116247
-0.11739893191586742,0.2703460047993074
-0.1096839143227165,0.22309360510596962
-0.11739893191586742,0.21346811627954898
-0.12107274981736788,0.20471767189189383
-0.11739893191586742,0.21346811627954898
-0.11335773222421694,0.20646776076942486
-0.11739893191586742,0.21346811627954898
-0.12070536802721782,0.20646776076942486
-0.11739893191586742,0.21346811627954898
-0.11225558685376681,0.20646776076942486
-0.11739893191586742,0.21346811627954898
-0.12474656771886831,0.20646776076942486
-0.11739893191586742,0.21346811627954898
-0.09058006123491419,0.20646776076942486
-0.06780239024561145,0.21346811627954898
-0.06302642697366087,0.20646776076942486
