ECG,PPG
0.023286448260460585,1.5208218549457435
0.4451429526984211,2.081382077282978
0.10383322589353271,1.4901587316725955
0.00010751944518803186,1.1873603893502602
0.26376783471891335,1.4901587316725955
0.32693041574053106,1.6597641322771948
0.10383322589353271,1.4594956083994477
-0.008584578860539175,1.3215115536702822
0.10383322589353271,1.427874262524014
0.1698931730170595,1.4882422864680238
0.10383322589353271,1.3972111392508662
0.03255801978656961,1.331093779693141
0.023286448260460585,1.3655897933754324
0.0737006184336784,1.3790049098074344
0.26376783471891335,1.3349266701022844
0.5436534001633294,1.2994724338177073
0.6641838300027467,1.3033053242268506
0.4752755601582754,1.2994724338177073
0.18380053030622304,1.2726422009537028
0.037773278770005934,1.2352715194645538
0.023286448260460585,1.210357731805121
-0.03292245411657536,1.1921515023616895
-0.13664816056492005,1.1796946085319733
-0.1893802236196651,1.1461568174519678
-0.13664816056492005,1.1174101393833917
-0.05899874903375698,1.0944127969285307
0.023286448260460585,1.085788793507958
0.1281711011495689,1.0608750058485252
0.26376783471891335,1.0235043243593762
0.3454735587927491,0.9487629613810783
0.34373513913160364,0.8376091395159173
0.2881057099749495,0.6881264135593214
0.26376783471891335,0.5578081396484429
0.2689830937023497,0.46198587941985575
0.26376783471891335,0.4025760780781318
0.18785684284889573,0.3383751637249784
0.10383322589353271,0.2780071397809685
0.11368427064002355,0.22243022884838798
0.26376783471891335,0.18505954735923902
0.3866161574398579,0.13714841724494545
0.34373513913160364,0.0921119549375095
0.2168305038679864,0.04803371523235943
0.26376783471891335,0.029827485788927875
0.476434506599039,0.014495924152353935
0.5842165255900564,-0.001793860086505874
0.432974015070403,-0.035331651166511366
0.26376783471891335,-0.0640783292350875
0.29332096895838583,-0.08707567168994841
0.42428191676467575,-0.09474145250823537
0.4416661133761302,-0.11007301414480931
0.42428191676467575,-0.12540457578138325
0.5303255160945477,-0.1474436956339583
0.7447306076358189,-0.157025921656817
0.9052446896815812,-0.17139926069110506
0.9846325208738897,-0.18768904492996488
0.9724635832458717,-0.21164460998711165
0.8246979120485092,-0.21931039080539863
0.5853754720308201,-0.2202686134076845
0.504249221177366,-0.21931039080539863
0.6624454103416013,-0.23655839764654432
0.8246979120485092,-0.2499735140785465
0.7134390537352009,-0.2566810722945476
0.42428191676467575,-0.2499735140785465
0.2121947181049319,-0.2595557401014052
0.18380053030622304,-0.28159485995398026
0.22378418251256818,-0.30842509281798464
0.26376783471891335,-0.3122579832271281
0.2799930848896041,-0.30938331542027053
0.26376783471891335,-0.3122579832271281
0.18553894996736847,-0.3333388804774173
0.10383322589353271,-0.342921106500276
0.05573694860184216,-0.34387932910256186
0.023286448260460585,-0.342921106500276
-0.07638294564521139,-0.36208555854599345
-0.21719493819799215,-0.37454245237570977
-0.3157053856629005,-0.3764588975802815
-0.29716224261068247,-0.37454245237570977
-0.23631755447059202,-0.39179045921685546
-0.21719493819799215,-0.4052055756488576
-0.24558912599670105,-0.409996688660287
-0.21719493819799215,-0.4052055756488576
-0.14534025887064725,-0.4205371372854316
-0.13664816056492005,-0.43682692152429137
-0.2397943937928829,-0.4435344797402925
-0.29716224261068247,-0.43682692152429137
-0.2102412595534104,-0.44736737014943595
-0.056680856152229724,-0.4674900447974393
0.01343540351396975,-0.4924038324568719
0.023286448260460585,-0.499111390672873
-0.0016309002159574097,-0.5010278358774447
-0.056680856152229724,-0.499111390672873
-0.1476581517521745,-0.5106100619003034
-0.13664816056492005,-0.5297745139460209
-0.03524034699810261,-0.5546883016054536
0.023286448260460585,-0.5613958598214547
-0.061316641915284235,-0.5604376372191687
-0.13664816056492005,-0.5613958598214547
-0.055521909711466096,-0.5786438666626004
0.10383322589353271,-0.5920589830946025
0.09050534182475099,-0.5968500961060319
-0.13664816056492005,-0.5920589830946025
-0.33772536803740943,-0.603557654322033
-0.29716224261068247,-0.6227221063677504
-0.17141655378782886,-0.6466776714248972
-0.13664816056492005,-0.6543434522431841
0.12237636894575075,-0.6581763426523276
1.1451466029196522,-0.6543434522431841
2.7694100396498764,-0.6543434522431841
4.189698902805702,-0.6543434522431841
5.063544519141478,-0.6668003460729005
5.871909661574108,-0.685006575516332
6.669844286039866,-0.7089621405734788
6.513386516536776,-0.7166279213917658
4.730347417421934,-0.7175861439940516
2.186459979945772,-0.7166279213917658
0.29853622794182216,-0.7310012604260538
-0.5376436290691352,-0.7472910446649137
-0.9270496331657141,-0.7568732706877723
-1.2585083152241117,-0.7472910446649137
-1.4584265762558375,-0.7415417090511984
-1.4989897016825644,-0.7472910446649137
-1.5662085952468547,-0.7683719419152029
-1.7394710881410171,-0.7789123905403474
-2.0587608325713966,-0.7798706131426333
-2.5403030787086838,-0.7789123905403474
-2.963318529587408,-0.7942439521769213
-2.860751769579827,-0.8095755138134952
-2.177552842749668,-0.8172412946317823
-1.4184429240494922,-0.8095755138134952
-1.0168679823248952,-0.8076590686089236
-0.7775455423072062,-0.8095755138134952
-0.4437689673672814,-0.8162830720294963
-0.13664816056492005,-0.8095755138134952
-0.14128394632797456,-0.8057426234043518
-0.29716224261068247,-0.8095755138134952
-0.3243974839686277,-0.8287399658592127
-0.21719493819799215,-0.8402386370866431
-0.22588703650371936,-0.8450297500980725
-0.3771295470233728,-0.8402386370866431
-0.49302419109973555,-0.8431133048935008
-0.4570968514360631,-0.8402386370866431
-0.34236115380046395,-0.8392804144843573
-0.21719493819799215,-0.8402386370866431
-0.13201237480186553,-0.8574866439277888
-0.13664816056492005,-0.8718599829620769
-0.2734038405750281,-0.878567541178078
-0.4570968514360631,-0.8718599829620769
-0.5457562541544806,-0.8718599829620769
-0.4570968514360631,-0.8718599829620769
-0.2763012066769372,-0.8747346507689345
-0.13664816056492005,-0.8718599829620769
-0.11231028530888386,-0.8737764281666487
-0.13664816056492005,-0.8718599829620769
-0.15055551785408358,-0.8728182055643627
-0.13664816056492005,-0.8718599829620769
-0.13780710700568366,-0.8756928733712204
-0.13664816056492005,-0.8718599829620769
-0.13375079446301097,-0.8699435377575052
-0.13664816056492005,-0.8718599829620769
-0.1801086520935561,-0.8891079898032226
-0.21719493819799215,-0.9025231062352248
-0.20270810768844683,-0.9092306644512259
-0.13664816056492005,-0.9025231062352248
-0.12737658903881102,-0.9025231062352248
-0.21719493819799215,-0.9025231062352248
-0.32729485007053677,-0.9063559966443683
-0.29716224261068247,-0.9025231062352248
-0.13375079446301097,-0.9044395514397965
0.023286448260460585,-0.9025231062352248
0.07196219877253295,-0.9053977740420824
0.10383322589353271,-0.9025231062352248
0.18380053030622304,-0.9053977740420824
0.26376783471891335,-0.9025231062352248
0.2660857276004406,-0.9044395514397965
0.26376783471891335,-0.9025231062352248
0.3037514869252585,-0.9063559966443683
0.34373513913160364,-0.9025231062352248
0.34837092489465815,-0.9025231062352248
0.42428191676467575,-0.9025231062352248
0.5772628469454746,-0.90827244184894
0.6641838300027467,-0.9025231062352248
0.5911702042346382,-0.8891079898032226
0.504249221177366,-0.8718599829620769
0.4868650245659117,-0.8689853151552193
0.42428191676467575,-0.8718599829620769
0.21045629844378647,-0.8766510959735062
0.023286448260460585,-0.8718599829620769
0.02096855537893333,-0.870901760359791
0.10383322589353271,-0.8718599829620769
0.04414748419420588,-0.8766510959735062
-0.13664816056492005,-0.8718599829620769
-0.2774601531177008,-0.8689853151552193
-0.29716224261068247,-0.8718599829620769
-0.2867317246438098,-0.8891079898032226
-0.29716224261068247,-0.9025231062352248
-0.33366905549473674,-0.90827244184894
-0.3771295470233728,-0.9025231062352248
-0.4373947619430814,-0.9025231062352248
-0.4570968514360631,-0.9025231062352248
-0.40146742227940896,-0.9063559966443683
-0.29716224261068247,-0.9025231062352248
-0.27919857277884624,-0.9034813288375106
-0.3771295470233728,-0.9025231062352248
-0.4530405388933904,-0.9053977740420824
-0.29716224261068247,-0.9025231062352248
0.034875912668096865,-0.9044395514397965
0.26376783471891335,-0.9025231062352248
0.165257387254005,-0.9053977740420824
-0.13664816056492005,-0.9025231062352248
-0.38813953821062724,-0.9044395514397965
-0.4570968514360631,-0.9025231062352248
-0.426384770755827,-0.9044395514397965
-0.3771295470233728,-0.9025231062352248
-0.35916587719153653,-0.9044395514397965
-0.3771295470233728,-0.9025231062352248
-0.43797423516346323,-0.9044395514397965
-0.4570968514360631,-0.9025231062352248
-0.35337114498771843,-0.9053977740420824
-0.13664816056492005,-0.9025231062352248
0.005902251649006171,-0.9044395514397965
-0.056680856152229724,-0.9025231062352248
-0.2392149205725011,-0.9053977740420824
-0.29716224261068247,-0.9025231062352248
-0.20039021480691957,-0.9053977740420824
-0.13664816056492005,-0.9025231062352248
-0.22472809006295574,-0.9053977740420824
-0.29716224261068247,-0.9025231062352248
-0.23226124192791933,-0.9053977740420824
-0.13664816056492005,-0.9025231062352248
-0.16678076802477435,-0.9063559966443683
-0.21719493819799215,-0.9025231062352248
-0.15982708938019258,-0.8958155480192237
-0.056680856152229724,-0.8718599829620769
-0.06305506157642968,-0.8440715274957866
-0.13664816056492005,-0.8095755138134952
-0.1853239110769924,-0.7827452809494909
-0.21719493819799215,-0.7472910446649137
-0.28789067108457345,-0.7089621405734788
-0.29716224261068247,-0.6543434522431841
-0.167939714465538,-0.5987665413106036
0.023286448260460585,-0.5297745139460209
0.11600216352155081,-0.45790781877458053
0.10383322589353271,-0.37454245237570977
0.03429643944771505,-0.29788464419284005
-0.056680856152229724,-0.21931039080539863
-0.14707867853179268,-0.13881969221338544
-0.13664816056492005,-0.03245698335965375
-0.03813771310001168,0.07773861590322144
0.023286448260460585,0.18505954735923902
-0.04914770428726615,0.27225780416725326
-0.13664816056492005,0.37095473220269803
-0.12737658903881102,0.4782756636587156
-0.056680856152229724,0.5884712629215908
-0.06305506157642968,0.6718366293204615
-0.13664816056492005,0.7446615470941877
-0.18184707175470152,0.8050295710381976
-0.13664816056492005,0.8682722627890651
-0.07522399920444776,0.921932728517074
-0.056680856152229724,0.9928412010862284
-0.09492608869742944,1.0704572318713839
-0.13664816056492005,1.1480732626565395
-0.16214498226171983,1.1950261701685472
-0.13664816056492005,1.2419790776805548
-0.050886123948411584,1.2946813208062777
0.10383322589353271,1.3655897933754324
0.23363522725905903,1.4173338138988694
0.26376783471891335,1.4594956083994477
0.2035026197992047,1.4863258412634521
0.18380053030622304,1.5208218549457435
0.23363522725905903,1.5486103104120337
0.26376783471891335,1.583106324094325
0.16873422657629586,1.6118530021629012
0.023286448260460585,1.6453907932429066
-0.05957822225413879,1.6616805774817665
-0.056680856152229724,1.6770121391183404
-0.07406505276368414,1.6837196973343416
-0.13664816056492005,1.7076752623914884
-0.1847444378566106,1.7239650466303482
-0.13664816056492005,1.7383383856646362
-0.04393244530382982,1.7345054952554928
0.023286448260460585,1.7383383856646362
0.047624323516496765,1.7383383856646362
0.10383322589353271,1.7383383856646362
0.17626737844125945,1.718215711016633
0.18380053030622304,1.7076752623914884
0.06848535945024206,1.701925926777773
-0.056680856152229724,1.7076752623914884
-0.07522399920444776,1.6923437007549145
0.023286448260460585,1.6770121391183404
0.10267427945276908,1.6540147966634795
0.10383322589353271,1.6453907932429066
0.07254167199291477,1.6262263411971893
0.10383322589353271,1.6147276699697588
0.16351896759285953,1.5955632179240413
0.18380053030622304,1.583106324094325
0.13860161911644153,1.5524432008211773
0.10383322589353271,1.5208218549457435
0.08007482385787834,1.4815347282520228
0.023286448260460585,1.4594956083994477
-0.06537295445795693,1.4374564885468726
-0.056680856152229724,1.427874262524014
0.07080325233176932,1.4020022522622955
0.18380053030622304,1.3655897933754324
0.1368631994552961,1.3109711050451376
0.023286448260460585,1.2726422009537028
0.0006869926655698457,1.2381461872714115
0.10383322589353271,1.210357731805121
0.18959526251004116,1.1614883790885417
0.18380053030622304,1.1174101393833917
0.10093585979162364,1.078123012689671
0.023286448260460585,1.05512567023481
-0.03176350767581173,1.0139220983365176
-0.056680856152229724,0.9621780778130805
-0.0891313564936113,0.8931860504484979
-0.13664816056492005,0.8376091395159173
-0.202128634468065,0.7839486737879084
-0.21719493819799215,0.7446615470941877
-0.14302236598912,0.6957921943776083
0.023286448260460585,0.6507557320701723
0.18148263742469578,0.5990117115467354
0.26376783471891335,0.5578081396484429
0.2840493974322768,0.5098970095341493
0.34373513913160364,0.4648605472267134
0.4219640238831485,0.41024185889641873
0.42428191676467575,0.37095473220269803
0.31997673709594926,0.33645871852040665
0.26376783471891335,0.3096284856564023
0.3466325052335127,0.2626755781443946
0.504249221177366,0.21572267063238687
0.6079749276257108,0.1716444309272368
0.6641838300027467,0.15343820148380527
0.6891011784791647,0.13906486244951718
0.6641838300027467,0.12277507821065738
0.5888523113531109,0.08827906452836602
0.5842165255900564,0.060490609062075755
0.6653427764435104,0.038451489209500714
0.6641838300027467,0.029827485788927875
0.40284140761054865,0.012579478947782193
0.023286448260460585,-0.001793860086505874
-0.15692972327828353,-0.020958312132223298
0.023286448260460585,-0.03245698335965375
0.3304072550628219,-0.050663212803085306
0.42428191676467575,-0.0640783292350875
0.17105211945782312,-0.08132633607623319
-0.21719493819799215,-0.09474145250823537
-0.48433209279400835,-0.11486412715623867
-0.5376436290691352,-0.12540457578138325
-0.494762610760881,-0.14169436002024308
-0.4570968514360631,-0.157025921656817
-0.46231211041949943,-0.18098148671396377
-0.4570968514360631,-0.18768904492996488
-0.4090005741443726,-0.18864726753225075
-0.29716224261068247,-0.18768904492996488
-0.2061849470107377,-0.20589527437339644
-0.21719493819799215,-0.21931039080539863
-0.32903326973168223,-0.22410150381682797
-0.3771295470233728,-0.21931039080539863
-0.26355279582853725,-0.23176728463511495
-0.056680856152229724,-0.2499735140785465
0.05979326114451486,-0.2720126339311216
0.023286448260460585,-0.28159485995398026
-0.13201237480186553,-0.2969264215905542
-0.29716224261068247,-0.3122579832271281
-0.38408322566795455,-0.3333388804774173
-0.29716224261068247,-0.342921106500276
-0.118105017512702,-0.35825266813684997
0.023286448260460585,-0.37454245237570977
0.04009117165153319,-0.39753979483057067
0.023286448260460585,-0.4052055756488576
-0.04219402564268438,-0.40808024345571525
-0.21719493819799215,-0.4052055756488576
-0.3979905829571181,-0.41957891468314573
-0.29716224261068247,-0.43682692152429137
0.044726957414587695,-0.4559913735700088
0.18380053030622304,-0.4674900447974393
-0.1685191876859198,-0.48473805163858497
-0.6975782378945159,-0.499111390672873
-0.9455927762179321,-0.5163593975140187
-0.7775455423072062,-0.5297745139460209
-0.25370175108204646,-0.5489389659917383
0.6641838300027467,-0.5613958598214547
1.8636933961931015,-0.5767274214580286
2.98787144373382,-0.5920589830946025
3.85997864040845,-0.6140981029471776
4.750628980135298,-0.6227221063677504
5.757173963938508,-0.6246385515723222
6.3528724344910135,-0.6227221063677504
5.866694402590672,-0.6380536680043243
4.349633511631083,-0.6543434522431841
2.480832375899733,-0.6715914590843298
0.9046652164611995,-0.685006575516332
-0.1899596968400469,-0.707045695368907
-0.8580923199402782,-0.7166279213917658
-1.2330114935273118,-0.7185443665963375
-1.4184429240494922,-0.7166279213917658
-1.5082612732086733,-0.7310012604260538
-1.5789570060952547,-0.7472910446649137
-1.8078489281460712,-0.7645390515060594
-2.299821692250231,-0.7789123905403474
-2.8781359661912815,-0.8009515103929224
-3.1012331560382798,-0.8095755138134952
-2.754708170249955,-0.8095755138134952
-2.0599197790121604,-0.8095755138134952
-1.4358271206609468,-0.8287399658592127
-1.018026928765659,-0.8402386370866431
-0.7271313721339884,-0.8421550822912149
-0.4570968514360631,-0.8402386370866431
-0.25833753684510097,-0.8584448665300747
-0.13664816056492005,-0.8718599829620769
-0.10883344598659297,-0.8737764281666487
-0.13664816056492005,-0.8718599829620769
-0.21777441141837398,-0.8891079898032226
-0.29716224261068247,-0.9025231062352248
-0.376550073802991,-0.9053977740420824
-0.4570968514360631,-0.9025231062352248
-0.4895473517774447,-0.9188128904740845
-0.3771295470233728,-0.9341444521106586
-0.19633390226424685,-0.9389355651220879
-0.13664816056492005,-0.9341444521106586
-0.2438507063355556,-0.9466013459403748
-0.29716224261068247,-0.9648075753838065
-0.15924761615981078,-0.975348024008951
0.023286448260460585,-0.9648075753838065
0.042409064533060446,-0.9590582397700912
-0.056680856152229724,-0.9648075753838065
-0.12795606225919284,-0.9858884726340956
-0.13664816056492005,-0.9964289212592402
-0.15113499107446537,-0.9993035890660977
-0.13664816056492005,-0.9964289212592402
-0.08507504395093861,-0.9993035890660977
-0.056680856152229724,-0.9964289212592402
-0.10477713344392027,-0.9935542534523826
-0.13664816056492005,-0.9964289212592402
-0.14186341954835635,-1.013676928100386
-0.21719493819799215,-1.0270920445323881
-0.3892984846513909,-1.0318831575438174
-0.4570968514360631,-1.0270920445323881
-0.31686433210366416,-1.0290084897369598
-0.13664816056492005,-1.0270920445323881
-0.17199602700821068,-1.0261338219301022
-0.3771295470233728,-1.0270920445323881
-0.5202594324576808,-1.0443400513735337
-0.4570968514360631,-1.057755167805536
-0.2931059300680098,-1.0635045034192512
-0.13664816056492005,-1.057755167805536
0.005322778428624357,-1.0596716130101076
0.18380053030622304,-1.057755167805536
0.3037514869252585,-1.057755167805536
0.26376783471891335,-1.057755167805536
0.12469426182727801,-1.0750031746466815
0.10383322589353271,-1.0893765136809697
0.21567155742722277,-1.0960840718969707
0.26376783471891335,-1.0893765136809697
0.13164794047185976,-1.0884182910786837
0.023286448260460585,-1.0893765136809697
0.10788953843620541,-1.0922511814878273
0.26376783471891335,-1.0893765136809697
0.24870153098898617,-1.0903347362832556
0.10383322589353271,-1.0893765136809697
0.030819600125424167,-1.0912929588855413
0.10383322589353271,-1.0893765136809697
0.16062160149095048,-1.0903347362832556
0.10383322589353271,-1.0893765136809697
-0.029445614794284473,-1.0912929588855413
-0.13664816056492005,-1.0893765136809697
-0.22067177752028305,-1.0912929588855413
-0.29716224261068247,-1.0893765136809697
-0.3498943056654275,-1.0912929588855413
-0.29716224261068247,-1.0893765136809697
-0.14302236598912,-1.0912929588855413
0.023286448260460585,-1.0893765136809697
0.07659798453558746,-1.0912929588855413
0.023286448260460585,-1.0893765136809697
-0.06942926700062962,-1.0912929588855413
-0.13664816056492005,-1.0893765136809697
-0.2102412595534104,-1.0912929588855413
-0.29716224261068247,-1.0893765136809697
-0.3771295470233728,-1.0912929588855413
-0.3771295470233728,-1.0893765136809697
-0.28789067108457345,-1.0912929588855413
-0.13664816056492005,-1.0893765136809697
0.0024254123267152873,-1.0912929588855413
0.10383322589353271,-1.0893765136809697
0.13860161911644153,-1.0912929588855413
0.10383322589353271,-1.0893765136809697
-0.025968775471993593,-1.0912929588855413
-0.21719493819799215,-1.0893765136809697
-0.40436478838131806,-1.0903347362832556
-0.4570968514360631,-1.0893765136809697
-0.2983211890514461,-1.0912929588855413
0.023286448260460585,-1.0893765136809697
0.2539167899724225,-1.0903347362832556
0.18380053030622304,-1.0893765136809697
-0.13722763378530184,-1.0922511814878273
-0.3771295470233728,-1.0893765136809697
-0.33424852871511856,-1.0893765136809697
-0.13664816056492005,-1.0893765136809697
-0.10303871378277484,-1.094167626692399
-0.29716224261068247,-1.0893765136809697
-0.4965010304220264,-1.085543623271826
-0.4570968514360631,-1.0893765136809697
-0.2560196439635737,-1.1104574109312588
-0.13664816056492005,-1.1200396369541175
-0.22994334904639208,-1.1123738561358305
-0.3771295470233728,-1.0893765136809697
-0.4032058419405544,-1.0836271780672544
-0.29716224261068247,-1.0893765136809697
-0.19981074158653775,-1.0980005171015426
-0.13664816056492005,-1.0893765136809697
-0.04914770428726615,-1.0759613972489674
0.10383322589353271,-1.057755167805536
0.23073786115714995,-1.0472147191803913
0.26376783471891335,-1.0270920445323881
0.19423104827309567,-1.0031364794752413
0.10383322589353271,-0.9648075753838065
0.042409064533060446,-0.9245622260877998
0.023286448260460585,-0.8718599829620769
-0.03524034699810261,-0.8143666268249247
-0.13664816056492005,-0.7472910446649137
-0.14128394632797456,-0.6869230207209037
0.10383322589353271,-0.6227221063677504
0.408056666593985,-0.5566047468100253
0.42428191676467575,-0.4674900447974393
0.10499217233429634,-0.3755006749779956
-0.13664816056492005,-0.28159485995398026
-0.021912462929320895,-0.20589527437339644
0.26376783471891335,-0.12540457578138325
0.3605398625226762,-0.04108098678022659
0.26376783471891335,0.060490609062075755
0.1785852713227867,0.1457724206655183
0.18380053030622304,0.21572267063238687
0.15714476216865958,0.2684249137581098
0.10383322589353271,0.3402916089295501
0.13512477979415066,0.4179076397147057
0.26376783471891335,0.4955236704998613
0.2620294150577679,0.5520588040347276
0.023286448260460585,0.6200926087970245
-0.2282049293852466,0.6871681909570355
-0.13664816056492005,0.7446615470941877
0.22726102183485905,0.7734082251627639
0.42428191676467575,0.8376091395159173
0.20176420013805926,0.9775096394496545
-0.13664816056492005,1.210357731805121
-0.24211228667441015,1.4671613892177346
-0.13664816056492005,1.7076752623914884
-0.052624543609557026,1.8868628890189463
0.023286448260460585,2.0181393855321104
0.1623600211520959,2.1005465293286956
0.26376783471891335,2.1733714471024217
0.17337001233935037,2.236614138853289
0.023286448260460585,2.297940385399585
0.0012664658859516595,2.3324363990818764
0.10383322589353271,2.3602248545481666
0.18901578928965934,2.3745981935824547
0.26376783471891335,2.3908879778213143
0.3408377730296946,2.388971532616743
0.34373513913160364,2.3908879778213143
0.19249262861195024,2.387055087412171
0.023286448260460585,2.3908879778213143
-0.02886614157390266,2.385138642207599
0.023286448260460585,2.3908879778213143
0.06327010046680574,2.3908879778213143
0.10383322589353271,2.3908879778213143
0.17742632488202306,2.371723525775597
0.26376783471891335,2.3602248545481666
0.27651624556731325,2.343935070309307
0.26376783471891335,2.3295617312750188
0.3275098889609129,2.2921910497858695
0.504249221177366,2.267277262126437
0.6340512225428924,2.247154587478434
0.5842165255900564,2.2356559162510035
0.39009299676214876,2.202118125170998
0.26376783471891335,2.1733714471024217
0.31418200489213116,2.140791878624702
0.504249221177366,2.112045200556126
0.7337206164485643,2.059342957430403
0.9846325208738897,2.0181393855321104
1.1689050049553065,1.9817269266452475
1.1451466029196522,1.955854916383529
0.8716352428994361,1.9079437862692354
0.5842165255900564,1.8629073239617995
0.5204744713480569,1.81403797124522
0.6641838300027467,1.76995973154007
0.750525339839637,1.702884149380059
0.6641838300027467,1.6453907932429066
0.5407560340614204,1.5926885501171837
0.5842165255900564,1.5524432008211773
0.7319821967874189,1.4901587316725955
0.7447306076358189,1.427874262524014
0.45325557778376646,1.3607986803640029
0.023286448260460585,1.3033053242268506
-0.2316817687075375,1.2343132968622679
-0.13664816056492005,1.1796946085319733
0.12063794928460532,1.1279505880085363
0.26376783471891335,1.085788793507958
0.20292314657882288,1.0225461017570905
0.10383322589353271,0.9621780778130805
0.05573694860184216,0.9046847216759283
0.023286448260460585,0.8682722627890651
-0.023071409370084523,0.8222775778793433
0.023286448260460585,0.7753246703673357
0.12643268148842346,0.7197477594347551
0.10383322589353271,0.6823770779456061
-0.12042291039422925,0.6469228416610289
-0.29716224261068247,0.6200926087970245
-0.25544017074319186,0.5836801499101614
-0.13664816056492005,0.5578081396484429
-0.17837023243241062,0.5252285711707233
-0.29716224261068247,0.4955236704998613
-0.2896290907457189,0.45623654380614054
-0.13664816056492005,0.43323920135127963
-0.01669720394588457,0.41599119451013394
0.023286448260460585,0.4025760780781318
0.021548028599315143,0.3690382869981263
0.023286448260460585,0.3402916089295501
0.009379090971297053,0.3163360438724034
0.023286448260460585,0.3096284856564023
-0.00626668597901192,0.2923804788152566
-0.13664816056492005,0.2780071397809685
-0.311069599899846,0.2588426877352511
-0.29716224261068247,0.24734401650782062
-0.07870083852673865,0.22722134185981735
0.10383322589353271,0.21572267063238687
0.04009117165153319,0.19943288639352708
-0.13664816056492005,0.18505954735923902
-0.2183538846387558,0.16110398230209222
-0.21719493819799215,0.15343820148380527
-0.3151259124425187,0.15247997888151937
-0.4570968514360631,0.15343820148380527
-0.3151259124425187,0.13427374943808784
0.34373513913160364,0.12277507821065738
1.31377331005076,0.11798396519922802
2.267006757578844,0.12277507821065738
3.234727035616473,0.1084017391763693
4.510147593676845,0.0921119549375095
5.893350170728235,0.07294750289179208
6.593353820949466,0.060490609062075755
6.023152172093761,0.03940971181178659
4.510147593676845,0.029827485788927875
2.795486334567058,0.02599459537978439
1.3050812117450328,0.029827485788927875
0.08471060962093285,0.014495924152353935
-0.7775455423072062,-0.001793860086505874
-1.248077797257239,-0.020000089529937426
-1.4989897016825644,-0.03245698335965375
-1.7296200433945264,-0.05449610321222879
-1.8994056969663977,-0.0640783292350875
-2.0251513857892514,-0.06695299704194511
-2.299821692250231,-0.0640783292350875
-2.7657181614372095,-0.07845166826937557
-3.0212658516255892,-0.09474145250823537
-2.730370294993919,-0.1139059045539528
-2.0599197790121604,-0.12540457578138325
-1.4653802549004191,-0.14648547303167242
-1.0979942331783492,-0.157025921656817
-0.8517181145160784,-0.16085881206596048
-0.6176109334818255,-0.157025921656817
-0.44318949414689957,-0.16948281548653332
-0.29716224261068247,-0.18768904492996488
-0.18184707175470152,-0.21068638738482579
-0.13664816056492005,-0.21931039080539863
-0.25370175108204646,-0.2336837298396867
-0.4570968514360631,-0.2499735140785465
-0.6135546209391528,-0.2739290791356933
-0.6176109334818255,-0.28159485995398026
-0.46868631584369935,-0.28159485995398026
-0.21719493819799215,-0.28159485995398026
-0.008005105640157361,-0.29788464419284005
0.023286448260460585,-0.3122579832271281
-0.10825397276621115,-0.32854776746598796
-0.21719493819799215,-0.342921106500276
-0.20039021480691957,-0.3668766715574228
-0.13664816056492005,-0.37454245237570977
-0.14823762497255633,-0.37454245237570977
-0.21719493819799215,-0.37454245237570977
-0.29600329616991883,-0.3937069044214272
-0.3771295470233728,-0.4052055756488576
-0.46463000330102666,-0.40712202085342936
-0.4570968514360631,-0.4052055756488576
-0.3145464392221369,-0.42437002769457505
-0.13664816056492005,-0.43682692152429137
-0.10419766022353846,-0.4387433667288631
-0.21719493819799215,-0.43682692152429137
-0.34294062702084577,-0.45503315096772295
-0.3771295470233728,-0.4674900447974393
-0.4113184670258998,-0.47036471260429685
-0.5376436290691352,-0.4674900447974393
-0.6987371843352794,-0.4856962742408708
-0.6975782378945159,-0.499111390672873
-0.5075110216092809,-0.5019860584797307
-0.29716224261068247,-0.499111390672873
-0.22936387582601026,-0.5163593975140187
-0.21719493819799215,-0.5297745139460209
-0.13027395514072007,-0.5336074043551644
0.023286448260460585,-0.5297745139460209
0.10788953843620541,-0.5460642981848807
0.10383322589353271,-0.5613958598214547
0.05979326114451486,-0.566186972832884
0.023286448260460585,-0.5613958598214547
-0.003948793097484665,-0.5738527536511709
0.023286448260460585,-0.5920589830946025
0.09861796691009639,-0.6025994317197471
0.18380053030622304,-0.5920589830946025
0.26840362048196786,-0.5863096474808873
0.42428191676467575,-0.5920589830946025
0.5888523113531109,-0.6121816577426058
0.5842165255900564,-0.6227221063677504
0.32693041574053106,-0.6275132193791797
0.023286448260460585,-0.6227221063677504
-0.10883344598659297,-0.6246385515723222
-0.056680856152229724,-0.6227221063677504
0.031978546566187795,-0.6246385515723222
0.10383322589353271,-0.6227221063677504
0.140340038777587,-0.6265549967768939
0.10383322589353271,-0.6227221063677504
-0.048568231066884335,-0.6217638837654645
-0.21719493819799215,-0.6227221063677504
-0.3064338141367915,-0.6409283358111819
-0.29716224261068247,-0.6543434522431841
-0.2392149205725011,-0.6610510104591852
-0.13664816056492005,-0.6543434522431841
-0.068270320559866,-0.6543434522431841
-0.13664816056492005,-0.6543434522431841
-0.3354074751558822,-0.6581763426523276
-0.4570968514360631,-0.6543434522431841
-0.4066826812628453,-0.65530167484547
-0.29716224261068247,-0.6543434522431841
-0.2809369924399917,-0.6581763426523276
-0.29716224261068247,-0.6543434522431841
-0.2844138317622826,-0.6543434522431841
-0.29716224261068247,-0.6543434522431841
-0.3985700561774999,-0.6591345652546134
-0.4570968514360631,-0.6543434522431841
-0.37133481481955466,-0.6524270070386124
-0.21719493819799215,-0.6543434522431841
-0.1441813124298836,-0.6715914590843298
-0.13664816056492005,-0.685006575516332
-0.1557707768375199,-0.6917141337323331
-0.21719493819799215,-0.685006575516332
-0.3145464392221369,-0.685006575516332
-0.29716224261068247,-0.685006575516332
-0.12795606225919284,-0.6888394659254755
0.023286448260460585,-0.685006575516332
-0.0346608737777208,-0.6869230207209037
-0.21719493819799215,-0.685006575516332
-0.34931483244504574,-0.6878812433231897
-0.3771295470233728,-0.685006575516332
-0.3869805917698636,-0.6869230207209037
-0.3771295470233728,-0.685006575516332
-0.3104901266794642,-0.6878812433231897
-0.21719493819799215,-0.685006575516332
-0.23284071514830113,-0.6869230207209037
-0.3771295470233728,-0.685006575516332
-0.5318488968653171,-0.6888394659254755
-0.5376436290691352,-0.685006575516332
-0.41363635990742703,-0.6869230207209037
-0.29716224261068247,-0.685006575516332
-0.3104901266794642,-0.6907559111300472
-0.3771295470233728,-0.685006575516332
-0.3417816805800821,-0.6763825720957591
-0.13664816056492005,-0.6543434522431841
0.06906483267062388,-0.6313461097883233
0.10383322589353271,-0.5920589830946025
-0.028286668353520845,-0.5508554111963101
-0.13664816056492005,-0.499111390672873
-0.16678076802477435,-0.44736737014943595
-0.21719493819799215,-0.37454245237570977
-0.360904296852682,-0.2892606407722672
-0.4570968514360631,-0.18768904492996488
-0.3875600649902454,-0.097616120315093
-0.21719493819799215,-0.001793860086505874
-0.12737658903881102,0.09594484534665298
-0.13664816056492005,0.21572267063238687
-0.15924761615981078,0.33645871852040665
-0.13664816056492005,0.4648605472267134
-0.12737658903881102,0.5855965951147332
-0.13664816056492005,0.713040201218754
-0.12911500869995646,0.8261104682884868
-0.056680856152229724,0.9305567319376468
0.03545538588847868,1.017754988745661
0.10383322589353271,1.1174101393833917
0.11600216352155081,1.2218564030325516
0.10383322589353271,1.3349266701022844
0.06964430589100569,1.4288324851263
0.023286448260460585,1.5208218549457435
-0.03929665954077531,1.6089783343560435
-0.056680856152229724,1.7076752623914884
-0.00626668597901192,1.7900824061880731
0.10383322589353271,1.8629073239617995
0.20176420013805926,1.9194424574966658
0.26376783471891335,1.9874762622589628
0.27188045980425873,2.0497607314075443
0.26376783471891335,2.112045200556126
0.2967978082806767,2.1542069950567044
0.42428191676467575,2.2049927929778557
0.5239513106703477,2.250029255285291
0.42428191676467575,2.297940385399585
0.10035638657124182,2.3257288408658754
-0.21719493819799215,2.3602248545481666
-0.3632221897342093,2.3899297552190286
-0.3771295470233728,2.4225093236967483
-0.37307323448070007,2.434007994924179
-0.29716224261068247,2.453172446969896
-0.09376714225666581,2.46850400860647
0.18380053030622304,2.4847937928453296
0.4126924523570395,2.4694622312087557
0.5842165255900564,2.453172446969896
0.6682401425454194,2.44071555314018
0.5842165255900564,2.453172446969896
0.3031720137048767,2.455088892174468
0.023286448260460585,2.453172446969896
-0.06595242767833874,2.4330497723218927
0.023286448260460585,2.4225093236967483
0.08297218995978742,2.402386649048745
0.023286448260460585,2.3908879778213143
-0.09202872259552038,2.369807080571025
-0.13664816056492005,2.3602248545481666
-0.11057186564773841,2.3410604025024493
-0.056680856152229724,2.3295617312750188
-0.02133298970893908,2.297940385399585
0.023286448260460585,2.267277262126437
0.07138272555215114,2.2270319128304306
0.10383322589353271,2.2049927929778557
0.09456165436742368,2.1752878923069936
0.10383322589353271,2.142708323829274
0.16467791403362317,2.0880896354989793
0.26376783471891335,2.0497607314075443
0.32403304963862195,2.014306495122967
0.34373513913160364,1.9874762622589628
0.34025829980931277,1.9376486869400973
0.34373513913160364,1.8945286698372332
0.3217151567570947,1.8466175397229396
0.26376783471891335,1.8006228548132177
0.1664163336947686,1.7335472726532068
0.10383322589353271,1.6770121391183404
0.15656528894827776,1.6252681185949034
0.34373513913160364,1.583106324094325
0.4961365960920207,1.5189054097411716
0.42428191676467575,1.4594956083994477
0.11889952962345987,1.3952946940462942
-0.13664816056492005,1.3349266701022844
-0.07928031174712047,1.2515613037034137
0.26376783471891335,1.1796946085319733
0.5395970876206567,1.122201252394821
0.504249221177366,1.085788793507958
0.2753572991265496,1.0292536599730915
0.18380053030622304,0.9621780778130805
0.2672446740412042,0.8874367148347826
0.26376783471891335,0.8376091395159173
0.004743305208242543,0.7887397867993379
-0.29716224261068247,0.7446615470941877
-0.42986161007811785,0.6900428587638932
-0.4570968514360631,0.6507557320701723
-0.5683557097493713,0.6153014957855951
-0.6975782378945159,0.5884712629215908
-0.7074292826410067,0.5520588040347276
-0.6176109334818255,0.527145016375295
-0.5834220134792986,0.5060641191250058
-0.6176109334818255,0.4955236704998613
-0.6657072107735161,0.4667769924312851
-0.6975782378945159,0.43323920135127963
-0.709747175522534,0.39299385205527304
-0.6176109334818255,0.37095473220269803
-0.4524610656730086,0.3508320575546947
-0.3771295470233728,0.3402916089295501
-0.5086699680500445,0.3211271568838327
-0.6975782378945159,0.3096284856564023
-0.7659560778995699,0.29046403361068485
-0.6975782378945159,0.2780071397809685
-0.6071804155149528,0.2588426877352511
-0.4570968514360631,0.24734401650782062
-0.13664816056492005,0.2291377870643891
0.34373513913160364,0.21572267063238687
0.6751938211900012,0.1955999959843836
0.5842165255900564,0.18505954735923902
0.07891587741711471,0.1687697631203792
-0.4570968514360631,0.15343820148380527
-0.7027934968779521,0.13044085902894434
-0.6176109334818255,0.12277507821065738
-0.426384770755827,0.12085863300608564
-0.29716224261068247,0.12277507821065738
-0.2699270012527372,0.10744351657408344
-0.29716224261068247,0.0921119549375095
-0.3440995734616094,0.07294750289179208
-0.3771295470233728,0.060490609062075755
-0.41363635990742703,0.03940971181178659
-0.4570968514360631,0.029827485788927875
-0.4287026636373542,0.02599459537978439
-0.13664816056492005,0.029827485788927875
0.532643408976075,0.015454146754639807
1.5455625982034855,-0.001793860086505874
2.798963173889349,-0.02191653473450917
4.189698902805702,-0.03245698335965375
5.423397388998584,-0.04970499020079943
6.03242374361987,-0.0640783292350875
5.661560882575509,-0.08228455867851905
4.430180289264155,-0.09474145250823537
2.767671619988731,-0.1139059045539528
1.1451466029196522,-0.12540457578138325
-0.13317132124262915,-0.14265258262252895
-0.9380596243529686,-0.157025921656817
-1.4056945132010923,-0.17906504150939204
-1.7394710881410171,-0.18768904492996488
-1.9538761796822883,-0.1905637127368225
-1.8994056969663977,-0.18768904492996488
-1.736573722039108,-0.20206238396425294
-1.8994056969663977,-0.21931039080539863
-2.5095909980284477,-0.23943306545340193
-3.0212658516255892,-0.2499735140785465
-2.872920707207845,-0.2672215209196922
-2.1398870834248505,-0.28159485995398026
-1.3865718969284926,-0.2998010893974118
-0.9380596243529686,-0.3122579832271281
-0.7421976758639155,-0.33142243527284554
-0.6176109334818255,-0.342921106500276
-0.5364846826283716,-0.3592108907391358
-0.4570968514360631,-0.37454245237570977
-0.37481165414184553,-0.3965815722282848
-0.29716224261068247,-0.4052055756488576
-0.3220795910871005,-0.40808024345571525
-0.4570968514360631,-0.4052055756488576
-0.6280414514486982,-0.41957891468314573
-0.6975782378945159,-0.43682692152429137
-0.6181904067022074,-0.4569495961722947
-0.4570968514360631,-0.4674900447974393
-0.3806063863456637,-0.4856962742408708
-0.4570968514360631,-0.499111390672873
-0.5961704243276984,-0.5077353940934458
-0.6176109334818255,-0.499111390672873
-0.479116833810572,-0.49432027766144365
-0.29716224261068247,-0.499111390672873
-0.23052282226677387,-0.5192340653208763
-0.29716224261068247,-0.5297745139460209
-0.4032058419405544,-0.5326491817528785
-0.4570968514360631,-0.5297745139460209
-0.49244471787935373,-0.5451060755825948
-0.5376436290691352,-0.5613958598214547
-0.5532894060194442,-0.5700198632420275
-0.4570968514360631,-0.5613958598214547
-0.32497695718900954,-0.5575629694123112
-0.29716224261068247,-0.5613958598214547
-0.4032058419405544,-0.5796020892648862
-0.4570968514360631,-0.5920589830946025
-0.35568903786924566,-0.5997247639128895
-0.21719493819799215,-0.5920589830946025
-0.26123490294701,-0.589184315287745
-0.4570968514360631,-0.5920589830946025
-0.5770478080550986,-0.6102652125380341
-0.4570968514360631,-0.6227221063677504
-0.23689702769097384,-0.6294296645837515
-0.13664816056492005,-0.6227221063677504
-0.2183538846387558,-0.6236803289700362
-0.29716224261068247,-0.6227221063677504
-0.21140020599417403,-0.6265549967768939
0.023286448260460585,-0.6227221063677504
0.2168305038679864,-0.6246385515723222
0.26376783471891335,-0.6227221063677504
0.20987682522340464,-0.625596774174608
0.18380053030622304,-0.6227221063677504
0.2081384055622592,-0.625596774174608
0.26376783471891335,-0.6227221063677504
0.3501093445558036,-0.6246385515723222
0.504249221177366,-0.6227221063677504
0.6299949100002197,-0.625596774174608
0.5842165255900564,-0.6227221063677504
0.3414172462500764,-0.6246385515723222
0.10383322589353271,-0.6227221063677504
0.036614332329242306,-0.6275132193791797
0.10383322589353271,-0.6227221063677504
0.11310479741964173,-0.6217638837654645
0.023286448260460585,-0.6227221063677504
-0.04103507920192075,-0.6399701132088961
0.023286448260460585,-0.6543434522431841
0.07601851131520565,-0.6620092330614711
-0.056680856152229724,-0.6543434522431841
-0.3238180107482459,-0.6524270070386124
-0.4570968514360631,-0.6543434522431841
-0.3892984846513909,-0.6620092330614711
-0.29716224261068247,-0.6543434522431841
-0.3104901266794642,-0.6399701132088961
-0.29716224261068247,-0.6227221063677504
-0.22762545616486482,-0.6217638837654645
-0.29716224261068247,-0.6227221063677504
-0.6054419958538074,-0.6275132193791797
-0.8580923199402782,-0.6227221063677504
-0.8134728819708786,-0.6246385515723222
-0.6176109334818255,-0.6227221063677504
-0.5666172900882259,-0.6265549967768939
-0.6176109334818255,-0.6227221063677504
-0.5822630670385349,-0.6246385515723222
-0.4570968514360631,-0.6227221063677504
-0.4147953063481907,-0.625596774174608
-0.4570968514360631,-0.6227221063677504
-0.48491156601439017,-0.6246385515723222
-0.4570968514360631,-0.6227221063677504
-0.4321795029596451,-0.625596774174608
-0.3771295470233728,-0.6227221063677504
-0.2629733226081555,-0.6246385515723222
-0.13664816056492005,-0.6227221063677504
-0.10361818700315664,-0.6265549967768939
-0.13664816056492005,-0.6227221063677504
-0.1604065626005744,-0.6236803289700362
-0.13664816056492005,-0.6227221063677504
-0.13838658022606548,-0.6275132193791797
-0.21719493819799215,-0.6227221063677504
-0.38176533278642727,-0.6217638837654645
-0.5376436290691352,-0.6227221063677504
-0.5561867721213533,-0.6418865584134679
-0.3771295470233728,-0.6543434522431841
-0.16967813412668342,-0.6600927878568994
-0.13664816056492005,-0.6543434522431841
-0.2600759565062464,-0.6562598974477559
-0.29716224261068247,-0.6543434522431841
-0.2102412595534104,-0.647635894027183
-0.21719493819799215,-0.6227221063677504
-0.420010565331627,-0.6054740995266047
-0.5376436290691352,-0.5920589830946025
-0.3365664215966458,-0.5872678700831732
0.023286448260460585,-0.5613958598214547
0.18959526251004116,-0.5221087331277339
0.10383322589353271,-0.4674900447974393
-0.07116768666177507,-0.4157460242740022
-0.21719493819799215,-0.342921106500276
-0.3568479843100093,-0.25859751749911936
