ECG,PPG
-1.0559108947545215,1.2721435758275186
-0.9050552568403449,1.211587838488022
-0.7994563103004205,1.1436472551314931
-0.7491710976623582,1.0609369797409598
-0.6988858850242959,0.9649339815197955
-0.7491710976623582,0.8600691680782254
-0.5932869384843721,0.7448655702128312
-0.7491710976623582,0.6222771263304191
-0.5932869384843721,0.49821171324460384
-0.6486006723862336,0.3756232693621924
-0.5932869384843721,0.25451179468319957
-0.5430017258463092,0.1378312276144015
-0.3871175666683231,0.024104598952410787
-0.4424313005701846,-0.07337536847215714
-0.2865471413921979,-0.15756261306610897
-0.2362619287541356,-0.24470379606685272
-0.2865471413921979,-0.33184497906759647
-0.1809481948522741,-0.4160322236615332
-0.2362619287541356,-0.4928346222384678
-0.08037776957614948,-0.5607752055949817
-0.1809481948522741,-0.6257618505446887
-0.0300925569380866,-0.6848406186807967
0.02522117696377491,-0.7350575715964843
0.12579160223989952,-0.7793666476985579
0.02522117696377491,-0.8207217853938246
0.23139054877982335,-0.8532151078686856
0.1760768148779618,-0.8783235843265293
0.3822461866940114,-0.9063859991911648
0.3822461866940114,-0.9329714448524118
0.4878451332339352,-0.9566029521068521
0.2816757614178862,-0.9743265825476787
0.33196097405594854,-0.9890962745817131
0.12579160223989952,-0.9994350590055222
0.07550638960183721,-1.0082968742259428
-0.13066298221421177,-1.0201126278531556
-0.08037776957614948,-1.0348823198871901
-0.2362619287541356,-1.0481750427178063
-0.1809481948522741,-1.0585138271416306
-0.3368323540302608,-1.0614677655484375
-0.2865471413921979,-1.0585138271416306
-0.3368323540302608,-1.0614677655484375
-0.1809481948522741,-1.0688526115654395
-0.13066298221421177,-1.0777144267858603
-0.2362619287541356,-1.089530180413073
-0.13066298221421177,-1.1013459340403007
-0.1809481948522741,-1.1131616876675132
-0.13066298221421177,-1.1264544104981444
-0.1809481948522741,-1.1412241025321637
-0.08037776957614948,-1.1559937945661984
-0.1809481948522741,-1.1707634866002177
-0.08037776957614948,-1.1796253018206388
-0.1809481948522741,-1.187010147837641
-0.0300925569380866,-1.197348932261465
-0.0300925569380866,-1.2091646858886778
0.07550638960183721,-1.2180265011090985
0.02522117696377491,-1.226888316329519
0.12579160223989952,-1.232796193143118
0.02522117696377491,-1.2342731623465215
0.1760768148779618,-1.2313192239397146
0.12579160223989952,-1.2180265011090985
0.23139054877982335,-1.1884871170410445
0.1760768148779618,-1.1353162257185652
0.12579160223989952,-1.05408291953142
0.02522117696377491,-0.9595568905136591
0.23139054877982335,-0.8502611694618786
0.1760768148779618,-0.7099490951386405
0.1760768148779618,-0.5445285443575586
-0.08037776957614948,-0.3584304247288438
-0.13066298221421177,-0.1619935206763044
-0.2865471413921979,0.037397321783026904
-0.3368323540302608,0.23235725663216278
-0.2362619287541356,0.41845537626087764
-0.3368323540302608,0.5927377422623651
-0.1809481948522741,0.7566813238400432
-0.3368323540302608,0.907332182587106
-0.3871175666683231,1.0225357804525004
-0.1809481948522741,1.1111539326566475
1.1566384613201446,1.201249054064198
3.213303658216824,1.282482360251328
5.169398429837378,1.3504229436078563
5.531451960831403,1.4021168657269325
3.525071976572796,1.4346101882017934
1.1566384613201446,1.4508568494392162
0.12579160223989952,1.449379880235813
-0.5430017258463092,1.4316562497949865
-0.7994563103004205,1.4006398965235292
-0.7491710976623582,1.3548538512180517
-0.4927165132082469,1.2913441754717483
-0.3871175666683231,1.2189726845050246
-0.3368323540302608,1.1392163475212977
-0.4424313005701846,1.1081999942498406
-0.3871175666683231,1.093430302215821
-0.3368323540302608,1.0195818420456932
-0.3871175666683231,0.919147936214318
-0.3368323540302608,0.8024673691455206
-0.2865471413921979,0.6813558944665123
-0.3871175666683231,0.5572904813807125
-0.2865471413921979,0.43322506829489726
-0.1809481948522741,0.315067532022696
-0.2865471413921979,0.19986393415730178
-0.1809481948522741,0.09943002832592682
-0.2865471413921979,0.010811876121779576
-0.08037776957614948,-0.08223718369257785
-0.08037776957614948,-0.1752862435069356
0.07550638960183721,-0.2639043957110825
0.02522117696377491,-0.34366073269482417
0.12579160223989952,-0.41750919286493665
0.07550638960183721,-0.48692674542485415
0.1760768148779618,-0.5533903595779797
0.1760768148779618,-0.613946096917476
0.33196097405594854,-0.6656400190365669
0.2816757614178862,-0.7173339411556576
0.43253139933207313,-0.7690278632747337
0.3822461866940114,-0.8074290625632085
0.43253139933207313,-0.8384454158346508
0.3822461866940114,-0.8753696459197223
0.3822461866940114,-0.9108169068013753
0.1760768148779618,-0.9388793216660258
0.1760768148779618,-0.9595568905136591
0.02522117696377491,-0.9728496133442752
-0.0300925569380866,-0.9787574901578889
-0.13066298221421177,-0.981711428564696
-0.1809481948522741,-0.9831883977680994
-0.08037776957614948,-0.981711428564696
-0.2362619287541356,-0.9743265825476787
-0.1809481948522741,-0.9625108289204661
-0.2362619287541356,-0.9506950752932384
-0.13066298221421177,-0.9388793216660258
-0.3368323540302608,-0.9255865988354097
-0.2362619287541356,-0.9108169068013753
-0.3368323540302608,-0.8901393379537417
-0.2362619287541356,-0.8679847999027048
-0.2865471413921979,-0.8413993542414578
-0.13066298221421177,-0.8133369393768074
-0.2362619287541356,-0.7867514937155751
-0.08037776957614948,-0.7601660480543277
-0.1809481948522741,-0.7365345407998878
-0.08037776957614948,-0.7188109103590461
-0.13066298221421177,-0.7055181875284303
0.02522117696377491,-0.6981333415114128
0.07550638960183721,-0.6996103107148163
0.1760768148779618,-0.7040412183250268
0.12579160223989952,-0.708472125935237
0.23139054877982335,-0.708472125935237
0.1760768148779618,-0.7040412183250268
0.23139054877982335,-0.6937024339012177
0.33196097405594854,-0.6671169882399703
0.2816757614178862,-0.6198539737310897
0.33196097405594854,-0.5519133903745761
0.1760768148779618,-0.4632952381704138
0.23139054877982335,-0.3702461783560564
0.1760768148779618,-0.26981227252469653
0.2816757614178862,-0.14870079784568827
-0.08037776957614948,-0.01281963113266074
-0.1809481948522741,0.12896941239398083
-0.2362619287541356,0.27223542512402554
-0.1809481948522741,0.4110705302438604
-0.2865471413921979,0.5439977585500813
-0.2362619287541356,0.6680631716358966
-0.2865471413921979,0.7788358618910799
-0.1809481948522741,0.874838860112245
-0.4927165132082469,0.9590261047061814
-0.3368323540302608,1.0328745648763091
0.12579160223989952,1.087522425402207
1.8254317894063528,1.1274005938940703
3.8318117736649704,1.16580179318253
5.274997376377312,1.199772084860794
5.3755678016534265,1.2263575305220418
2.2377705330384505,1.2411272225560614
0.23139054877982335,1.2440811609628677
-0.4424313005701846,1.2322654073356551
-0.9553404694784072,1.205679961674408
-1.0559108947545215,1.167278762385933
-0.8497415229384732,1.1185387786736647
-0.6486006723862336,1.055029102927346
-0.5932869384843721,0.9885654887742354
-0.5430017258463092,0.9161939978075117
-0.4424313005701846,0.8334837224169778
-0.5932869384843721,0.7433886010094274
-0.4424313005701846,0.647385602788263
-0.5430017258463092,0.5484286661602915
-0.4424313005701846,0.44947172953232
-0.4927165132082469,0.3490378237009602
-0.3871175666683231,0.24860391786958558
-0.4927165132082469,0.15407788885182463
-0.3871175666683231,0.06398276744427389
-0.3871175666683231,-0.023158415556469844
-0.3368323540302608,-0.10734566015042167
-0.4424313005701846,-0.17971715111714578
-0.3368323540302608,-0.24913470367706322
-0.2865471413921979,-0.3333219482709999
-0.3368323540302608,-0.43227888489897137
-0.2362619287541356,-0.5489594519677692
-0.08037776957614948,-0.68188668027399
-0.08037776957614948,-0.8251526930040347
0.02522117696377491,-0.9728496133442752
0.07550638960183721,-1.122023502887934
0.1760768148779618,-1.2652895156179773
0.23139054877982335,-1.3996937131276046
0.1760768148779618,-1.5178512493998042
0.23139054877982335,-1.6035154631971507
0.1760768148779618,-1.6685021081468605
0.2816757614178862,-1.7320117838931672
0.1760768148779618,-1.7940444904360728
0.23139054877982335,-1.8501693201653686
-0.08037776957614948,-1.9003862730810528
-0.0300925569380866,-1.9417414107763225
-0.2362619287541356,-1.9727577640477751
-0.3368323540302608,-1.9934353328954102
-0.3871175666683231,-2.0037741173192285
-0.3368323540302608,-2.0067280557260325
-0.4927165132082469,-2.0037741173192285
-0.3368323540302608,-1.9934353328954102
-0.3368323540302608,-1.971280794844372
-0.3368323540302608,-1.9417414107763225
-0.3871175666683231,-1.9077711190980653
-0.2865471413921979,-1.8693699198095997
-0.3368323540302608,-1.8294917513177322
-0.2865471413921979,-1.7881366136224623
-0.3368323540302608,-1.7453045067237904
-0.2362619287541356,-1.7024723998251172
-0.2865471413921979,-1.6625942313332498
-0.1809481948522741,-1.6256700012481873
-0.2865471413921979,-1.590222740366527
-0.3368323540302608,-1.557729417891672
-0.1809481948522741,-1.5281900338236225
-0.2362619287541356,-1.5045585265691823
-0.0300925569380866,-1.4897888345351584
-0.08037776957614948,-1.477973080907938
0.02522117696377491,-1.46763429648412
-0.0300925569380866,-1.454341573653498
0.1760768148779618,-1.4277561279922522
0.12579160223989952,-1.3790161442799698
0.1760768148779618,-1.2992598072962358
0.02522117696377491,-1.187010147837641
0.12579160223989952,-1.0422671659042073
0.07550638960183721,-0.8635538922924947
0.23139054877982335,-0.6567782038161462
0.07550638960183721,-0.46034129976362187
-0.08037776957614948,-0.26242742650767936
-0.2865471413921979,-0.033497199980294046
-0.2362619287541356,0.20281787256410844
-0.3368323540302608,0.43913294510851125
-0.3368323540302608,0.6665862024324927
-0.3871175666683231,0.8807467369258584
-0.3368323540302608,1.0771836409783826
-0.4424313005701846,1.254419945386692
-0.4927165132082469,1.4109786809473535
-0.3871175666683231,1.5453828784569774
0.5381303458719969,1.6576325379155648
2.1321715864985165,1.7359119056959031
4.244150517297069,1.7890827970183971
5.224712163739249,1.8392997499340848
3.9374107202048942,1.8791779184259476
1.2572088865962692,1.9028094256803882
-0.2362619287541356,1.9101942716973905
-0.7491710976623582,1.8998554872735811
-1.2117950539325082,1.8688391340021233
-1.1112246286563934,1.8171452118830325
-1.0056256821164593,1.749204628526519
-0.7994563103004205,1.6664943531359857
-0.7491710976623582,1.5675374165080143
-0.5932869384843721,1.4671035106766543
-0.6486006723862336,1.3637156664384729
-0.5430017258463092,1.2470350993696748
-0.5932869384843721,1.1200157478770532
-0.4927165132082469,0.9900424579776392
-0.5430017258463092,0.8615461372816285
-0.4424313005701846,0.7360037549924101
-0.5430017258463092,0.6134153111099987
-0.3871175666683231,0.49673474404120066
-0.4424313005701846,0.3903929613962268
-0.3368323540302608,0.2899590555648522
-0.4424313005701846,0.19543302654709124
-0.3368323540302608,0.1053379051395405
-0.2362619287541356,0.02853550656260587
-0.2865471413921979,-0.036451138387101054
-0.08037776957614948,-0.10143778333680799
-0.1809481948522741,-0.1634704898797079
-0.08037776957614948,-0.22402622721921941
-0.0300925569380866,-0.2816280261519091
0.07550638960183721,-0.33627588667780695
-0.0300925569380866,-0.3850158703900908
0.1760768148779618,-0.4263710080853574
0.12579160223989952,-0.4632952381704138
0.23139054877982335,-0.49874249905208184
0.1760768148779618,-0.5312358215269277
0.33196097405594854,-0.5548673287813677
0.1760768148779618,-0.5711139900188059
0.12579160223989952,-0.5873606512562287
-0.08037776957614948,-0.6036073124936518
-0.08037776957614948,-0.6198539737310897
-0.2865471413921979,-0.6375776041719163
-0.2362619287541356,-0.6567782038161462
-0.3368323540302608,-0.675978803460376
-0.2865471413921979,-0.6922254646978142
-0.3368323540302608,-0.7099490951386405
-0.3368323540302608,-0.7261957563760636
-0.4424313005701846,-0.7394884792066945
-0.3871175666683231,-0.7498272636305036
-0.3871175666683231,-0.7542581712407141
-0.3368323540302608,-0.7572121096475212
-0.4424313005701846,-0.7631199864611348
-0.3368323540302608,-0.7705048324781373
-0.2362619287541356,-0.7778896784951544
-0.2865471413921979,-0.7852745245121716
-0.3368323540302608,-0.7941363397325772
-0.3368323540302608,-0.8029981549529982
-0.2362619287541356,-0.816290877783614
-0.3368323540302608,-0.8310605698176488
-0.13066298221421177,-0.8443532926482649
-0.1809481948522741,-0.8591229846822841
-0.0300925569380866,-0.8694617691061084
-0.08037776957614948,-0.8768466151231259
0.12579160223989952,-0.8857084303435314
0.02522117696377491,-0.8930932763605487
0.12579160223989952,-0.8930932763605487
0.02522117696377491,-0.8798005535299326
0.1760768148779618,-0.8473072310550716
0.07550638960183721,-0.7867514937155751
0.12579160223989952,-0.6922254646978142
0.02522117696377491,-0.5666830824085954
0.1760768148779618,-0.4130782852547416
0.12579160223989952,-0.232888042439625
-0.0300925569380866,-0.030543261573487034
-0.1809481948522741,0.15555485805522815
-0.2865471413921979,0.3342681316669258
-0.3368323540302608,0.5366129125330789
-0.3368323540302608,0.7433886010094274
-0.3368323540302608,0.9442564126721618
-0.3368323540302608,1.1333084707076844
-0.2865471413921979,1.3046368983023795
-0.3871175666683231,1.4567647262528303
-0.4424313005701846,1.589691954559051
-0.0300925569380866,1.7019416140176382
1.4633782584123176,1.7920367354252043
3.575357189210859,1.8614542879851217
5.068828004561263,1.9028094256803882
5.224712163739249,1.922010025324618
2.2377705330384505,1.9338257789518307
0.23139054877982335,1.9353027481552338
-0.5430017258463092,1.922010025324618
-1.0559108947545215,1.895424579663371
-1.1112246286563934,1.8496385343578936
-0.9553404694784072,1.7846518894081869
-0.6988858850242959,1.7034185832210422
-0.6988858850242959,1.5941228621692614
-0.5932869384843721,1.473011387490253
-0.6486006723862336,1.3607617280316657
-0.5932869384843721,1.2514660069798855
-0.5932869384843721,1.152509070351914
-0.5932869384843721,1.0579830413341529
-0.5932869384843721,0.9575491355027783
-0.5430017258463092,0.8571152296714184
-0.4927165132082469,0.7596352622468502
-0.5430017258463092,0.6665862024324927
-0.4927165132082469,0.5779680502283455
-0.4424313005701846,0.49230383643099046
-0.3368323540302608,0.4110705302438604
-0.4927165132082469,0.335745100870329
-0.3368323540302608,0.26780451751381534
-0.3368323540302608,0.20872574937772245
-0.1809481948522741,0.16293970407224534
-0.2362619287541356,0.12749244319057731
-0.08037776957614948,0.0935221515123279
-0.08037776957614948,0.05955185983406371
0.07550638960183721,0.0270585373592027
0.02522117696377491,-0.0010038775054330333
0.1760768148779618,-0.02168144635306634
0.1760768148779618,-0.037928107590504224
0.2816757614178862,-0.052697799624523846
0.2816757614178862,-0.06746749165854346
0.3822461866940114,-0.08076021448917434
0.2816757614178862,-0.09405293731979046
0.2816757614178862,-0.10734566015042167
0.07550638960183721,-0.11620747537082726
-0.0300925569380866,-0.12506929059124797
-0.13066298221421177,-0.13540807501507215
-0.1809481948522741,-0.14870079784568827
-0.3368323540302608,-0.1649474590831114
-0.3368323540302608,-0.1841480587273412
-0.2865471413921979,-0.2048256275749896
-0.3368323540302608,-0.2255031964226229
-0.3368323540302608,-0.2461807652702562
-0.3871175666683231,-0.265381364914486
-0.3368323540302608,-0.28458196455871615
-0.3871175666683231,-0.30378256420294597
-0.3368323540302608,-0.3200292254403838
-0.3368323540302608,-0.33479891747440343
-0.2362619287541356,-0.35399951711863326
-0.3368323540302608,-0.37615405516967004
-0.2362619287541356,-0.3997855624241104
-0.3368323540302608,-0.4234170696785507
-0.1809481948522741,-0.4426176693227805
-0.2865471413921979,-0.46034129976362187
-0.13066298221421177,-0.4780649302044485
-0.13066298221421177,-0.4928346222384678
0.02522117696377491,-0.5076043142725025
-0.0300925569380866,-0.5208970371031186
0.12579160223989952,-0.5341897599337344
0.02522117696377491,-0.5415746059507519
0.12579160223989952,-0.5445285443575586
0.1760768148779618,-0.5415746059507519
0.23139054877982335,-0.5238509755099253
0.12579160223989952,-0.48692674542485415
0.07550638960183721,-0.4293249464921644
0.12579160223989952,-0.3466146711016161
0.07550638960183721,-0.23731895004983553
0.1760768148779618,-0.10439172174361466
-0.1809481948522741,0.04921307541025461
-0.3368323540302608,0.21758756459812806
-0.3368323540302608,0.3948238690064376
-0.3871175666683231,0.5499056353636953
-0.4424313005701846,0.6902177096869334
-0.3871175666683231,0.8408685684339802
-0.4927165132082469,0.9929963963844463
-0.3871175666683231,1.1406933167247015
-0.4927165132082469,1.2765744834377288
-0.4424313005701846,1.3991629273201254
-0.13066298221421177,1.505504709965114
1.362807833136193,1.5955998313726651
3.318902604756748,1.6694482915427926
5.0185427919232,1.730004028882289
5.224712163739249,1.775790074187766
2.338340958314565,1.808283396662627
0.1760768148779618,1.8215761194932434
-0.5430017258463092,1.8200991502898396
-1.1112246286563934,1.811237335069434
-1.3173940004724423,1.790559766221801
-1.1112246286563934,1.7565894745435362
-0.9050552568403449,1.7063725216278485
-0.7994563103004205,1.6443398150849489
-0.8497415229384732,1.5719683241182245
-0.7491710976623582,1.4892580487276912
-0.7994563103004205,1.4021168657269325
-0.5932869384843721,1.307590836709171
-0.6988858850242959,1.2086339000812152
-0.6486006723862336,1.117061809470261
-0.6988858850242959,1.029920626469502
-0.5932869384843721,0.9353945974517415
-0.6988858850242959,0.8408685684339802
-0.5932869384843721,0.7478195086196228
-0.5932869384843721,0.6577243872120724
-0.4927165132082469,0.5705832042113282
-0.5932869384843721,0.48934989802419826
-0.5430017258463092,0.41402446865066744
-0.5932869384843721,0.34608388529415385
-0.3368323540302608,0.28405117875123814
-0.4424313005701846,0.22940331822535576
-0.3368323540302608,0.18066333451307162
-0.3368323540302608,0.14373910442800045
-0.1809481948522741,0.11419972035996154
-0.1809481948522741,0.0831833670885037
-0.08037776957614948,0.052167013817046186
-0.08037776957614948,0.01967369134220027
-0.0300925569380866,-0.011342661929257234
0.02522117696377491,-0.037928107590504224
-0.0300925569380866,-0.061559614844944543
0.02522117696377491,-0.08223718369257785
-0.0300925569380866,-0.10291475254021115
-0.13066298221421177,-0.12211535218444129
-0.2865471413921979,-0.14279292103207458
-0.3871175666683231,-0.1605165514729009
-0.4927165132082469,-0.1752862435069356
-0.4424313005701846,-0.19596381235456892
-0.5932869384843721,-0.21811835040560573
-0.5430017258463092,-0.23879591925323904
-0.5430017258463092,-0.25799651889746883
-0.4927165132082469,-0.27719711854169865
-0.5430017258463092,-0.297874687389347
-0.4424313005701846,-0.3170752870335772
-0.5932869384843721,-0.33627588667780695
-0.3871175666683231,-0.35547648632203677
-0.4424313005701846,-0.3746770859662666
-0.3368323540302608,-0.38944677800030125
-0.4424313005701846,-0.4012625316275139
-0.3368323540302608,-0.4160322236615332
-0.4424313005701846,-0.4293249464921644
-0.3368323540302608,-0.4426176693227805
-0.3871175666683231,-0.4559103921534117
-0.2362619287541356,-0.4692031149840275
-0.13066298221421177,-0.4824958378146587
-0.1809481948522741,-0.4957885606452748
-0.08037776957614948,-0.5090812834758909
-0.08037776957614948,-0.5208970371031186
-0.0300925569380866,-0.5327127907303313
-0.08037776957614948,-0.5386206675439449
0.02522117696377491,-0.5341897599337344
0.02522117696377491,-0.5194200678997152
0.02522117696377491,-0.4898806838316611
-0.08037776957614948,-0.4381867617125851
-0.0300925569380866,-0.3599073939322473
0.07550638960183721,-0.2550425804906618
0.1760768148779618,-0.12359232138784446
-0.0300925569380866,0.025581568155814294
-0.13066298221421177,0.18804818053008915
-0.3368323540302608,0.3608535773281728
-0.3368323540302608,0.5321820049228687
-0.4424313005701846,0.6990795249073537
-0.3368323540302608,0.8393915992305918
-0.4424313005701846,0.9619800431129885
-0.3368323540302608,1.0904763638090138
-0.4927165132082469,1.2145417768948137
-0.5430017258463092,1.3282684055568048
-0.3368323540302608,1.4287023113881794
0.8448701429641712,1.5173204635923265
2.6501092766705487,1.5911689237624542
4.656489260929165,1.651724661101966
5.169398429837378,1.6975107064074428
3.268617392118685,1.7285270596788853
0.7442997176880465,1.7447737209163234
-0.3368323540302608,1.7447737209163234
