ECG,PPG
-0.8252366635501293,-0.5119351190464304
-0.8141588481762636,-0.20263178746443436
-0.8817335219568421,0.09477526213363235
-0.9049969342419582,0.3604588931079215
-0.6889795344515874,0.6102808147703062
-0.7343985774844347,0.8363101724648269
-0.6546383067926059,0.9988926929117996
-0.6092192637597587,1.113890085423048
-0.6889795344515874,1.205094913966436
-0.7122429467367035,1.2685417512140271
-0.6092192637597587,1.3081960244937956
-0.6435604914187403,1.3200923064776862
-0.7233207621105691,1.3081960244937956
-0.8019732512650131,1.2844034605259351
-0.7122429467367035,1.2407837599182283
-0.8141588481762636,1.169406068014685
-0.8252366635501293,1.0821666667992336
-0.700057349825453,0.9869964109278694
-0.6092192637597587,0.8918261550564638
-0.4740699161986032,0.7768287625452136
-0.3378127871000615,0.634073378738127
-0.24697470103436728,0.4873525676031019
-0.15613661496867304,0.34856261112399134
-0.08856194118809513,0.20977265464488073
0.025539557162715436,0.08287898014970035
0.025539557162715436,-0.032118412361548936
0.047695187910446565,-0.1312540955608901
0.08203641556942823,-0.2224589241043186
0.10529982785454436,-0.3096983253197296
0.19503013238285383,-0.38504144455124995
0.2980538153597988,-0.4564191364547942
0.3545506737665116,-0.5198659737023844
0.4453887598322061,-0.5753819562940206
0.5362268458979005,-0.6269325115576796
0.569460292019495,-0.666586784837449
0.5240412489866477,-0.7062410581171771
0.4908078028650534,-0.7419299040689289
0.45646657520607165,-0.7855496046766755
0.4221253475470878,-0.8410655872683115
0.32020944610753,-0.8926161425319706
0.1839523170089883,-0.9441666977956297
0.16179668626125715,-1.0036481077152428
0.1274554586022755,-1.059164090306879
0.10529982785454436,-1.0948529362586714
0.10529982785454436,-1.1305417822104233
0.09311423094329382,-1.1900231921300364
0.08203641556942823,-1.2534700293776257
-0.008801670496266229,-1.316916866625216
-0.07637634427684459,-1.4001908405126904
0.6148793350523423,-1.4913956690560783
1.7835888569951175,-1.57863507027153
3.0652920957513183,-1.6539781895030512
3.0652920957513183,-1.7094941720946872
3.0652920957513183,-1.7372521633905256
3.0652920957513183,-1.7332867360625486
2.1347556043466516,-1.7015633174387332
0.6835617903703056,-1.64208190751912
-0.23589688566050215,-1.535015369663825
-0.6435604914187403,-1.364501994560899
-0.7687398051434164,-1.1384726368663765
-0.8141588481762636,-0.8648581512361728
-0.8141588481762636,-0.5634856743100894
-0.8252366635501293,-0.24625148807213937
-0.7798176205172819,0.06305184350985753
-0.7576619897695508,0.34459718379601517
-0.7343985774844347,0.5864882508024439
-0.7233207621105691,0.7728633352172375
-0.7122429467367035,0.8997570097124179
-0.700057349825453,0.9751001289439374
-0.6889795344515874,1.0028581202397757
-0.6889795344515874,0.9988926929117996
-0.7122429467367035,0.9711347016159613
-0.7454763928583003,0.9235495736802783
-0.8141588481762636,0.860102736432689
-0.8595778912091109,0.7768287625452136
-0.8473922942978603,0.6856239340018256
-0.7798176205172819,0.5904536781304202
-0.700057349825453,0.49131799493107986
-0.6214048606710092,0.40011316638765043
-0.5194889592314504,0.3049429105162863
-0.38323183013290896,0.21373808197285687
-0.2813159286933494,0.13442953541335945
-0.17829224571640326,0.04719013419794939
-0.08856194118809513,-0.047980121673456166
-0.030957301243997357,-0.09556524960913823
0.0022761448775993043,-0.11935781357695989
0.025539557162715436,-0.1788392234966127
0.03661737253658103,-0.24625148807213937
0.0709586001955627,-0.31762917997568363
0.1728745016351227,-0.389006871879227
0.26371258770081724,-0.4524537091268172
0.32020944610753,-0.5040042643904763
0.4221253475470878,-0.5476239649982227
0.45646657520607165,-0.5793473836219976
0.47862220595380056,-0.6031399475898589
0.43320316292095334,-0.6348633662136337
0.38778411988810607,-0.6784830668213793
0.3434728583926461,-0.7300336220850384
0.285868218448546,-0.7815841773486983
0.1839523170089883,-0.8371001599403345
0.10529982785454436,-0.8807198605480395
0.059880784821697106,-0.924339561155786
0.03661737253658103,-0.971924689091468
0.025539557162715436,-1.0234752443551272
0.014461741788849842,-1.0869220816027174
0.0022761448775993043,-1.1582997735062617
-0.008801670496266229,-1.229677465409805
-0.030957301243997357,-1.320882293953193
0.24044917541569874,-1.4239834044805526
0.9893094946889855,-1.5231190876798937
2.701939751488531,-1.590531352255461
3.0652920957513183,-1.634151052863166
3.0652920957513183,-1.6619090441590043
3.0652920957513183,-1.6698398988149583
3.0652920957513183,-1.646047334847097
1.3980808819846084,-1.5746696429435527
0.16179668626125715,-1.4477759684483733
-0.5416445899791806,-1.2455391747216726
-0.8363144789239947,-1.0036481077152428
-0.9271525649896892,-0.7339990494130154
-0.9271525649896892,-0.4127994358470883
-0.9049969342419582,-0.06384183098532287
-0.8817335219568421,0.2890812012043782
-0.8706557065829764,0.6142462420982823
-0.8473922942978603,0.8878607277284859
-0.8252366635501293,1.117855512751026
-0.8019732512650131,1.3081960244937956
-0.7798176205172819,1.4588822629567968
-0.7687398051434164,1.573879655468047
-0.7798176205172819,1.6412919200436125
-0.7908954358911475,1.6650844840114745
-0.8252366635501293,1.6571536293555205
-0.8817335219568421,1.6333610653876582
-0.961493792648671,1.6056030740918614
-0.9725716080225365,1.5540525188282024
-0.9382303803635524,1.470778544940727
-0.8817335219568421,1.3716428617413867
-0.7908954358911475,1.2685417512140271
-0.6779017190777219,1.161475213358731
-0.5305667746053155,1.0504432481754586
-0.4053874608806392,0.9394112829921865
-0.3034715594410796,0.8283793178088728
-0.21263347337538538,0.7252782072815546
-0.12179538730969093,0.6459696607220571
-0.05422071352911346,0.5785573961464899
0.014461741788849842,0.5071797042429466
0.059880784821697106,0.4318365850114667
0.10529982785454436,0.3564934657799454
0.1728745016351227,0.2811503465484241
0.2747904030746827,0.2058072273169046
0.2980538153597988,0.13442953541335945
0.3545506737665116,0.05908641618187959
0.38778411988810607,-0.016256703049640806
0.38778411988810607,-0.0915998222811612
0.3434728583926461,-0.1669429415126825
0.2980538153597988,-0.2303897787602727
0.25263477232695153,-0.28987118867988587
0.22937136004183548,-0.3572834532554522
0.1496110893500066,-0.4207302905030424
0.10529982785454436,-0.46831541843872443
0.047695187910446565,-0.5119351190464304
-0.019879485870131823,-0.5515893923261997
-0.07637634427684459,-0.5991745202618819
-0.04314289815524789,-0.662621357509472
-0.030957301243997357,-0.7300336220850384
-0.06529852890297902,-0.8093421686444962
-0.08856194118809513,-0.8886507152039936
0.0709586001955627,-0.963993834435514
0.6492205627113239,-1.0393369536670354
2.2023302781272163,-1.0948529362586714
3.0652920957513183,-1.1503689188503075
3.0652920957513183,-1.2058849014419437
3.0652920957513183,-1.2455391747216726
3.0652920957513183,-1.2455391747216726
1.4545777403913214,-1.1900231921300364
0.19503013238285383,-1.067094944962833
-0.5305667746053155,-0.8767544332200625
-0.8252366635501293,-0.6229670842297026
-0.9271525649896892,-0.31762917997568363
-1.0179906510553838,0.01943214290211106
-1.006912835681518,0.320804619828153
-0.9271525649896892,0.5904536781304202
-0.8928113373307075,0.8878607277284859
-0.8706557065829764,1.1773369226706392
-0.8928113373307075,1.4231934170050458
-0.8363144789239947,1.6016376467638853
-0.8141588481762636,1.7206004666031098
-0.8473922942978603,1.788012731178677
-0.8019732512650131,1.8237015771304297
-0.7343985774844347,1.831632431786384
-0.8252366635501293,1.8237015771304297
-0.9725716080225365,1.8118052951465393
-1.0290684664292469,1.788012731178677
-0.9504159772748053,1.7562893125548626
-0.8817335219568421,1.7047387572912034
-0.9504159772748053,1.6214647834037694
-0.8141588481762636,1.522329100204386
-0.5870636330120275,1.4192279896770679
-0.3034715594410796,1.3081960244937956
-0.23589688566050215,1.1892332046545693
-0.35996841784779193,1.062339530159389
-0.22371128874925048,0.9235495736802783
-0.07637634427684459,0.7887250445291456
-0.05422071352911346,0.6657967973619414
0.059880784821697106,0.538903122866761
-0.12179538730969093,0.43976743966742077
0.014461741788849842,0.3525280384519693
0.09311423094329382,0.26132320990853986
0.19503013238285383,0.17804923602110592
0.2747904030746827,0.09874068946160848
0.33128726148139326,0.02339757023008809
0.38778411988810607,-0.0519455490014332
0.21829354466796994,-0.12728866823291307
0.3434728583926461,-0.20263178746443436
0.4110475321732244,-0.27797490669595476
0.22937136004183548,-0.35331802592747513
0.025539557162715436,-0.41676486317506534
-0.008801670496266229,-0.46831541843872443
-0.030957301243997357,-0.5000388370624993
-0.13287320268355624,-0.5277968283583376
-0.06529852890297902,-0.5674511016380664
-0.019879485870131823,-0.6269325115576796
-0.17829224571640326,-0.6824484941493157
-0.13287320268355624,-0.749860758724883
-0.09963975656196068,-0.8212384506284264
-0.15613661496867304,-0.8926161425319706
-0.05422071352911346,-0.967959261763491
0.4221253475470878,-1.0393369536670354
1.487811186512918,-1.1345072095383995
3.0652920957513183,-1.237608320065759
3.0652920957513183,-1.316916866625216
3.0652920957513183,-1.364501994560899
3.0652920957513183,-1.4081216951686444
2.2710127334451795,-1.4398451137924193
0.6713761934590551,-1.4358796864644423
-0.2813159286933494,-1.376398276544829
-0.7454763928583003,-1.237608320065759
-0.8141588481762636,-1.0076135350432198
-0.7576619897695508,-0.7141719127731312
-0.8595778912091109,-0.38107601722327294
-0.8252366635501293,-0.028152985033571904
-0.8595778912091109,0.3049429105162863
-0.8141588481762636,0.594419105458398
-0.7908954358911475,0.812517608497006
-0.700057349825453,0.9711347016159613
-0.6668239037038562,1.0940629487831637
-0.6668239037038562,1.1852677773265932
-0.7233207621105691,1.2487146145741825
-0.7454763928583003,1.2923343151818876
-0.7122429467367035,1.3042305971658195
-0.7798176205172819,1.2883688878539112
-0.8363144789239947,1.2645763238860492
-0.8706557065829764,1.2209566232783442
-0.8141588481762636,1.153544358702777
-0.7908954358911475,1.0663049574873669
-0.7122429467367035,0.9751001289439374
-0.5759858176381619,0.8719990184166192
-0.49622554694633364,0.7451053439214388
-0.35996841784779193,0.6102808147703062
-0.23589688566050215,0.46752543096321764
-0.1450587995948079,0.3366663291400611
-0.08856194118809513,0.22563436395678887
-0.008801670496266229,0.11460239877351662
0.047695187910446565,0.011501288246156992
0.059880784821697106,-0.09556524960913823
0.047695187910446565,-0.2065972147924114
0.08203641556942823,-0.3057328979917525
0.1496110893500066,-0.4009031538631581
0.26371258770081724,-0.46831541843872443
0.33128726148139326,-0.5119351190464304
0.4110475321732244,-0.5595202469821124
0.4453887598322061,-0.6110708022458129
0.45646657520607165,-0.658655930181495
0.43320316292095334,-0.7102064854451541
0.36562848914037716,-0.7736533226927443
0.33128726148139326,-0.8410655872683115
0.2747904030746827,-0.9124432791718549
0.1728745016351227,-0.9838209710753991
0.08203641556942823,-1.059164090306879
0.047695187910446565,-1.1226109275544691
0.03661737253658103,-1.1741614828181688
0.047695187910446565,-1.2177811834258747
0.025539557162715436,-1.2693317386895338
0.0022761448775993043,-1.332778575937124
-0.008801670496266229,-1.4120871224966214
-0.08856194118809513,-1.4953610963840553
0.138533273976141,-1.5667387882875996
0.8187111379314622,-1.630185625535189
2.452688905576573,-1.7015633174387332
3.0652920957513183,-1.7650101546863235
3.0652920957513183,-1.8046644279660513
3.0652920957513183,-1.8165607099499825
3.0652920957513183,-1.7927681459821618
1.6240683156114597,-1.7451830180464383
0.2747904030746827,-1.6619090441590043
-0.4397286885396213,-1.5270845150078707
-0.7798176205172819,-1.328813148609147
-0.8706557065829764,-1.07106037229081
-0.8817335219568421,-0.7657224680367902
-0.8706557065829764,-0.42866114515895587
-0.8595778912091109,-0.07177268564127694
-0.8252366635501293,0.26528863723651774
-0.8019732512650131,0.5468339775227151
-0.7798176205172819,0.7728633352172375
-0.7687398051434164,0.9394112829921865
-0.7576619897695508,1.0425123935195046
-0.7576619897695508,1.1019938034391177
-0.7454763928583003,1.1337172220628926
-0.7454763928583003,1.129751794734956
-0.7798176205172819,1.109924658095072
-0.8363144789239947,1.0821666667992336
-0.8928113373307075,1.0385469661915285
-0.9271525649896892,0.9433767103201229
-0.9049969342419582,0.8402755997928048
-0.8473922942978603,0.7688979078892596
-0.7687398051434164,0.6935547886577798
-0.6546383067926059,0.6023499601143522
-0.5416445899791806,0.5071797042429466
-0.4164652762545043,0.4318365850114667
-0.2813159286933494,0.3564934657799454
-0.19047784262765494,0.2811503465484241
-0.1107175719358258,0.19787637266095054
-0.030957301243997357,0.11063697144553868
0.025539557162715436,0.011501288246156992
0.047695187910446565,-0.09556524960913823
0.08203641556942823,-0.19470093280848028
0.1728745016351227,-0.29383661600786287
0.26371258770081724,-0.3771105898952968
0.33128726148139326,-0.44848828179884015
0.3999697167993589,-0.5000388370624993
0.43320316292095334,-0.5357276830142916
0.4453887598322061,-0.5634856743100894
0.4110475321732244,-0.5952090929339048
0.37670630451424053,-0.6308979388856567
0.33128726148139326,-0.666586784837449
0.26371258770081724,-0.7022756307892001
0.16179668626125715,-0.7419299040689289
0.08203641556942823,-0.7776187500207213
0.03661737253658103,-0.8133075959724732
0.025539557162715436,-0.8608927239081958
-0.008801670496266229,-0.9045124245159009
-0.019879485870131823,-0.9402012704676527
-0.019879485870131823,-0.9758901164194451
-0.008801670496266229,-1.011578962371197
-0.019879485870131823,-1.067094944962833
0.21829354466796994,-1.1226109275544691
0.87631577787556,-1.1701960554901918
2.543526991642258,-1.2098503287699207
3.0652920957513183,-1.2574354567056027
3.0652920957513183,-1.3089860119692618
3.0652920957513183,-1.3526057125770083
3.0652920957513183,-1.372432849216852
1.5221524141718996,-1.3486402852490313
0.19503013238285383,-1.273297166017511
-0.5527224053530458,-1.1265763548824461
-0.8595778912091109,-0.9362358431396757
-0.9271525649896892,-0.7062410581171771
-0.9504159772748053,-0.4127994358470883
-0.9504159772748053,-0.08763439495318506
-0.9271525649896892,0.24546150059667313
-0.9049969342419582,0.5626956868346232
-0.8706557065829764,0.8561373091047111
-0.8706557065829764,1.109924658095072
-0.8473922942978603,1.3200923064776862
-0.8252366635501293,1.4866402542526351
-0.7908954358911475,1.6056030740918614
-0.7908954358911475,1.6849116206513588
-0.8141588481762636,1.7324967485870417
-0.8473922942978603,1.7562893125548626
-0.9049969342419582,1.7602547398828388
-0.9836494233963997,1.744393030570972
-0.9958350203076525,1.7166350392751337
-0.9725716080225365,1.6769807659954048
-0.9160747496158237,1.6095685014198375
-0.8141588481762636,1.522329100204386
-0.7122429467367035,1.4271588443330219
-0.5759858176381619,1.3240577338056623
-0.4397286885396213,1.2209566232783442
-0.3034715594410796,1.113890085423048
-0.19047784262765494,1.0068235475677123
-0.09963975656196068,0.907687864368372
-0.019879485870131823,0.812517608497006
0.03661737253658103,0.7213127799535785
0.08203641556942823,0.642004233394081
0.138533273976141,0.5666611141625993
0.16179668626125715,0.49131799493107986
0.25263477232695153,0.4199403030275347
0.30913163073366434,0.34459718379601517
0.3545506737665116,0.27321949189247
0.38778411988810607,0.20184179998892668
0.37670630451424053,0.13046410808542294
0.3545506737665116,0.05908641618187959
0.30913163073366434,-0.004360421065709706
0.285868218448546,-0.06384183098532287
0.24044917541569874,-0.12728866823291307
0.1496110893500066,-0.19470093280848028
0.025539557162715436,-0.26607862471202365
0.025539557162715436,-0.3374563166155679
-0.008801670496266229,-0.4009031538631581
-0.030957301243997357,-0.44848828179884015
-0.06529852890297902,-0.4921079824065461
-0.09963975656196068,-0.5317622556863146
-0.06529852890297902,-0.5674511016380664
-0.05422071352911346,-0.6229670842297026
-0.13287320268355624,-0.7022756307892001
0.5018856182389189,-0.7776187500207213
1.6019126848637286,-0.8529618692522417
3.0652920957513183,-0.9322704158116986
3.0652920957513183,-0.9996826803872658
3.0652920957513183,-1.0512332356509655
3.0652920957513183,-1.0869220816027174
1.9874206598742283,-1.0789912269467632
0.5583824766456295,-1.0036481077152428
-0.3710462332216573,-0.8489964419242647
-0.8473922942978603,-0.6190016569017256
-0.9836494233963997,-0.33349088928759085
-0.9958350203076525,-0.012291275721663771
-0.961493792648671,0.2811503465484241
-0.8363144789239947,0.5547648321786691
-0.9504159772748053,0.8442410271207809
-0.9725716080225365,1.121820940079002
-0.8595778912091109,1.3716428617413867
-0.8706557065829764,1.577845082796023
-0.8019732512650131,1.7324967485870417
-0.7687398051434164,1.83559785911436
-0.8141588481762636,1.8990446963619492
-0.8363144789239947,1.9307681149857656
-0.8817335219568421,1.9268026876577875
-0.9725716080225365,1.891113841705997
-0.961493792648671,1.843528713770314
-0.8817335219568421,1.803874440490585
-0.7908954358911475,1.74835845789895
-0.8252366635501293,1.6650844840114745
-0.7454763928583003,1.569914228140069
-0.6668239037038562,1.4668131176127508
-0.6092192637597587,1.3637120070854327
-0.4618843192873516,1.2566454692301365
-0.2813159286933494,1.1416480767188466
-0.12179538730969093,1.0187198295516442
-0.21263347337538538,0.89579158238444
-0.17829224571640326,0.7530361985773929
0.03661737253658103,0.6380388060661031
0.1496110893500066,0.5626956868346232
0.03661737253658103,0.49131799493107986
-0.030957301243997357,0.4199403030275347
0.20721572929410434,0.34459718379601517
0.36562848914037716,0.27321949189247
0.22937136004183548,0.20184179998892668
0.32020944610753,0.13046410808542294
0.4110475321732244,0.05908641618187959
0.4221253475470878,-0.012291275721663771
0.32020944610753,-0.08366896762520803
0.21829354466796994,-0.17487379616863655
0.26371258770081724,-0.2740094793679777
0.1839523170089883,-0.3691797352393427
0.025539557162715436,-0.4405574271428861
0.059880784821697106,-0.4881425550786096
-0.06529852890297902,-0.5277968283583376
-0.13287320268355624,-0.5753819562940206
-0.04314289815524789,-0.6269325115576796
-0.07637634427684459,-0.6784830668213793
-0.05422071352911346,-0.7379644767409924
-0.13287320268355624,-0.8133075959724732
0.014461741788849842,-0.9045124245159009
0.22937136004183548,-1.0036481077152428
1.0458063530956985,-1.1107146455705785
2.7584366098952464,-1.2058849014419437
3.0652920957513183,-1.273297166017511
3.0652920957513183,-1.32484772128117
3.0652920957513183,-1.376398276544829
2.781700022180367,-1.4120871224966214
0.9782316793151202,-1.4120871224966214
-0.1107175719358258,-1.3565711399049853
-0.6435604914187403,-1.2415737473936954
-0.8141588481762636,-1.0551986629789019
-0.8706557065829764,-0.8133075959724732
-0.8019732512650131,-0.5198659737023844
-0.7343985774844347,-0.19470093280848028
-0.9382303803635524,0.14632581739729145
-0.8019732512650131,0.46752543096321764
-0.7576619897695508,0.7213127799535785
-0.6779017190777219,0.9195841463523021
-0.8019732512650131,1.0900975214551876
-0.7343985774844347,1.2209566232783442
-0.6668239037038562,1.3121614518217735
-0.7576619897695508,1.3676774344134088
-0.8252366635501293,1.3835391437252755
-0.8141588481762636,1.3756082890693628
-0.7687398051434164,1.3518157251015006
-0.8595778912091109,1.3042305971658195
-0.8141588481762636,1.2288874779342982
-0.7454763928583003,1.1376826493908705
-0.7798176205172819,1.0464778208474825
-0.6668239037038562,0.9552729923040532
-0.5305667746053155,0.8561373091047111
-0.4164652762545043,0.7609670532333073
-0.21263347337538538,0.6618313700339653
0.047695187910446565,0.538903122866761
0.11637764322840989,0.4040785937156284
0.1496110893500066,0.26528863723651774
0.03661737253658103,0.1264986807574468
-0.07637634427684459,-0.04401469434547914
-0.1450587995948079,-0.19073550548050325
-0.12179538730969093,-0.28194033402393176
-0.19047784262765494,-0.35331802592747513
0.0022761448775993043,-0.39693772653518106
0.1728745016351227,-0.4207302905030424
0.2747904030746827,-0.4326265724869329
0.3434728583926461,-0.43659199981491
0.4110475321732244,-0.4405574271428861
0.47862220595380056,-0.4405574271428861
0.4908078028650534,-0.4405574271428861
