ECG,PPG
0.1297357480179826,0.1297357480179826
0.1297357480179826,0.1297357480179826
0.1297357480179826,0.1297357480179826
0.1297357480179826,0.1297357480179826
0.16874288565954443,0.16874288565954443
0.1297357480179826,0.1297357480179826
0.10373098959027474,0.10373098959027474
0.16874288565954443,0.16874288565954443
0.1297357480179826,0.1297357480179826
0.10373098959027474,0.10373098959027474
0.03871909352100504,0.03871909352100504
-0.000288044120556775,-0.000288044120556775
-0.000288044120556775,-0.000288044120556775
0.10373098959027474,0.10373098959027474
-0.000288044120556775,-0.000288044120556775
0.06472385194871291,0.06472385194871291
0.10373098959027474,0.10373098959027474
0.1297357480179826,0.1297357480179826
0.33777381543964563,0.33777381543964563
0.8318642255660953,0.8318642255660953
1.2349379811955674,1.2349379811955674
0.870871363207657,0.870871363207657
0.2727619193703759,0.2727619193703759
-1.235514069436681,-1.235514069436681
-2.665775782960614,-2.665775782960614
-4.083035117270693,-4.083035117270693
-4.083035117270693,-4.083035117270693
-3.2898899852256034,-3.2898899852256034
-1.9636473054125017,-1.9636473054125017
-1.1965069317951191,-1.1965069317951191
-0.7284212800963773,-0.7284212800963773
-0.4033617997500289,-0.4033617997500289
-0.16931897390065798,-0.16931897390065798
-0.026292802548264653,-0.026292802548264653
0.19474764408725231,0.19474764408725231
0.2987666777980838,0.2987666777980838
0.33777381543964563,0.33777381543964563
0.2987666777980838,0.2987666777980838
0.2987666777980838,0.2987666777980838
0.33777381543964563,0.33777381543964563
0.2987666777980838,0.2987666777980838
0.3637785738673535,0.3637785738673535
0.2987666777980838,0.2987666777980838
0.3637785738673535,0.3637785738673535
0.33777381543964563,0.33777381543964563
0.2987666777980838,0.2987666777980838
0.33777381543964563,0.33777381543964563
0.2727619193703759,0.2727619193703759
0.2727619193703759,0.2727619193703759
0.4287904699366232,0.4287904699366232
0.40278571150891535,0.40278571150891535
0.4938023660058929,0.4938023660058929
0.4938023660058929,0.4938023660058929
0.6628332957859941,0.6628332957859941
0.7018404334275559,0.7018404334275559
0.7928570879245335,0.7928570879245335
0.870871363207657,0.870871363207657
0.8968761216353649,0.8968761216353649
0.870871363207657,0.870871363207657
0.7928570879245335,0.7928570879245335
0.5978213997167244,0.5978213997167244
0.5328095036474547,0.5328095036474547
0.3637785738673535,0.3637785738673535
0.2987666777980838,0.2987666777980838
0.19474764408725231,0.19474764408725231
0.10373098959027474,0.10373098959027474
0.1297357480179826,0.1297357480179826
-0.000288044120556775,-0.000288044120556775
0.10373098959027474,0.10373098959027474
0.1297357480179826,0.1297357480179826
0.10373098959027474,0.10373098959027474
-0.000288044120556775,-0.000288044120556775
0.03871909352100504,0.03871909352100504
0.06472385194871291,0.06472385194871291
0.10373098959027474,0.10373098959027474
-0.026292802548264653,-0.026292802548264653
-0.06529994018982647,-0.06529994018982647
-0.10430707783138829,-0.10430707783138829
-0.13031183625909618,-0.13031183625909618
-0.16931897390065798,-0.16931897390065798
-0.10430707783138829,-0.10430707783138829
-0.19532373232836586,-0.19532373232836586
-0.19532373232836586,-0.19532373232836586
-0.10430707783138829,-0.10430707783138829
-0.10430707783138829,-0.10430707783138829
-0.10430707783138829,-0.10430707783138829
-0.06529994018982647,-0.06529994018982647
-0.06529994018982647,-0.06529994018982647
-0.026292802548264653,-0.026292802548264653
-0.06529994018982647,-0.06529994018982647
-0.026292802548264653,-0.026292802548264653
-0.026292802548264653,-0.026292802548264653
-0.026292802548264653,-0.026292802548264653
-0.026292802548264653,-0.026292802548264653
-0.026292802548264653,-0.026292802548264653
-0.10430707783138829,-0.10430707783138829
-0.026292802548264653,-0.026292802548264653
-0.026292802548264653,-0.026292802548264653
-0.026292802548264653,-0.026292802548264653
-0.16931897390065798,-0.16931897390065798
-0.19532373232836586,-0.19532373232836586
-0.19532373232836586,-0.19532373232836586
-0.10430707783138829,-0.10430707783138829
-0.13031183625909618,-0.13031183625909618
-0.10430707783138829,-0.10430707783138829
-0.026292802548264653,-0.026292802548264653
-0.10430707783138829,-0.10430707783138829
-0.10430707783138829,-0.10430707783138829
-0.13031183625909618,-0.13031183625909618
-0.026292802548264653,-0.026292802548264653
-0.06529994018982647,-0.06529994018982647
-0.026292802548264653,-0.026292802548264653
-0.026292802548264653,-0.026292802548264653
0.23375478172881411,0.23375478172881411
0.7018404334275559,0.7018404334275559
1.065907051415466,1.065907051415466
0.5978213997167244,0.5978213997167244
-0.000288044120556775,-0.000288044120556775
-1.7946163756324005,-1.7946163756324005
-3.4849256734334126,-3.4849256734334126
-4.083035117270693,-4.083035117270693
-4.083035117270693,-4.083035117270693
-2.964830504879255,-2.964830504879255
-1.664592583493861,-1.664592583493861
-1.00147124358731,-1.00147124358731
-0.6374046255993998,-0.6374046255993998
-0.4033617997500289,-0.4033617997500289
-0.19532373232836586,-0.19532373232836586
0.03871909352100504,0.03871909352100504
0.16874288565954443,0.16874288565954443
0.2727619193703759,0.2727619193703759
0.23375478172881411,0.23375478172881411
0.2727619193703759,0.2727619193703759
0.33777381543964563,0.33777381543964563
0.40278571150891535,0.40278571150891535
0.33777381543964563,0.33777381543964563
0.40278571150891535,0.40278571150891535
0.40278571150891535,0.40278571150891535
0.3637785738673535,0.3637785738673535
0.33777381543964563,0.33777381543964563
0.3637785738673535,0.3637785738673535
0.33777381543964563,0.33777381543964563
0.3637785738673535,0.3637785738673535
0.40278571150891535,0.40278571150891535
0.4287904699366232,0.4287904699366232
0.467797607578185,0.467797607578185
0.4938023660058929,0.4938023660058929
0.5978213997167244,0.5978213997167244
0.7018404334275559,0.7018404334275559
0.7278451918552638,0.7278451918552638
0.7928570879245335,0.7928570879245335
0.870871363207657,0.870871363207657
0.8968761216353649,0.8968761216353649
0.9358832592769267,0.9358832592769267
0.8318642255660953,0.8318642255660953
0.7278451918552638,0.7278451918552638
0.5978213997167244,0.5978213997167244
0.5978213997167244,0.5978213997167244
0.4287904699366232,0.4287904699366232
0.33777381543964563,0.33777381543964563
0.23375478172881411,0.23375478172881411
0.16874288565954443,0.16874288565954443
0.2727619193703759,0.2727619193703759
0.23375478172881411,0.23375478172881411
0.19474764408725231,0.19474764408725231
0.19474764408725231,0.19474764408725231
0.23375478172881411,0.23375478172881411
0.19474764408725231,0.19474764408725231
0.16874288565954443,0.16874288565954443
0.1297357480179826,0.1297357480179826
0.16874288565954443,0.16874288565954443
0.16874288565954443,0.16874288565954443
0.1297357480179826,0.1297357480179826
0.1297357480179826,0.1297357480179826
0.1297357480179826,0.1297357480179826
0.06472385194871291,0.06472385194871291
0.03871909352100504,0.03871909352100504
-0.000288044120556775,-0.000288044120556775
0.1297357480179826,0.1297357480179826
0.10373098959027474,0.10373098959027474
0.06472385194871291,0.06472385194871291
0.10373098959027474,0.10373098959027474
0.06472385194871291,0.06472385194871291
0.1297357480179826,0.1297357480179826
0.06472385194871291,0.06472385194871291
0.03871909352100504,0.03871909352100504
0.10373098959027474,0.10373098959027474
-0.000288044120556775,-0.000288044120556775
-0.026292802548264653,-0.026292802548264653
-0.026292802548264653,-0.026292802548264653
-0.000288044120556775,-0.000288044120556775
-0.026292802548264653,-0.026292802548264653
0.03871909352100504,0.03871909352100504
-0.026292802548264653,-0.026292802548264653
0.03871909352100504,0.03871909352100504
-0.026292802548264653,-0.026292802548264653
-0.026292802548264653,-0.026292802548264653
-0.000288044120556775,-0.000288044120556775
-0.026292802548264653,-0.026292802548264653
0.03871909352100504,0.03871909352100504
-0.06529994018982647,-0.06529994018982647
-0.000288044120556775,-0.000288044120556775
-0.026292802548264653,-0.026292802548264653
0.10373098959027474,0.10373098959027474
0.2727619193703759,0.2727619193703759
0.6628332957859941,0.6628332957859941
1.065907051415466,1.065907051415466
0.6368285373582863,0.6368285373582863
-0.000288044120556775,-0.000288044120556775
-1.6255854458522991,-1.6255854458522991
-3.2898899852256034,-3.2898899852256034
-4.083035117270693,-4.083035117270693
-4.083035117270693,-4.083035117270693
-3.094854297017794,-3.094854297017794
-1.7556092379908386,-1.7556092379908386
-1.00147124358731,-1.00147124358731
-0.6634093840271077,-0.6634093840271077
-0.4293665581777368,-0.4293665581777368
-0.23433086996992766,-0.23433086996992766
-0.000288044120556775,-0.000288044120556775
0.16874288565954443,0.16874288565954443
0.2727619193703759,0.2727619193703759
0.3637785738673535,0.3637785738673535
0.3637785738673535,0.3637785738673535
0.40278571150891535,0.40278571150891535
0.33777381543964563,0.33777381543964563
0.3637785738673535,0.3637785738673535
0.33777381543964563,0.33777381543964563
0.3637785738673535,0.3637785738673535
0.40278571150891535,0.40278571150891535
0.40278571150891535,0.40278571150891535
0.4287904699366232,0.4287904699366232
0.4287904699366232,0.4287904699366232
0.40278571150891535,0.40278571150891535
0.4938023660058929,0.4938023660058929
0.467797607578185,0.467797607578185
0.5328095036474547,0.5328095036474547
0.5978213997167244,0.5978213997167244
0.5978213997167244,0.5978213997167244
0.5978213997167244,0.5978213997167244
0.7278451918552638,0.7278451918552638
0.7278451918552638,0.7278451918552638
0.8318642255660953,0.8318642255660953
0.8968761216353649,0.8968761216353649
0.8968761216353649,0.8968761216353649
0.7928570879245335,0.7928570879245335
0.6368285373582863,0.6368285373582863
0.5978213997167244,0.5978213997167244
0.4938023660058929,0.4938023660058929
0.40278571150891535,0.40278571150891535
0.33777381543964563,0.33777381543964563
0.23375478172881411,0.23375478172881411
0.1297357480179826,0.1297357480179826
0.1297357480179826,0.1297357480179826
0.06472385194871291,0.06472385194871291
0.06472385194871291,0.06472385194871291
0.03871909352100504,0.03871909352100504
0.10373098959027474,0.10373098959027474
0.06472385194871291,0.06472385194871291
0.10373098959027474,0.10373098959027474
0.10373098959027474,0.10373098959027474
0.1297357480179826,0.1297357480179826
0.06472385194871291,0.06472385194871291
0.10373098959027474,0.10373098959027474
0.10373098959027474,0.10373098959027474
0.06472385194871291,0.06472385194871291
0.1297357480179826,0.1297357480179826
0.03871909352100504,0.03871909352100504
0.10373098959027474,0.10373098959027474
-0.026292802548264653,-0.026292802548264653
-0.026292802548264653,-0.026292802548264653
-0.026292802548264653,-0.026292802548264653
-0.000288044120556775,-0.000288044120556775
-0.026292802548264653,-0.026292802548264653
-0.026292802548264653,-0.026292802548264653
-0.026292802548264653,-0.026292802548264653
-0.000288044120556775,-0.000288044120556775
-0.026292802548264653,-0.026292802548264653
-0.000288044120556775,-0.000288044120556775
-0.06529994018982647,-0.06529994018982647
-0.026292802548264653,-0.026292802548264653
-0.026292802548264653,-0.026292802548264653
-0.026292802548264653,-0.026292802548264653
-0.026292802548264653,-0.026292802548264653
-0.06529994018982647,-0.06529994018982647
-0.10430707783138829,-0.10430707783138829
-0.10430707783138829,-0.10430707783138829
-0.13031183625909618,-0.13031183625909618
-0.16931897390065798,-0.16931897390065798
-0.06529994018982647,-0.06529994018982647
-0.13031183625909618,-0.13031183625909618
-0.10430707783138829,-0.10430707783138829
-0.10430707783138829,-0.10430707783138829
-0.16931897390065798,-0.16931897390065798
-0.10430707783138829,-0.10430707783138829
-0.16931897390065798,-0.16931897390065798
-0.13031183625909618,-0.13031183625909618
-0.026292802548264653,-0.026292802548264653
-0.026292802548264653,-0.026292802548264653
0.03871909352100504,0.03871909352100504
0.3637785738673535,0.3637785738673535
0.7928570879245335,0.7928570879245335
1.1309189474847359,1.1309189474847359
0.7018404334275559,0.7018404334275559
0.06472385194871291,0.06472385194871291
-1.5345687913553216,-1.5345687913553216
-2.9908352633069626,-2.9908352633069626
-4.083035117270693,-4.083035117270693
-4.083035117270693,-4.083035117270693
-2.964830504879255,-2.964830504879255
-1.664592583493861,-1.664592583493861
-1.027476002015018,-1.027476002015018
-0.7024165216686694,-0.7024165216686694
-0.4033617997500289,-0.4033617997500289
-0.19532373232836586,-0.19532373232836586
-0.026292802548264653,-0.026292802548264653
0.10373098959027474,0.10373098959027474
0.19474764408725231,0.19474764408725231
0.2727619193703759,0.2727619193703759
0.2727619193703759,0.2727619193703759
0.2987666777980838,0.2987666777980838
0.2727619193703759,0.2727619193703759
0.2727619193703759,0.2727619193703759
0.2727619193703759,0.2727619193703759
0.2987666777980838,0.2987666777980838
0.2987666777980838,0.2987666777980838
0.2727619193703759,0.2727619193703759
0.2987666777980838,0.2987666777980838
0.33777381543964563,0.33777381543964563
0.3637785738673535,0.3637785738673535
0.40278571150891535,0.40278571150891535
0.3637785738673535,0.3637785738673535
0.467797607578185,0.467797607578185
0.5328095036474547,0.5328095036474547
0.4938023660058929,0.4938023660058929
0.5328095036474547,0.5328095036474547
0.7018404334275559,0.7018404334275559
0.6628332957859941,0.6628332957859941
0.7278451918552638,0.7278451918552638
0.7668523294968256,0.7668523294968256
0.8318642255660953,0.8318642255660953
0.7018404334275559,0.7018404334275559
0.6628332957859941,0.6628332957859941
0.5328095036474547,0.5328095036474547
0.4287904699366232,0.4287904699366232
0.3637785738673535,0.3637785738673535
0.23375478172881411,0.23375478172881411
0.03871909352100504,0.03871909352100504
-0.000288044120556775,-0.000288044120556775
-0.000288044120556775,-0.000288044120556775
-0.000288044120556775,-0.000288044120556775
-0.026292802548264653,-0.026292802548264653
-0.026292802548264653,-0.026292802548264653
-0.026292802548264653,-0.026292802548264653
0.03871909352100504,0.03871909352100504
0.1297357480179826,0.1297357480179826
0.1297357480179826,0.1297357480179826
0.10373098959027474,0.10373098959027474
0.03871909352100504,0.03871909352100504
0.06472385194871291,0.06472385194871291
0.10373098959027474,0.10373098959027474
0.10373098959027474,0.10373098959027474
0.03871909352100504,0.03871909352100504
-0.026292802548264653,-0.026292802548264653
-0.026292802548264653,-0.026292802548264653
-0.10430707783138829,-0.10430707783138829
-0.06529994018982647,-0.06529994018982647
-0.10430707783138829,-0.10430707783138829
-0.16931897390065798,-0.16931897390065798
-0.16931897390065798,-0.16931897390065798
-0.19532373232836586,-0.19532373232836586
-0.16931897390065798,-0.16931897390065798
-0.13031183625909618,-0.13031183625909618
-0.16931897390065798,-0.16931897390065798
-0.06529994018982647,-0.06529994018982647
-0.06529994018982647,-0.06529994018982647
-0.026292802548264653,-0.026292802548264653
-0.10430707783138829,-0.10430707783138829
-0.000288044120556775,-0.000288044120556775
-0.06529994018982647,-0.06529994018982647
-0.10430707783138829,-0.10430707783138829
-0.10430707783138829,-0.10430707783138829
-0.06529994018982647,-0.06529994018982647
-0.13031183625909618,-0.13031183625909618
-0.16931897390065798,-0.16931897390065798
-0.13031183625909618,-0.13031183625909618
-0.10430707783138829,-0.10430707783138829
-0.10430707783138829,-0.10430707783138829
0.06472385194871291,0.06472385194871291
0.4287904699366232,0.4287904699366232
0.9618880177046346,0.9618880177046346
1.065907051415466,1.065907051415466
0.1297357480179826,0.1297357480179826
-0.9624641059457484,-0.9624641059457484
-2.4317329571112434,-2.4317329571112434
-4.083035117270693,-4.083035117270693
-4.083035117270693,-4.083035117270693
-3.6279518447858057,-3.6279518447858057
-2.2627020273311422,-2.2627020273311422
-1.235514069436681,-1.235514069436681
-0.8584450722349168,-0.8584450722349168
-0.5593903503162762,-0.5593903503162762
-0.3383499036807592,-0.3383499036807592
-0.13031183625909618,-0.13031183625909618
0.03871909352100504,0.03871909352100504
0.16874288565954443,0.16874288565954443
0.19474764408725231,0.19474764408725231
0.1297357480179826,0.1297357480179826
0.1297357480179826,0.1297357480179826
0.1297357480179826,0.1297357480179826
0.1297357480179826,0.1297357480179826
0.1297357480179826,0.1297357480179826
0.10373098959027474,0.10373098959027474
0.23375478172881411,0.23375478172881411
0.2727619193703759,0.2727619193703759
0.2987666777980838,0.2987666777980838
0.2727619193703759,0.2727619193703759
0.33777381543964563,0.33777381543964563
0.2987666777980838,0.2987666777980838
0.40278571150891535,0.40278571150891535
0.40278571150891535,0.40278571150891535
0.3637785738673535,0.3637785738673535
0.4287904699366232,0.4287904699366232
0.4938023660058929,0.4938023660058929
0.5978213997167244,0.5978213997167244
0.6368285373582863,0.6368285373582863
0.5978213997167244,0.5978213997167244
0.6368285373582863,0.6368285373582863
0.7278451918552638,0.7278451918552638
0.7018404334275559,0.7018404334275559
0.6368285373582863,0.6368285373582863
0.5328095036474547,0.5328095036474547
0.4287904699366232,0.4287904699366232
0.33777381543964563,0.33777381543964563
0.23375478172881411,0.23375478172881411
0.1297357480179826,0.1297357480179826
0.10373098959027474,0.10373098959027474
0.06472385194871291,0.06472385194871291
0.06472385194871291,0.06472385194871291
-0.026292802548264653,-0.026292802548264653
0.03871909352100504,0.03871909352100504
0.10373098959027474,0.10373098959027474
0.1297357480179826,0.1297357480179826
0.03871909352100504,0.03871909352100504
-0.026292802548264653,-0.026292802548264653
0.06472385194871291,0.06472385194871291
0.03871909352100504,0.03871909352100504
0.06472385194871291,0.06472385194871291
0.10373098959027474,0.10373098959027474
0.06472385194871291,0.06472385194871291
0.06472385194871291,0.06472385194871291
-0.000288044120556775,-0.000288044120556775
0.06472385194871291,0.06472385194871291
-0.000288044120556775,-0.000288044120556775
-0.000288044120556775,-0.000288044120556775
-0.026292802548264653,-0.026292802548264653
-0.13031183625909618,-0.13031183625909618
-0.026292802548264653,-0.026292802548264653
-0.026292802548264653,-0.026292802548264653
-0.026292802548264653,-0.026292802548264653
-0.026292802548264653,-0.026292802548264653
-0.10430707783138829,-0.10430707783138829
-0.13031183625909618,-0.13031183625909618
-0.10430707783138829,-0.10430707783138829
-0.16931897390065798,-0.16931897390065798
-0.026292802548264653,-0.026292802548264653
-0.026292802548264653,-0.026292802548264653
0.03871909352100504,0.03871909352100504
0.03871909352100504,0.03871909352100504
0.1297357480179826,0.1297357480179826
0.10373098959027474,0.10373098959027474
0.2727619193703759,0.2727619193703759
0.7018404334275559,0.7018404334275559
1.1309189474847359,1.1309189474847359
1.1699260851262976,1.1699260851262976
0.06472385194871291,0.06472385194871291
-1.3655378615752205,-1.3655378615752205
-2.925823367237693,-2.925823367237693
-4.083035117270693,-4.083035117270693
-4.083035117270693,-4.083035117270693
-3.354901881294873,-3.354901881294873
-1.8986354093432318,-1.8986354093432318
-1.06648313965658,-1.06648313965658
-0.6634093840271077,-0.6634093840271077
-0.4293665581777368,-0.4293665581777368
-0.23433086996992766,-0.23433086996992766
-0.000288044120556775,-0.000288044120556775
0.2727619193703759,0.2727619193703759
0.33777381543964563,0.33777381543964563
0.2987666777980838,0.2987666777980838
0.3637785738673535,0.3637785738673535
0.40278571150891535,0.40278571150891535
0.4287904699366232,0.4287904699366232
0.40278571150891535,0.40278571150891535
0.4287904699366232,0.4287904699366232
0.4287904699366232,0.4287904699366232
0.467797607578185,0.467797607578185
0.4938023660058929,0.4938023660058929
0.467797607578185,0.467797607578185
0.40278571150891535,0.40278571150891535
0.3637785738673535,0.3637785738673535
0.4287904699366232,0.4287904699366232
0.5718166412890165,0.5718166412890165
0.6368285373582863,0.6368285373582863
0.6368285373582863,0.6368285373582863
0.6368285373582863,0.6368285373582863
0.7018404334275559,0.7018404334275559
0.7668523294968256,0.7668523294968256
0.8318642255660953,0.8318642255660953
0.9358832592769267,0.9358832592769267
0.8968761216353649,0.8968761216353649
0.870871363207657,0.870871363207657
0.7668523294968256,0.7668523294968256
0.7018404334275559,0.7018404334275559
0.4938023660058929,0.4938023660058929
0.40278571150891535,0.40278571150891535
0.2727619193703759,0.2727619193703759
0.1297357480179826,0.1297357480179826
0.06472385194871291,0.06472385194871291
-0.000288044120556775,-0.000288044120556775
-0.026292802548264653,-0.026292802548264653
0.03871909352100504,0.03871909352100504
-0.026292802548264653,-0.026292802548264653
-0.026292802548264653,-0.026292802548264653
-0.026292802548264653,-0.026292802548264653
-0.026292802548264653,-0.026292802548264653
0.06472385194871291,0.06472385194871291
0.10373098959027474,0.10373098959027474
0.03871909352100504,0.03871909352100504
0.06472385194871291,0.06472385194871291
-0.026292802548264653,-0.026292802548264653
-0.026292802548264653,-0.026292802548264653
-0.000288044120556775,-0.000288044120556775
-0.026292802548264653,-0.026292802548264653
-0.026292802548264653,-0.026292802548264653
-0.026292802548264653,-0.026292802548264653
-0.06529994018982647,-0.06529994018982647
-0.06529994018982647,-0.06529994018982647
-0.10430707783138829,-0.10430707783138829
-0.13031183625909618,-0.13031183625909618
-0.026292802548264653,-0.026292802548264653
-0.13031183625909618,-0.13031183625909618
-0.13031183625909618,-0.13031183625909618
-0.16931897390065798,-0.16931897390065798
-0.10430707783138829,-0.10430707783138829
-0.16931897390065798,-0.16931897390065798
-0.06529994018982647,-0.06529994018982647
-0.026292802548264653,-0.026292802548264653
-0.06529994018982647,-0.06529994018982647
-0.10430707783138829,-0.10430707783138829
-0.16931897390065798,-0.16931897390065798
-0.13031183625909618,-0.13031183625909618
-0.19532373232836586,-0.19532373232836586
-0.23433086996992766,-0.23433086996992766
-0.16931897390065798,-0.16931897390065798
-0.06529994018982647,-0.06529994018982647
-0.06529994018982647,-0.06529994018982647
-0.10430707783138829,-0.10430707783138829
-0.06529994018982647,-0.06529994018982647
-0.026292802548264653,-0.026292802548264653
0.03871909352100504,0.03871909352100504
0.2987666777980838,0.2987666777980838
0.6628332957859941,0.6628332957859941
1.065907051415466,1.065907051415466
0.4938023660058929,0.4938023660058929
-0.026292802548264653,-0.026292802548264653
-1.5995806874245913,-1.5995806874245913
-3.1208590554455022,-3.1208590554455022
-4.083035117270693,-4.083035117270693
-4.083035117270693,-4.083035117270693
-3.1208590554455022,-3.1208590554455022
-1.664592583493861,-1.664592583493861
-1.027476002015018,-1.027476002015018
-0.6634093840271077,-0.6634093840271077
-0.4293665581777368,-0.4293665581777368
-0.23433086996992766,-0.23433086996992766
-0.06529994018982647,-0.06529994018982647
0.16874288565954443,0.16874288565954443
0.2727619193703759,0.2727619193703759
0.2727619193703759,0.2727619193703759
0.2987666777980838,0.2987666777980838
0.2987666777980838,0.2987666777980838
0.2987666777980838,0.2987666777980838
0.2987666777980838,0.2987666777980838
0.33777381543964563,0.33777381543964563
0.2987666777980838,0.2987666777980838
0.33777381543964563,0.33777381543964563
0.3637785738673535,0.3637785738673535
0.33777381543964563,0.33777381543964563
0.3637785738673535,0.3637785738673535
0.40278571150891535,0.40278571150891535
0.4287904699366232,0.4287904699366232
0.3637785738673535,0.3637785738673535
0.467797607578185,0.467797607578185
0.5328095036474547,0.5328095036474547
0.5978213997167244,0.5978213997167244
0.6628332957859941,0.6628332957859941
0.6628332957859941,0.6628332957859941
0.7278451918552638,0.7278451918552638
0.8318642255660953,0.8318642255660953
0.870871363207657,0.870871363207657
0.8968761216353649,0.8968761216353649
0.8318642255660953,0.8318642255660953
0.7278451918552638,0.7278451918552638
0.5978213997167244,0.5978213997167244
0.467797607578185,0.467797607578185
0.40278571150891535,0.40278571150891535
0.40278571150891535,0.40278571150891535
0.33777381543964563,0.33777381543964563
0.2987666777980838,0.2987666777980838
0.23375478172881411,0.23375478172881411
0.23375478172881411,0.23375478172881411
0.2727619193703759,0.2727619193703759
0.23375478172881411,0.23375478172881411
0.1297357480179826,0.1297357480179826
0.16874288565954443,0.16874288565954443
0.19474764408725231,0.19474764408725231
0.1297357480179826,0.1297357480179826
0.10373098959027474,0.10373098959027474
0.1297357480179826,0.1297357480179826
0.1297357480179826,0.1297357480179826
0.1297357480179826,0.1297357480179826
0.06472385194871291,0.06472385194871291
-0.000288044120556775,-0.000288044120556775
0.06472385194871291,0.06472385194871291
0.1297357480179826,0.1297357480179826
0.19474764408725231,0.19474764408725231
0.1297357480179826,0.1297357480179826
0.10373098959027474,0.10373098959027474
0.06472385194871291,0.06472385194871291
0.1297357480179826,0.1297357480179826
0.10373098959027474,0.10373098959027474
0.16874288565954443,0.16874288565954443
0.10373098959027474,0.10373098959027474
0.1297357480179826,0.1297357480179826
0.06472385194871291,0.06472385194871291
0.03871909352100504,0.03871909352100504
-0.000288044120556775,-0.000288044120556775
-0.000288044120556775,-0.000288044120556775
0.03871909352100504,0.03871909352100504
0.03871909352100504,0.03871909352100504
-0.026292802548264653,-0.026292802548264653
0.10373098959027474,0.10373098959027474
0.03871909352100504,0.03871909352100504
0.06472385194871291,0.06472385194871291
0.03871909352100504,0.03871909352100504
0.10373098959027474,0.10373098959027474
0.10373098959027474,0.10373098959027474
0.1297357480179826,0.1297357480179826
0.1297357480179826,0.1297357480179826
0.06472385194871291,0.06472385194871291
-0.000288044120556775,-0.000288044120556775
0.10373098959027474,0.10373098959027474
0.03871909352100504,0.03871909352100504
0.10373098959027474,0.10373098959027474
0.06472385194871291,0.06472385194871291
-0.026292802548264653,-0.026292802548264653
-0.10430707783138829,-0.10430707783138829
-0.13031183625909618,-0.13031183625909618
-0.000288044120556775,-0.000288044120556775
0.03871909352100504,0.03871909352100504
-0.000288044120556775,-0.000288044120556775
0.10373098959027474,0.10373098959027474
0.03871909352100504,0.03871909352100504
0.1297357480179826,0.1297357480179826
0.2987666777980838,0.2987666777980838
0.7668523294968256,0.7668523294968256
1.1959308435540055,1.1959308435540055
1.3649617733341066,1.3649617733341066
0.870871363207657,0.870871363207657
-0.23433086996992766,-0.23433086996992766
-1.7296044795631307,-1.7296044795631307
-3.7189684992827834,-3.7189684992827834
-4.083035117270693,-4.083035117270693
-3.354901881294873,-3.354901881294873
-2.132678235192603,-2.132678235192603
-1.1965069317951191,-1.1965069317951191
-0.6374046255993998,-0.6374046255993998
-0.4033617997500289,-0.4033617997500289
-0.19532373232836586,-0.19532373232836586
-0.026292802548264653,-0.026292802548264653
0.1297357480179826,0.1297357480179826
0.2727619193703759,0.2727619193703759
0.2987666777980838,0.2987666777980838
0.23375478172881411,0.23375478172881411
0.19474764408725231,0.19474764408725231
0.3637785738673535,0.3637785738673535
0.2727619193703759,0.2727619193703759
0.2987666777980838,0.2987666777980838
0.2727619193703759,0.2727619193703759
0.2727619193703759,0.2727619193703759
0.2727619193703759,0.2727619193703759
0.2727619193703759,0.2727619193703759
0.2727619193703759,0.2727619193703759
0.33777381543964563,0.33777381543964563
0.3637785738673535,0.3637785738673535
0.4287904699366232,0.4287904699366232
0.33777381543964563,0.33777381543964563
0.4287904699366232,0.4287904699366232
0.4938023660058929,0.4938023660058929
0.5328095036474547,0.5328095036474547
0.5718166412890165,0.5718166412890165
0.5978213997167244,0.5978213997167244
0.6628332957859941,0.6628332957859941
0.7018404334275559,0.7018404334275559
0.7278451918552638,0.7278451918552638
0.8318642255660953,0.8318642255660953
0.7668523294968256,0.7668523294968256
0.7018404334275559,0.7018404334275559
0.7278451918552638,0.7278451918552638
0.5328095036474547,0.5328095036474547
0.4287904699366232,0.4287904699366232
0.40278571150891535,0.40278571150891535
0.33777381543964563,0.33777381543964563
0.2727619193703759,0.2727619193703759
0.23375478172881411,0.23375478172881411
0.23375478172881411,0.23375478172881411
0.19474764408725231,0.19474764408725231
0.23375478172881411,0.23375478172881411
0.33777381543964563,0.33777381543964563
0.2727619193703759,0.2727619193703759
0.23375478172881411,0.23375478172881411
0.19474764408725231,0.19474764408725231
0.23375478172881411,0.23375478172881411
0.2727619193703759,0.2727619193703759
0.23375478172881411,0.23375478172881411
0.16874288565954443,0.16874288565954443
0.1297357480179826,0.1297357480179826
0.16874288565954443,0.16874288565954443
0.1297357480179826,0.1297357480179826
0.16874288565954443,0.16874288565954443
0.1297357480179826,0.1297357480179826
0.1297357480179826,0.1297357480179826
0.1297357480179826,0.1297357480179826
0.16874288565954443,0.16874288565954443
0.16874288565954443,0.16874288565954443
0.19474764408725231,0.19474764408725231
0.10373098959027474,0.10373098959027474
0.1297357480179826,0.1297357480179826
0.06472385194871291,0.06472385194871291
0.10373098959027474,0.10373098959027474
0.03871909352100504,0.03871909352100504
0.03871909352100504,0.03871909352100504
-0.026292802548264653,-0.026292802548264653
-0.026292802548264653,-0.026292802548264653
-0.06529994018982647,-0.06529994018982647
0.03871909352100504,0.03871909352100504
0.03871909352100504,0.03871909352100504
0.03871909352100504,0.03871909352100504
-0.026292802548264653,-0.026292802548264653
0.03871909352100504,0.03871909352100504
0.06472385194871291,0.06472385194871291
0.10373098959027474,0.10373098959027474
0.03871909352100504,0.03871909352100504
0.03871909352100504,0.03871909352100504
0.06472385194871291,0.06472385194871291
0.03871909352100504,0.03871909352100504
0.03871909352100504,0.03871909352100504
0.06472385194871291,0.06472385194871291
0.10373098959027474,0.10373098959027474
0.06472385194871291,0.06472385194871291
0.2727619193703759,0.2727619193703759
0.7668523294968256,0.7668523294968256
1.1309189474847359,1.1309189474847359
0.7928570879245335,0.7928570879245335
0.2987666777980838,0.2987666777980838
-1.3005259655059507,-1.3005259655059507
-2.7957995750991538,-2.7957995750991538
-4.083035117270693,-4.083035117270693
-4.083035117270693,-4.083035117270693
-3.0558471593762326,-3.0558471593762326
-1.6255854458522991,-1.6255854458522991
-0.8974522098764787,-0.8974522098764787
-0.598397487957838,-0.598397487957838
-0.4033617997500289,-0.4033617997500289
-0.19532373232836586,-0.19532373232836586
-0.026292802548264653,-0.026292802548264653
0.06472385194871291,0.06472385194871291
0.1297357480179826,0.1297357480179826
0.16874288565954443,0.16874288565954443
0.16874288565954443,0.16874288565954443
0.2987666777980838,0.2987666777980838
0.40278571150891535,0.40278571150891535
0.40278571150891535,0.40278571150891535
0.4287904699366232,0.4287904699366232
0.467797607578185,0.467797607578185
0.5328095036474547,0.5328095036474547
0.5328095036474547,0.5328095036474547
0.5718166412890165,0.5718166412890165
0.5328095036474547,0.5328095036474547
0.5978213997167244,0.5978213997167244
0.4938023660058929,0.4938023660058929
0.4938023660058929,0.4938023660058929
0.467797607578185,0.467797607578185
0.4287904699366232,0.4287904699366232
0.467797607578185,0.467797607578185
0.5978213997167244,0.5978213997167244
0.5978213997167244,0.5978213997167244
0.6628332957859941,0.6628332957859941
0.7278451918552638,0.7278451918552638
0.870871363207657,0.870871363207657
0.8968761216353649,0.8968761216353649
0.8318642255660953,0.8318642255660953
0.7668523294968256,0.7668523294968256
0.6628332957859941,0.6628332957859941
0.6368285373582863,0.6368285373582863
0.5328095036474547,0.5328095036474547
0.4287904699366232,0.4287904699366232
0.33777381543964563,0.33777381543964563
0.19474764408725231,0.19474764408725231
0.16874288565954443,0.16874288565954443
0.19474764408725231,0.19474764408725231
0.1297357480179826,0.1297357480179826
0.1297357480179826,0.1297357480179826
0.10373098959027474,0.10373098959027474
0.06472385194871291,0.06472385194871291
0.03871909352100504,0.03871909352100504
0.10373098959027474,0.10373098959027474
0.03871909352100504,0.03871909352100504
0.06472385194871291,0.06472385194871291
0.1297357480179826,0.1297357480179826
0.10373098959027474,0.10373098959027474
0.1297357480179826,0.1297357480179826
0.1297357480179826,0.1297357480179826
0.06472385194871291,0.06472385194871291
0.03871909352100504,0.03871909352100504
-0.000288044120556775,-0.000288044120556775
0.06472385194871291,0.06472385194871291
0.10373098959027474,0.10373098959027474
-0.000288044120556775,-0.000288044120556775
-0.026292802548264653,-0.026292802548264653
-0.06529994018982647,-0.06529994018982647
-0.026292802548264653,-0.026292802548264653
-0.10430707783138829,-0.10430707783138829
-0.10430707783138829,-0.10430707783138829
-0.10430707783138829,-0.10430707783138829
-0.10430707783138829,-0.10430707783138829
-0.16931897390065798,-0.16931897390065798
-0.16931897390065798,-0.16931897390065798
-0.16931897390065798,-0.16931897390065798
-0.10430707783138829,-0.10430707783138829
-0.10430707783138829,-0.10430707783138829
-0.026292802548264653,-0.026292802548264653
-0.10430707783138829,-0.10430707783138829
-0.06529994018982647,-0.06529994018982647
-0.026292802548264653,-0.026292802548264653
0.03871909352100504,0.03871909352100504
0.10373098959027474,0.10373098959027474
0.467797607578185,0.467797607578185
0.870871363207657,0.870871363207657
1.065907051415466,1.065907051415466
0.19474764408725231,0.19474764408725231
-0.6634093840271077,-0.6634093840271077
-2.2236948896895803,-2.2236948896895803
-4.083035117270693,-4.083035117270693
-4.083035117270693,-4.083035117270693
-3.783980395352053,-3.783980395352053
-2.4317329571112434,-2.4317329571112434
-1.3655378615752205,-1.3655378615752205
-0.8974522098764787,-0.8974522098764787
-0.6374046255993998,-0.6374046255993998
-0.4033617997500289,-0.4033617997500289
-0.19532373232836586,-0.19532373232836586
0.03871909352100504,0.03871909352100504
0.1297357480179826,0.1297357480179826
0.19474764408725231,0.19474764408725231
0.23375478172881411,0.23375478172881411
0.2727619193703759,0.2727619193703759
0.2727619193703759,0.2727619193703759
0.33777381543964563,0.33777381543964563
0.2987666777980838,0.2987666777980838
0.3637785738673535,0.3637785738673535
0.40278571150891535,0.40278571150891535
0.3637785738673535,0.3637785738673535
0.4287904699366232,0.4287904699366232
0.4287904699366232,0.4287904699366232
0.40278571150891535,0.40278571150891535
0.467797607578185,0.467797607578185
0.467797607578185,0.467797607578185
0.4938023660058929,0.4938023660058929
0.467797607578185,0.467797607578185
0.5718166412890165,0.5718166412890165
0.6368285373582863,0.6368285373582863
0.7278451918552638,0.7278451918552638
0.7928570879245335,0.7928570879245335
0.8318642255660953,0.8318642255660953
0.8968761216353649,0.8968761216353649
0.8968761216353649,0.8968761216353649
0.7928570879245335,0.7928570879245335
0.7278451918552638,0.7278451918552638
0.6368285373582863,0.6368285373582863
0.5718166412890165,0.5718166412890165
0.467797607578185,0.467797607578185
0.2987666777980838,0.2987666777980838
0.23375478172881411,0.23375478172881411
0.1297357480179826,0.1297357480179826
0.1297357480179826,0.1297357480179826
0.10373098959027474,0.10373098959027474
0.10373098959027474,0.10373098959027474
0.03871909352100504,0.03871909352100504
0.1297357480179826,0.1297357480179826
0.16874288565954443,0.16874288565954443
0.1297357480179826,0.1297357480179826
0.16874288565954443,0.16874288565954443
0.23375478172881411,0.23375478172881411
0.1297357480179826,0.1297357480179826
0.10373098959027474,0.10373098959027474
0.10373098959027474,0.10373098959027474
0.06472385194871291,0.06472385194871291
0.10373098959027474,0.10373098959027474
0.03871909352100504,0.03871909352100504
0.10373098959027474,0.10373098959027474
-0.026292802548264653,-0.026292802548264653
0.06472385194871291,0.06472385194871291
0.03871909352100504,0.03871909352100504
0.03871909352100504,0.03871909352100504
-0.06529994018982647,-0.06529994018982647
-0.000288044120556775,-0.000288044120556775
-0.026292802548264653,-0.026292802548264653
-0.026292802548264653,-0.026292802548264653
-0.026292802548264653,-0.026292802548264653
-0.000288044120556775,-0.000288044120556775
-0.026292802548264653,-0.026292802548264653
-0.000288044120556775,-0.000288044120556775
0.03871909352100504,0.03871909352100504
0.06472385194871291,0.06472385194871291
-0.026292802548264653,-0.026292802548264653
0.06472385194871291,0.06472385194871291
0.06472385194871291,0.06472385194871291
0.03871909352100504,0.03871909352100504
0.10373098959027474,0.10373098959027474
0.33777381543964563,0.33777381543964563
0.7928570879245335,0.7928570879245335
1.2349379811955674,1.2349379811955674
1.0008951553461964,1.0008951553461964
0.3637785738673535,0.3637785738673535
-1.1314950357258495,-1.1314950357258495
-2.496744853180513,-2.496744853180513
-4.083035117270693,-4.083035117270693
-4.083035117270693,-4.083035117270693
-3.1208590554455022,-3.1208590554455022
-1.8986354093432318,-1.8986354093432318
-1.06648313965658,-1.06648313965658
-0.598397487957838,-0.598397487957838
-0.2603356283976356,-0.2603356283976356
-0.10430707783138829,-0.10430707783138829
0.06472385194871291,0.06472385194871291
0.23375478172881411,0.23375478172881411
0.2727619193703759,0.2727619193703759
0.2727619193703759,0.2727619193703759
0.23375478172881411,0.23375478172881411
0.2727619193703759,0.2727619193703759
0.2727619193703759,0.2727619193703759
0.16874288565954443,0.16874288565954443
0.2727619193703759,0.2727619193703759
0.33777381543964563,0.33777381543964563
0.40278571150891535,0.40278571150891535
0.4287904699366232,0.4287904699366232
0.4287904699366232,0.4287904699366232
0.4287904699366232,0.4287904699366232
0.4938023660058929,0.4938023660058929
0.4938023660058929,0.4938023660058929
0.4938023660058929,0.4938023660058929
0.5978213997167244,0.5978213997167244
0.5978213997167244,0.5978213997167244
0.6368285373582863,0.6368285373582863
0.7278451918552638,0.7278451918552638
0.7668523294968256,0.7668523294968256
0.8968761216353649,0.8968761216353649
0.7928570879245335,0.7928570879245335
0.870871363207657,0.870871363207657
0.8968761216353649,0.8968761216353649
0.7928570879245335,0.7928570879245335
0.8318642255660953,0.8318642255660953
0.6628332957859941,0.6628332957859941
0.5978213997167244,0.5978213997167244
0.40278571150891535,0.40278571150891535
0.3637785738673535,0.3637785738673535
0.3637785738673535,0.3637785738673535
0.2727619193703759,0.2727619193703759
0.23375478172881411,0.23375478172881411
0.19474764408725231,0.19474764408725231
0.16874288565954443,0.16874288565954443
0.1297357480179826,0.1297357480179826
0.1297357480179826,0.1297357480179826
0.10373098959027474,0.10373098959027474
0.1297357480179826,0.1297357480179826
0.10373098959027474,0.10373098959027474
0.1297357480179826,0.1297357480179826
0.19474764408725231,0.19474764408725231
0.2727619193703759,0.2727619193703759
0.23375478172881411,0.23375478172881411
0.2987666777980838,0.2987666777980838
0.2727619193703759,0.2727619193703759
0.16874288565954443,0.16874288565954443
0.1297357480179826,0.1297357480179826
0.33777381543964563,0.33777381543964563
0.4287904699366232,0.4287904699366232
0.9358832592769267,0.9358832592769267
1.3649617733341066,1.3649617733341066
1.1309189474847359,1.1309189474847359
0.7018404334275559,0.7018404334275559
-0.7674284177379391,-0.7674284177379391
-2.2627020273311422,-2.2627020273311422
-4.083035117270693,-4.083035117270693
-4.083035117270693,-4.083035117270693
-3.2638852267978953,-3.2638852267978953
-1.9246401677709397,-1.9246401677709397
-1.06648313965658,-1.06648313965658
-0.6374046255993998,-0.6374046255993998
-0.36435466210846706,-0.36435466210846706
-0.06529994018982647,-0.06529994018982647
0.06472385194871291,0.06472385194871291
0.2727619193703759,0.2727619193703759
0.33777381543964563,0.33777381543964563
0.40278571150891535,0.40278571150891535
0.2727619193703759,0.2727619193703759
0.33777381543964563,0.33777381543964563
0.2987666777980838,0.2987666777980838
0.3637785738673535,0.3637785738673535
0.2987666777980838,0.2987666777980838
0.2727619193703759,0.2727619193703759
0.19474764408725231,0.19474764408725231
0.2987666777980838,0.2987666777980838
0.3637785738673535,0.3637785738673535
0.2987666777980838,0.2987666777980838
0.3637785738673535,0.3637785738673535
0.467797607578185,0.467797607578185
0.5328095036474547,0.5328095036474547
0.5978213997167244,0.5978213997167244
0.7278451918552638,0.7278451918552638
0.870871363207657,0.870871363207657
0.8968761216353649,0.8968761216353649
0.9618880177046346,0.9618880177046346
1.065907051415466,1.065907051415466
1.0008951553461964,1.0008951553461964
0.8968761216353649,0.8968761216353649
0.9358832592769267,0.9358832592769267
0.7018404334275559,0.7018404334275559
0.467797607578185,0.467797607578185
0.3637785738673535,0.3637785738673535
0.2727619193703759,0.2727619193703759
0.2727619193703759,0.2727619193703759
0.1297357480179826,0.1297357480179826
0.06472385194871291,0.06472385194871291
-0.026292802548264653,-0.026292802548264653
-0.026292802548264653,-0.026292802548264653
-0.026292802548264653,-0.026292802548264653
-0.026292802548264653,-0.026292802548264653
-0.10430707783138829,-0.10430707783138829
-0.026292802548264653,-0.026292802548264653
-0.000288044120556775,-0.000288044120556775
-0.026292802548264653,-0.026292802548264653
-0.026292802548264653,-0.026292802548264653
-0.026292802548264653,-0.026292802548264653
-0.06529994018982647,-0.06529994018982647
-0.026292802548264653,-0.026292802548264653
-0.10430707783138829,-0.10430707783138829
-0.10430707783138829,-0.10430707783138829
-0.026292802548264653,-0.026292802548264653
-0.000288044120556775,-0.000288044120556775
0.10373098959027474,0.10373098959027474
0.2727619193703759,0.2727619193703759
0.8318642255660953,0.8318642255660953
1.3909665317618145,1.3909665317618145
0.8968761216353649,0.8968761216353649
0.40278571150891535,0.40278571150891535
-1.3265307239336586,-1.3265307239336586
-3.224878089156334,-3.224878089156334
-4.083035117270693,-4.083035117270693
-4.083035117270693,-4.083035117270693
-3.094854297017794,-3.094854297017794
-1.8336235132739622,-1.8336235132739622
-1.0924878980842878,-1.0924878980842878
-0.8584450722349168,-0.8584450722349168
-0.598397487957838,-0.598397487957838
-0.3383499036807592,-0.3383499036807592
-0.06529994018982647,-0.06529994018982647
0.1297357480179826,0.1297357480179826
0.16874288565954443,0.16874288565954443
0.19474764408725231,0.19474764408725231
0.19474764408725231,0.19474764408725231
0.2727619193703759,0.2727619193703759
0.23375478172881411,0.23375478172881411
0.2727619193703759,0.2727619193703759
0.23375478172881411,0.23375478172881411
0.2987666777980838,0.2987666777980838
0.3637785738673535,0.3637785738673535
0.40278571150891535,0.40278571150891535
0.33777381543964563,0.33777381543964563
0.3637785738673535,0.3637785738673535
0.33777381543964563,0.33777381543964563
0.4287904699366232,0.4287904699366232
0.467797607578185,0.467797607578185
0.5718166412890165,0.5718166412890165
0.5978213997167244,0.5978213997167244
0.6628332957859941,0.6628332957859941
0.7928570879245335,0.7928570879245335
0.8968761216353649,0.8968761216353649
0.8968761216353649,0.8968761216353649
0.9358832592769267,0.9358832592769267
0.8968761216353649,0.8968761216353649
0.8318642255660953,0.8318642255660953
0.7018404334275559,0.7018404334275559
0.5328095036474547,0.5328095036474547
0.4287904699366232,0.4287904699366232
0.2987666777980838,0.2987666777980838
0.1297357480179826,0.1297357480179826
0.1297357480179826,0.1297357480179826
0.03871909352100504,0.03871909352100504
-0.000288044120556775,-0.000288044120556775
0.06472385194871291,0.06472385194871291
0.06472385194871291,0.06472385194871291
0.1297357480179826,0.1297357480179826
0.10373098959027474,0.10373098959027474
0.1297357480179826,0.1297357480179826
0.10373098959027474,0.10373098959027474
0.19474764408725231,0.19474764408725231
0.16874288565954443,0.16874288565954443
0.1297357480179826,0.1297357480179826
0.1297357480179826,0.1297357480179826
0.1297357480179826,0.1297357480179826
0.06472385194871291,0.06472385194871291
0.06472385194871291,0.06472385194871291
-0.000288044120556775,-0.000288044120556775
0.03871909352100504,0.03871909352100504
-0.000288044120556775,-0.000288044120556775
-0.000288044120556775,-0.000288044120556775
-0.000288044120556775,-0.000288044120556775
0.03871909352100504,0.03871909352100504
0.03871909352100504,0.03871909352100504
-0.000288044120556775,-0.000288044120556775
0.03871909352100504,0.03871909352100504
-0.000288044120556775,-0.000288044120556775
-0.026292802548264653,-0.026292802548264653
-0.026292802548264653,-0.026292802548264653
-0.026292802548264653,-0.026292802548264653
-0.000288044120556775,-0.000288044120556775
-0.026292802548264653,-0.026292802548264653
-0.000288044120556775,-0.000288044120556775
0.06472385194871291,0.06472385194871291
-0.000288044120556775,-0.000288044120556775
0.10373098959027474,0.10373098959027474
0.2727619193703759,0.2727619193703759
0.7928570879245335,0.7928570879245335
1.2349379811955674,1.2349379811955674
0.9618880177046346,0.9618880177046346
0.40278571150891535,0.40278571150891535
-1.1314950357258495,-1.1314950357258495
-3.1208590554455022,-3.1208590554455022
-4.083035117270693,-4.083035117270693
-4.083035117270693,-4.083035117270693
-3.0298424009485245,-3.0298424009485245
-1.7296044795631307,-1.7296044795631307
-0.9624641059457484,-0.9624641059457484
-0.598397487957838,-0.598397487957838
-0.4033617997500289,-0.4033617997500289
-0.19532373232836586,-0.19532373232836586
-0.000288044120556775,-0.000288044120556775
0.16874288565954443,0.16874288565954443
0.2727619193703759,0.2727619193703759
0.2727619193703759,0.2727619193703759
0.19474764408725231,0.19474764408725231
0.19474764408725231,0.19474764408725231
0.23375478172881411,0.23375478172881411
0.2987666777980838,0.2987666777980838
0.2727619193703759,0.2727619193703759
0.3637785738673535,0.3637785738673535
0.33777381543964563,0.33777381543964563
0.33777381543964563,0.33777381543964563
0.33777381543964563,0.33777381543964563
0.3637785738673535,0.3637785738673535
0.4287904699366232,0.4287904699366232
0.4938023660058929,0.4938023660058929
0.5328095036474547,0.5328095036474547
0.4938023660058929,0.4938023660058929
0.5718166412890165,0.5718166412890165
0.7018404334275559,0.7018404334275559
0.7278451918552638,0.7278451918552638
0.7278451918552638,0.7278451918552638
0.8318642255660953,0.8318642255660953
0.8318642255660953,0.8318642255660953
0.870871363207657,0.870871363207657
0.8318642255660953,0.8318642255660953
0.7668523294968256,0.7668523294968256
0.6628332957859941,0.6628332957859941
0.5718166412890165,0.5718166412890165
0.3637785738673535,0.3637785738673535
0.33777381543964563,0.33777381543964563
0.2727619193703759,0.2727619193703759
0.23375478172881411,0.23375478172881411
0.16874288565954443,0.16874288565954443
0.1297357480179826,0.1297357480179826
0.10373098959027474,0.10373098959027474
0.10373098959027474,0.10373098959027474
0.1297357480179826,0.1297357480179826
0.10373098959027474,0.10373098959027474
0.1297357480179826,0.1297357480179826
0.16874288565954443,0.16874288565954443
0.1297357480179826,0.1297357480179826
0.16874288565954443,0.16874288565954443
0.1297357480179826,0.1297357480179826
0.1297357480179826,0.1297357480179826
0.10373098959027474,0.10373098959027474
0.06472385194871291,0.06472385194871291
0.1297357480179826,0.1297357480179826
0.10373098959027474,0.10373098959027474
0.2727619193703759,0.2727619193703759
0.7278451918552638,0.7278451918552638
1.533992703114208,1.533992703114208
1.7680355289635787,1.7680355289635787
0.7668523294968256,0.7668523294968256
-0.29934276603919735,-0.29934276603919735
-2.3927258194696814,-2.3927258194696814
-4.083035117270693,-4.083035117270693
-4.083035117270693,-4.083035117270693
-3.562939948716536,-3.562939948716536
-2.093671097551041,-2.093671097551041
-1.235514069436681,-1.235514069436681
-0.793433176165647,-0.793433176165647
-0.5333855918885683,-0.5333855918885683
-0.3383499036807592,-0.3383499036807592
-0.19532373232836586,-0.19532373232836586
0.06472385194871291,0.06472385194871291
0.10373098959027474,0.10373098959027474
0.16874288565954443,0.16874288565954443
0.19474764408725231,0.19474764408725231
0.23375478172881411,0.23375478172881411
0.23375478172881411,0.23375478172881411
0.2727619193703759,0.2727619193703759
0.2727619193703759,0.2727619193703759
0.2987666777980838,0.2987666777980838
0.3637785738673535,0.3637785738673535
0.40278571150891535,0.40278571150891535
0.4287904699366232,0.4287904699366232
0.467797607578185,0.467797607578185
0.4938023660058929,0.4938023660058929
0.4938023660058929,0.4938023660058929
0.5978213997167244,0.5978213997167244
0.5978213997167244,0.5978213997167244
0.7018404334275559,0.7018404334275559
0.7278451918552638,0.7278451918552638
0.7928570879245335,0.7928570879245335
0.7278451918552638,0.7278451918552638
0.8968761216353649,0.8968761216353649
0.8968761216353649,0.8968761216353649
0.870871363207657,0.870871363207657
0.7278451918552638,0.7278451918552638
0.5978213997167244,0.5978213997167244
0.4938023660058929,0.4938023660058929
0.4287904699366232,0.4287904699366232
0.2727619193703759,0.2727619193703759
0.23375478172881411,0.23375478172881411
0.1297357480179826,0.1297357480179826
0.10373098959027474,0.10373098959027474
0.03871909352100504,0.03871909352100504
0.03871909352100504,0.03871909352100504
0.1297357480179826,0.1297357480179826
0.03871909352100504,0.03871909352100504
0.03871909352100504,0.03871909352100504
-0.026292802548264653,-0.026292802548264653
0.03871909352100504,0.03871909352100504
-0.000288044120556775,-0.000288044120556775
0.10373098959027474,0.10373098959027474
0.03871909352100504,0.03871909352100504
0.06472385194871291,0.06472385194871291
-0.000288044120556775,-0.000288044120556775
-0.000288044120556775,-0.000288044120556775
0.1297357480179826,0.1297357480179826
0.06472385194871291,0.06472385194871291
-0.026292802548264653,-0.026292802548264653
-0.000288044120556775,-0.000288044120556775
-0.10430707783138829,-0.10430707783138829
-0.026292802548264653,-0.026292802548264653
-0.10430707783138829,-0.10430707783138829
-0.10430707783138829,-0.10430707783138829
-0.16931897390065798,-0.16931897390065798
-0.16931897390065798,-0.16931897390065798
-0.19532373232836586,-0.19532373232836586
-0.10430707783138829,-0.10430707783138829
-0.16931897390065798,-0.16931897390065798
-0.19532373232836586,-0.19532373232836586
-0.16931897390065798,-0.16931897390065798
-0.06529994018982647,-0.06529994018982647
-0.026292802548264653,-0.026292802548264653
-0.000288044120556775,-0.000288044120556775
0.06472385194871291,0.06472385194871291
0.03871909352100504,0.03871909352100504
0.1297357480179826,0.1297357480179826
0.06472385194871291,0.06472385194871291
-0.000288044120556775,-0.000288044120556775
-0.026292802548264653,-0.026292802548264653
0.06472385194871291,0.06472385194871291
-0.026292802548264653,-0.026292802548264653
-0.10430707783138829,-0.10430707783138829
-0.13031183625909618,-0.13031183625909618
-0.10430707783138829,-0.10430707783138829
-0.13031183625909618,-0.13031183625909618
-0.19532373232836586,-0.19532373232836586
-0.19532373232836586,-0.19532373232836586
-0.16931897390065798,-0.16931897390065798
-0.19532373232836586,-0.19532373232836586
-0.10430707783138829,-0.10430707783138829
-0.026292802548264653,-0.026292802548264653
0.06472385194871291,0.06472385194871291
0.1297357480179826,0.1297357480179826
0.19474764408725231,0.19474764408725231
0.6628332957859941,0.6628332957859941
1.2349379811955674,1.2349379811955674
1.4299736694033764,1.4299736694033764
0.5978213997167244,0.5978213997167244
-0.5333855918885683,-0.5333855918885683
-2.4317329571112434,-2.4317329571112434
-4.083035117270693,-4.083035117270693
-4.083035117270693,-4.083035117270693
-3.4849256734334126,-3.4849256734334126
-2.1976901312618726,-2.1976901312618726
-1.261518827864389,-1.261518827864389
-0.9364593475180405,-0.9364593475180405
-0.6634093840271077,-0.6634093840271077
-0.4293665581777368,-0.4293665581777368
-0.16931897390065798,-0.16931897390065798
-0.000288044120556775,-0.000288044120556775
0.19474764408725231,0.19474764408725231
0.23375478172881411,0.23375478172881411
0.2987666777980838,0.2987666777980838
0.2987666777980838,0.2987666777980838
0.33777381543964563,0.33777381543964563
0.2727619193703759,0.2727619193703759
0.33777381543964563,0.33777381543964563
0.2987666777980838,0.2987666777980838
0.2727619193703759,0.2727619193703759
0.23375478172881411,0.23375478172881411
0.2727619193703759,0.2727619193703759
0.23375478172881411,0.23375478172881411
0.2727619193703759,0.2727619193703759
0.23375478172881411,0.23375478172881411
0.19474764408725231,0.19474764408725231
0.33777381543964563,0.33777381543964563
0.4287904699366232,0.4287904699366232
0.4938023660058929,0.4938023660058929
0.5718166412890165,0.5718166412890165
0.6628332957859941,0.6628332957859941
0.7278451918552638,0.7278451918552638
0.7928570879245335,0.7928570879245335
0.870871363207657,0.870871363207657
0.8968761216353649,0.8968761216353649
0.8968761216353649,0.8968761216353649
0.8318642255660953,0.8318642255660953
0.7018404334275559,0.7018404334275559
0.5328095036474547,0.5328095036474547
0.467797607578185,0.467797607578185
0.33777381543964563,0.33777381543964563
0.2987666777980838,0.2987666777980838
0.23375478172881411,0.23375478172881411
0.16874288565954443,0.16874288565954443
0.19474764408725231,0.19474764408725231
0.19474764408725231,0.19474764408725231
0.19474764408725231,0.19474764408725231
0.23375478172881411,0.23375478172881411
0.16874288565954443,0.16874288565954443
0.2727619193703759,0.2727619193703759
0.2987666777980838,0.2987666777980838
0.19474764408725231,0.19474764408725231
0.2727619193703759,0.2727619193703759
0.19474764408725231,0.19474764408725231
0.16874288565954443,0.16874288565954443
0.1297357480179826,0.1297357480179826
0.03871909352100504,0.03871909352100504
-0.026292802548264653,-0.026292802548264653
-0.026292802548264653,-0.026292802548264653
-0.000288044120556775,-0.000288044120556775
-0.06529994018982647,-0.06529994018982647
-0.026292802548264653,-0.026292802548264653
-0.026292802548264653,-0.026292802548264653
-0.000288044120556775,-0.000288044120556775
-0.026292802548264653,-0.026292802548264653
-0.026292802548264653,-0.026292802548264653
-0.026292802548264653,-0.026292802548264653
-0.000288044120556775,-0.000288044120556775
-0.000288044120556775,-0.000288044120556775
0.03871909352100504,0.03871909352100504
0.06472385194871291,0.06472385194871291
-0.026292802548264653,-0.026292802548264653
0.06472385194871291,0.06472385194871291
-0.000288044120556775,-0.000288044120556775
0.10373098959027474,0.10373098959027474
0.5328095036474547,0.5328095036474547
1.1309189474847359,1.1309189474847359
1.260942739623275,1.260942739623275
0.40278571150891535,0.40278571150891535
-0.8974522098764787,-0.8974522098764787
-2.730787679029884,-2.730787679029884
-4.083035117270693,-4.083035117270693
-4.083035117270693,-4.083035117270693
-3.393909018936435,-3.393909018936435
-1.9246401677709397,-1.9246401677709397
-1.06648313965658,-1.06648313965658
-0.6634093840271077,-0.6634093840271077
-0.4033617997500289,-0.4033617997500289
-0.23433086996992766,-0.23433086996992766
-0.10430707783138829,-0.10430707783138829
0.06472385194871291,0.06472385194871291
0.16874288565954443,0.16874288565954443
0.2727619193703759,0.2727619193703759
0.23375478172881411,0.23375478172881411
0.23375478172881411,0.23375478172881411
0.19474764408725231,0.19474764408725231
0.2727619193703759,0.2727619193703759
0.19474764408725231,0.19474764408725231
0.33777381543964563,0.33777381543964563
0.4287904699366232,0.4287904699366232
0.40278571150891535,0.40278571150891535
0.467797607578185,0.467797607578185
0.4938023660058929,0.4938023660058929
0.467797607578185,0.467797607578185
0.5718166412890165,0.5718166412890165
0.5978213997167244,0.5978213997167244
0.7018404334275559,0.7018404334275559
0.7278451918552638,0.7278451918552638
0.7018404334275559,0.7018404334275559
0.8318642255660953,0.8318642255660953
0.870871363207657,0.870871363207657
0.8968761216353649,0.8968761216353649
0.9358832592769267,0.9358832592769267
0.8968761216353649,0.8968761216353649
0.9618880177046346,0.9618880177046346
0.8968761216353649,0.8968761216353649
0.7278451918552638,0.7278451918552638
0.5978213997167244,0.5978213997167244
0.4287904699366232,0.4287904699366232
0.33777381543964563,0.33777381543964563
0.2727619193703759,0.2727619193703759
0.16874288565954443,0.16874288565954443
0.16874288565954443,0.16874288565954443
0.1297357480179826,0.1297357480179826
0.10373098959027474,0.10373098959027474
0.03871909352100504,0.03871909352100504
0.06472385194871291,0.06472385194871291
-0.000288044120556775,-0.000288044120556775
0.03871909352100504,0.03871909352100504
-0.000288044120556775,-0.000288044120556775
0.03871909352100504,0.03871909352100504
-0.000288044120556775,-0.000288044120556775
0.1297357480179826,0.1297357480179826
0.10373098959027474,0.10373098959027474
0.1297357480179826,0.1297357480179826
0.1297357480179826,0.1297357480179826
0.10373098959027474,0.10373098959027474
-0.000288044120556775,-0.000288044120556775
-0.026292802548264653,-0.026292802548264653
-0.000288044120556775,-0.000288044120556775
-0.026292802548264653,-0.026292802548264653
-0.026292802548264653,-0.026292802548264653
-0.06529994018982647,-0.06529994018982647
-0.13031183625909618,-0.13031183625909618
-0.13031183625909618,-0.13031183625909618
-0.13031183625909618,-0.13031183625909618
-0.16931897390065798,-0.16931897390065798
-0.13031183625909618,-0.13031183625909618
-0.19532373232836586,-0.19532373232836586
-0.06529994018982647,-0.06529994018982647
-0.026292802548264653,-0.026292802548264653
-0.026292802548264653,-0.026292802548264653
-0.026292802548264653,-0.026292802548264653
-0.000288044120556775,-0.000288044120556775
-0.026292802548264653,-0.026292802548264653
-0.06529994018982647,-0.06529994018982647
-0.13031183625909618,-0.13031183625909618
-0.026292802548264653,-0.026292802548264653
-0.06529994018982647,-0.06529994018982647
-0.06529994018982647,-0.06529994018982647
-0.06529994018982647,-0.06529994018982647
-0.10430707783138829,-0.10430707783138829
-0.13031183625909618,-0.13031183625909618
-0.16931897390065798,-0.16931897390065798
-0.13031183625909618,-0.13031183625909618
-0.06529994018982647,-0.06529994018982647
-0.06529994018982647,-0.06529994018982647
0.03871909352100504,0.03871909352100504
0.06472385194871291,0.06472385194871291
0.06472385194871291,0.06472385194871291
0.06472385194871291,0.06472385194871291
0.19474764408725231,0.19474764408725231
0.6368285373582863,0.6368285373582863
1.065907051415466,1.065907051415466
1.1959308435540055,1.1959308435540055
0.2987666777980838,0.2987666777980838
-0.832440313807209,-0.832440313807209
-2.522749611608221,-2.522749611608221
-4.083035117270693,-4.083035117270693
-4.083035117270693,-4.083035117270693
-3.5889447071442437,-3.5889447071442437
-2.1976901312618726,-2.1976901312618726
-1.1965069317951191,-1.1965069317951191
-0.793433176165647,-0.793433176165647
-0.49437845424700644,-0.49437845424700644
-0.2603356283976356,-0.2603356283976356
-0.06529994018982647,-0.06529994018982647
0.10373098959027474,0.10373098959027474
0.16874288565954443,0.16874288565954443
0.2727619193703759,0.2727619193703759
0.2987666777980838,0.2987666777980838
0.33777381543964563,0.33777381543964563
0.2727619193703759,0.2727619193703759
0.33777381543964563,0.33777381543964563
0.2987666777980838,0.2987666777980838
0.2727619193703759,0.2727619193703759
0.2987666777980838,0.2987666777980838
0.23375478172881411,0.23375478172881411
0.2727619193703759,0.2727619193703759
0.2727619193703759,0.2727619193703759
0.40278571150891535,0.40278571150891535
0.4287904699366232,0.4287904699366232
0.467797607578185,0.467797607578185
0.5718166412890165,0.5718166412890165
0.4938023660058929,0.4938023660058929
0.5718166412890165,0.5718166412890165
0.6368285373582863,0.6368285373582863
0.7278451918552638,0.7278451918552638
0.7668523294968256,0.7668523294968256
0.8318642255660953,0.8318642255660953
0.8318642255660953,0.8318642255660953
0.8968761216353649,0.8968761216353649
0.7928570879245335,0.7928570879245335
0.7278451918552638,0.7278451918552638
0.5978213997167244,0.5978213997167244
0.5328095036474547,0.5328095036474547
0.4938023660058929,0.4938023660058929
0.40278571150891535,0.40278571150891535
0.3637785738673535,0.3637785738673535
0.2727619193703759,0.2727619193703759
0.19474764408725231,0.19474764408725231
0.2727619193703759,0.2727619193703759
0.23375478172881411,0.23375478172881411
0.2727619193703759,0.2727619193703759
0.23375478172881411,0.23375478172881411
0.23375478172881411,0.23375478172881411
0.23375478172881411,0.23375478172881411
0.16874288565954443,0.16874288565954443
0.1297357480179826,0.1297357480179826
0.23375478172881411,0.23375478172881411
0.2727619193703759,0.2727619193703759
0.3637785738673535,0.3637785738673535
0.5718166412890165,0.5718166412890165
0.7928570879245335,0.7928570879245335
1.3649617733341066,1.3649617733341066
2.0280831132406574,2.0280831132406574
2.821228245285748,2.821228245285748
3.58836861890313,3.58836861890313
4.485532784659052,4.485532784659052
5.486715984125805,5.486715984125805
6.123832565604649,6.123832565604649
6.916977697649739,6.916977697649739
8.152203722965863,8.152203722965863
9.114379784791055,9.114379784791055
9.218398818501887,9.218398818501887
8.880336958941683,8.880336958941683
7.047001489788278,7.047001489788278
4.992625573999356,4.992625573999356
3.796406686324793,3.796406686324793
3.15929010484595,3.15929010484595
1.7680355289635787,1.7680355289635787
-0.29934276603919735,-0.29934276603919735
-2.522749611608221,-2.522749611608221
-3.6279518447858057,-3.6279518447858057
-4.083035117270693,-4.083035117270693
-4.083035117270693,-4.083035117270693
-4.083035117270693,-4.083035117270693
-4.083035117270693,-4.083035117270693
-4.083035117270693,-4.083035117270693
-4.083035117270693,-4.083035117270693
-4.083035117270693,-4.083035117270693
-4.083035117270693,-4.083035117270693
-4.083035117270693,-4.083035117270693
-4.083035117270693,-4.083035117270693
-4.083035117270693,-4.083035117270693
-4.083035117270693,-4.083035117270693
-4.083035117270693,-4.083035117270693
-4.083035117270693,-4.083035117270693
-4.083035117270693,-4.083035117270693
-4.083035117270693,-4.083035117270693
-4.083035117270693,-4.083035117270693
-4.083035117270693,-4.083035117270693
-4.083035117270693,-4.083035117270693
-4.083035117270693,-4.083035117270693
-4.083035117270693,-4.083035117270693
-4.083035117270693,-4.083035117270693
-4.083035117270693,-4.083035117270693
-4.083035117270693,-4.083035117270693
-4.083035117270693,-4.083035117270693
-3.8879994290628845,-3.8879994290628845
-3.159866193087064,-3.159866193087064
-2.496744853180513,-2.496744853180513
-1.85962827170167,-1.85962827170167
-1.235514069436681,-1.235514069436681
-0.7024165216686694,-0.7024165216686694
-0.2603356283976356,-0.2603356283976356
0.1297357480179826,0.1297357480179826
0.4287904699366232,0.4287904699366232
0.7018404334275559,0.7018404334275559
0.8318642255660953,0.8318642255660953
0.9618880177046346,0.9618880177046346
1.0268999137739043,1.0268999137739043
1.0268999137739043,1.0268999137739043
0.9618880177046346,0.9618880177046346
1.065907051415466,1.065907051415466
1.065907051415466,1.065907051415466
1.091911809843174,1.091911809843174
1.065907051415466,1.065907051415466
1.091911809843174,1.091911809843174
1.0008951553461964,1.0008951553461964
0.9618880177046346,0.9618880177046346
0.9358832592769267,0.9358832592769267
0.9618880177046346,0.9618880177046346
0.8968761216353649,0.8968761216353649
0.9358832592769267,0.9358832592769267
0.8968761216353649,0.8968761216353649
0.9358832592769267,0.9358832592769267
0.9618880177046346,0.9618880177046346
1.0008951553461964,1.0008951553461964
0.9618880177046346,0.9618880177046346
0.8968761216353649,0.8968761216353649
0.9618880177046346,0.9618880177046346
0.9358832592769267,0.9358832592769267
1.065907051415466,1.065907051415466
1.3909665317618145,1.3909665317618145
1.924064079529826,1.924064079529826
2.0930950093099274,2.0930950093099274
1.5990045991834776,1.5990045991834776
0.9618880177046346,0.9618880177046346
-0.7284212800963773,-0.7284212800963773
-2.3667210610419738,-2.3667210610419738
-3.783980395352053,-3.783980395352053
-3.159866193087064,-3.159866193087064
-1.8986354093432318,-1.8986354093432318
-0.7674284177379391,-0.7674284177379391
-0.19532373232836586,-0.19532373232836586
0.16874288565954443,0.16874288565954443
0.4287904699366232,0.4287904699366232
0.7018404334275559,0.7018404334275559
0.7668523294968256,0.7668523294968256
0.8968761216353649,0.8968761216353649
0.9618880177046346,0.9618880177046346
1.0268999137739043,1.0268999137739043
1.0268999137739043,1.0268999137739043
1.065907051415466,1.065907051415466
1.0008951553461964,1.0008951553461964
0.9358832592769267,0.9358832592769267
0.8968761216353649,0.8968761216353649
0.9358832592769267,0.9358832592769267
0.870871363207657,0.870871363207657
0.9618880177046346,0.9618880177046346
0.8968761216353649,0.8968761216353649
1.065907051415466,1.065907051415466
1.065907051415466,1.065907051415466
1.1309189474847359,1.1309189474847359
1.1699260851262976,1.1699260851262976
1.299949877264837,1.299949877264837
1.3649617733341066,1.3649617733341066
1.5599974615419159,1.5599974615419159
1.6640164952527472,1.6640164952527472
1.6250093576111855,1.6250093576111855
1.7680355289635787,1.7680355289635787
1.7940402873912866,1.7940402873912866
1.5990045991834776,1.5990045991834776
1.4689808070449382,1.4689808070449382
1.260942739623275,1.260942739623275
1.065907051415466,1.065907051415466
0.9618880177046346,0.9618880177046346
0.7278451918552638,0.7278451918552638
0.7668523294968256,0.7668523294968256
0.6368285373582863,0.6368285373582863
0.5328095036474547,0.5328095036474547
0.4287904699366232,0.4287904699366232
0.467797607578185,0.467797607578185
0.40278571150891535,0.40278571150891535
0.3637785738673535,0.3637785738673535
0.2727619193703759,0.2727619193703759
0.2987666777980838,0.2987666777980838
0.2727619193703759,0.2727619193703759
0.2987666777980838,0.2987666777980838
0.2987666777980838,0.2987666777980838
0.33777381543964563,0.33777381543964563
0.2987666777980838,0.2987666777980838
0.2727619193703759,0.2727619193703759
0.2727619193703759,0.2727619193703759
0.2987666777980838,0.2987666777980838
0.2727619193703759,0.2727619193703759
0.2727619193703759,0.2727619193703759
0.2987666777980838,0.2987666777980838
0.23375478172881411,0.23375478172881411
0.2727619193703759,0.2727619193703759
0.19474764408725231,0.19474764408725231
0.1297357480179826,0.1297357480179826
0.10373098959027474,0.10373098959027474
0.16874288565954443,0.16874288565954443
0.1297357480179826,0.1297357480179826
0.16874288565954443,0.16874288565954443
0.06472385194871291,0.06472385194871291
-0.026292802548264653,-0.026292802548264653
-0.026292802548264653,-0.026292802548264653
-0.026292802548264653,-0.026292802548264653
-0.06529994018982647,-0.06529994018982647
-0.026292802548264653,-0.026292802548264653
-0.026292802548264653,-0.026292802548264653
-0.026292802548264653,-0.026292802548264653
-0.026292802548264653,-0.026292802548264653
0.03871909352100504,0.03871909352100504
0.06472385194871291,0.06472385194871291
0.03871909352100504,0.03871909352100504
0.1297357480179826,0.1297357480179826
0.19474764408725231,0.19474764408725231
0.2727619193703759,0.2727619193703759
0.5328095036474547,0.5328095036474547
1.0268999137739043,1.0268999137739043
1.3649617733341066,1.3649617733341066
0.8318642255660953,0.8318642255660953
0.3637785738673535,0.3637785738673535
-1.5345687913553216,-1.5345687913553216
-3.4199137773641426,-3.4199137773641426
-4.083035117270693,-4.083035117270693
-4.057030358842986,-4.057030358842986
-2.665775782960614,-2.665775782960614
-1.43054975764449,-1.43054975764449
-0.832440313807209,-0.832440313807209
-0.5593903503162762,-0.5593903503162762
-0.36435466210846706,-0.36435466210846706
-0.13031183625909618,-0.13031183625909618
0.10373098959027474,0.10373098959027474
0.19474764408725231,0.19474764408725231
0.33777381543964563,0.33777381543964563
0.4287904699366232,0.4287904699366232
0.3637785738673535,0.3637785738673535
0.40278571150891535,0.40278571150891535
0.3637785738673535,0.3637785738673535
0.2987666777980838,0.2987666777980838
0.2987666777980838,0.2987666777980838
0.2727619193703759,0.2727619193703759
0.2727619193703759,0.2727619193703759
0.2727619193703759,0.2727619193703759
0.4287904699366232,0.4287904699366232
0.5328095036474547,0.5328095036474547
0.4938023660058929,0.4938023660058929
0.4938023660058929,0.4938023660058929
0.5978213997167244,0.5978213997167244
0.5978213997167244,0.5978213997167244
0.6368285373582863,0.6368285373582863
0.6628332957859941,0.6628332957859941
0.6628332957859941,0.6628332957859941
0.7668523294968256,0.7668523294968256
0.870871363207657,0.870871363207657
0.8968761216353649,0.8968761216353649
0.9358832592769267,0.9358832592769267
0.8968761216353649,0.8968761216353649
0.7928570879245335,0.7928570879245335
0.7278451918552638,0.7278451918552638
0.5718166412890165,0.5718166412890165
0.4287904699366232,0.4287904699366232
0.40278571150891535,0.40278571150891535
0.3637785738673535,0.3637785738673535
0.2987666777980838,0.2987666777980838
0.2727619193703759,0.2727619193703759
0.19474764408725231,0.19474764408725231
0.16874288565954443,0.16874288565954443
0.2727619193703759,0.2727619193703759
0.19474764408725231,0.19474764408725231
0.23375478172881411,0.23375478172881411
0.19474764408725231,0.19474764408725231
0.1297357480179826,0.1297357480179826
0.16874288565954443,0.16874288565954443
0.19474764408725231,0.19474764408725231
0.1297357480179826,0.1297357480179826
0.10373098959027474,0.10373098959027474
0.1297357480179826,0.1297357480179826
0.10373098959027474,0.10373098959027474
0.10373098959027474,0.10373098959027474
0.23375478172881411,0.23375478172881411
0.1297357480179826,0.1297357480179826
0.1297357480179826,0.1297357480179826
0.10373098959027474,0.10373098959027474
0.1297357480179826,0.1297357480179826
0.10373098959027474,0.10373098959027474
0.10373098959027474,0.10373098959027474
0.06472385194871291,0.06472385194871291
0.10373098959027474,0.10373098959027474
0.10373098959027474,0.10373098959027474
-0.000288044120556775,-0.000288044120556775
-0.06529994018982647,-0.06529994018982647
-0.10430707783138829,-0.10430707783138829
-0.16931897390065798,-0.16931897390065798
-0.10430707783138829,-0.10430707783138829
-0.10430707783138829,-0.10430707783138829
-0.06529994018982647,-0.06529994018982647
-0.026292802548264653,-0.026292802548264653
-0.000288044120556775,-0.000288044120556775
-0.026292802548264653,-0.026292802548264653
-0.000288044120556775,-0.000288044120556775
0.06472385194871291,0.06472385194871291
0.03871909352100504,0.03871909352100504
0.06472385194871291,0.06472385194871291
-0.026292802548264653,-0.026292802548264653
0.03871909352100504,0.03871909352100504
0.03871909352100504,0.03871909352100504
0.03871909352100504,0.03871909352100504
-0.000288044120556775,-0.000288044120556775
0.03871909352100504,0.03871909352100504
-0.026292802548264653,-0.026292802548264653
-0.000288044120556775,-0.000288044120556775
0.06472385194871291,0.06472385194871291
0.1297357480179826,0.1297357480179826
0.2987666777980838,0.2987666777980838
0.8318642255660953,0.8318642255660953
1.1959308435540055,1.1959308435540055
0.6628332957859941,0.6628332957859941
0.06472385194871291,0.06472385194871291
-1.5605735497830295,-1.5605735497830295
-3.224878089156334,-3.224878089156334
-4.083035117270693,-4.083035117270693
-4.083035117270693,-4.083035117270693
-2.886816229596131,-2.886816229596131
-1.5345687913553216,-1.5345687913553216
-0.8974522098764787,-0.8974522098764787
-0.5593903503162762,-0.5593903503162762
-0.4033617997500289,-0.4033617997500289
-0.13031183625909618,-0.13031183625909618
0.03871909352100504,0.03871909352100504
0.2727619193703759,0.2727619193703759
0.33777381543964563,0.33777381543964563
0.3637785738673535,0.3637785738673535
0.2987666777980838,0.2987666777980838
0.4287904699366232,0.4287904699366232
0.3637785738673535,0.3637785738673535
0.4287904699366232,0.4287904699366232
0.4287904699366232,0.4287904699366232
0.4287904699366232,0.4287904699366232
0.40278571150891535,0.40278571150891535
0.467797607578185,0.467797607578185
0.4938023660058929,0.4938023660058929
0.467797607578185,0.467797607578185
0.5328095036474547,0.5328095036474547
0.467797607578185,0.467797607578185
0.4287904699366232,0.4287904699366232
0.4938023660058929,0.4938023660058929
0.5328095036474547,0.5328095036474547
0.5978213997167244,0.5978213997167244
0.6368285373582863,0.6368285373582863
0.7668523294968256,0.7668523294968256
0.8968761216353649,0.8968761216353649
0.8968761216353649,0.8968761216353649
0.9358832592769267,0.9358832592769267
0.8968761216353649,0.8968761216353649
0.8968761216353649,0.8968761216353649
0.7668523294968256,0.7668523294968256
0.6628332957859941,0.6628332957859941
0.5328095036474547,0.5328095036474547
0.4287904699366232,0.4287904699366232
0.2987666777980838,0.2987666777980838
0.23375478172881411,0.23375478172881411
0.1297357480179826,0.1297357480179826
0.1297357480179826,0.1297357480179826
0.1297357480179826,0.1297357480179826
0.16874288565954443,0.16874288565954443
0.19474764408725231,0.19474764408725231
0.2727619193703759,0.2727619193703759
0.19474764408725231,0.19474764408725231
0.16874288565954443,0.16874288565954443
0.19474764408725231,0.19474764408725231
0.19474764408725231,0.19474764408725231
0.2727619193703759,0.2727619193703759
0.19474764408725231,0.19474764408725231
0.23375478172881411,0.23375478172881411
0.1297357480179826,0.1297357480179826
0.16874288565954443,0.16874288565954443
0.10373098959027474,0.10373098959027474
0.06472385194871291,0.06472385194871291
-0.000288044120556775,-0.000288044120556775
-0.026292802548264653,-0.026292802548264653
-0.026292802548264653,-0.026292802548264653
-0.000288044120556775,-0.000288044120556775
-0.026292802548264653,-0.026292802548264653
0.03871909352100504,0.03871909352100504
0.06472385194871291,0.06472385194871291
0.06472385194871291,0.06472385194871291
-0.026292802548264653,-0.026292802548264653
-0.06529994018982647,-0.06529994018982647
-0.026292802548264653,-0.026292802548264653
-0.026292802548264653,-0.026292802548264653
-0.10430707783138829,-0.10430707783138829
-0.10430707783138829,-0.10430707783138829
-0.026292802548264653,-0.026292802548264653
-0.026292802548264653,-0.026292802548264653
-0.000288044120556775,-0.000288044120556775
-0.06529994018982647,-0.06529994018982647
-0.026292802548264653,-0.026292802548264653
0.03871909352100504,0.03871909352100504
0.2987666777980838,0.2987666777980838
0.870871363207657,0.870871363207657
1.299949877264837,1.299949877264837
0.7928570879245335,0.7928570879245335
0.2727619193703759,0.2727619193703759
-1.3655378615752205,-1.3655378615752205
-2.730787679029884,-2.730787679029884
-4.083035117270693,-4.083035117270693
-4.083035117270693,-4.083035117270693
-2.8608114711684234,-2.8608114711684234
-1.5605735497830295,-1.5605735497830295
-1.00147124358731,-1.00147124358731
-0.598397487957838,-0.598397487957838
-0.4033617997500289,-0.4033617997500289
-0.19532373232836586,-0.19532373232836586
-0.06529994018982647,-0.06529994018982647
0.10373098959027474,0.10373098959027474
0.16874288565954443,0.16874288565954443
0.16874288565954443,0.16874288565954443
0.19474764408725231,0.19474764408725231
0.2987666777980838,0.2987666777980838
0.3637785738673535,0.3637785738673535
0.33777381543964563,0.33777381543964563
0.4287904699366232,0.4287904699366232
0.4938023660058929,0.4938023660058929
0.5328095036474547,0.5328095036474547
0.6368285373582863,0.6368285373582863
0.5978213997167244,0.5978213997167244
0.5978213997167244,0.5978213997167244
0.5978213997167244,0.5978213997167244
0.5718166412890165,0.5718166412890165
0.5978213997167244,0.5978213997167244
0.5978213997167244,0.5978213997167244
0.6368285373582863,0.6368285373582863
0.6628332957859941,0.6628332957859941
0.7018404334275559,0.7018404334275559
0.7928570879245335,0.7928570879245335
0.9358832592769267,0.9358832592769267
0.9618880177046346,0.9618880177046346
0.9358832592769267,0.9358832592769267
0.8968761216353649,0.8968761216353649
0.7928570879245335,0.7928570879245335
0.7018404334275559,0.7018404334275559
0.5978213997167244,0.5978213997167244
0.4938023660058929,0.4938023660058929
0.3637785738673535,0.3637785738673535
0.2987666777980838,0.2987666777980838
0.2727619193703759,0.2727619193703759
0.19474764408725231,0.19474764408725231
0.16874288565954443,0.16874288565954443
0.19474764408725231,0.19474764408725231
0.1297357480179826,0.1297357480179826
0.10373098959027474,0.10373098959027474
0.06472385194871291,0.06472385194871291
0.1297357480179826,0.1297357480179826
0.1297357480179826,0.1297357480179826
0.23375478172881411,0.23375478172881411
0.19474764408725231,0.19474764408725231
0.23375478172881411,0.23375478172881411
0.1297357480179826,0.1297357480179826
0.1297357480179826,0.1297357480179826
0.1297357480179826,0.1297357480179826
0.1297357480179826,0.1297357480179826
0.10373098959027474,0.10373098959027474
0.1297357480179826,0.1297357480179826
0.1297357480179826,0.1297357480179826
0.1297357480179826,0.1297357480179826
0.06472385194871291,0.06472385194871291
0.03871909352100504,0.03871909352100504
0.1297357480179826,0.1297357480179826
0.06472385194871291,0.06472385194871291
-0.000288044120556775,-0.000288044120556775
-0.026292802548264653,-0.026292802548264653
0.10373098959027474,0.10373098959027474
0.06472385194871291,0.06472385194871291
0.03871909352100504,0.03871909352100504
-0.000288044120556775,-0.000288044120556775
-0.026292802548264653,-0.026292802548264653
-0.000288044120556775,-0.000288044120556775
-0.026292802548264653,-0.026292802548264653
-0.026292802548264653,-0.026292802548264653
0.03871909352100504,0.03871909352100504
-0.000288044120556775,-0.000288044120556775
-0.000288044120556775,-0.000288044120556775
-0.026292802548264653,-0.026292802548264653
-0.000288044120556775,-0.000288044120556775
-0.13031183625909618,-0.13031183625909618
-0.026292802548264653,-0.026292802548264653
0.03871909352100504,0.03871909352100504
0.06472385194871291,0.06472385194871291
-0.000288044120556775,-0.000288044120556775
0.06472385194871291,0.06472385194871291
0.1297357480179826,0.1297357480179826
-0.000288044120556775,-0.000288044120556775
-0.000288044120556775,-0.000288044120556775
-0.026292802548264653,-0.026292802548264653
0.03871909352100504,0.03871909352100504
-0.000288044120556775,-0.000288044120556775
0.03871909352100504,0.03871909352100504
-0.000288044120556775,-0.000288044120556775
0.03871909352100504,0.03871909352100504
-0.000288044120556775,-0.000288044120556775
0.06472385194871291,0.06472385194871291
0.16874288565954443,0.16874288565954443
0.7018404334275559,0.7018404334275559
1.1309189474847359,1.1309189474847359
1.260942739623275,1.260942739623275
0.7278451918552638,0.7278451918552638
-0.7284212800963773,-0.7284212800963773
-2.2627020273311422,-2.2627020273311422
-4.083035117270693,-4.083035117270693
-4.083035117270693,-4.083035117270693
-3.0558471593762326,-3.0558471593762326
-1.7946163756324005,-1.7946163756324005
-1.027476002015018,-1.027476002015018
-0.6374046255993998,-0.6374046255993998
-0.4033617997500289,-0.4033617997500289
-0.16931897390065798,-0.16931897390065798
-0.026292802548264653,-0.026292802548264653
0.16874288565954443,0.16874288565954443
0.23375478172881411,0.23375478172881411
0.19474764408725231,0.19474764408725231
0.23375478172881411,0.23375478172881411
0.16874288565954443,0.16874288565954443
0.23375478172881411,0.23375478172881411
0.2727619193703759,0.2727619193703759
0.2987666777980838,0.2987666777980838
0.2727619193703759,0.2727619193703759
0.2727619193703759,0.2727619193703759
0.33777381543964563,0.33777381543964563
0.2987666777980838,0.2987666777980838
0.3637785738673535,0.3637785738673535
0.2987666777980838,0.2987666777980838
0.2727619193703759,0.2727619193703759
0.19474764408725231,0.19474764408725231
0.2987666777980838,0.2987666777980838
0.33777381543964563,0.33777381543964563
0.2987666777980838,0.2987666777980838
0.3637785738673535,0.3637785738673535
0.4287904699366232,0.4287904699366232
0.467797607578185,0.467797607578185
0.5978213997167244,0.5978213997167244
0.6628332957859941,0.6628332957859941
0.7278451918552638,0.7278451918552638
0.7278451918552638,0.7278451918552638
0.7278451918552638,0.7278451918552638
0.7668523294968256,0.7668523294968256
0.7018404334275559,0.7018404334275559
0.5978213997167244,0.5978213997167244
0.4287904699366232,0.4287904699366232
0.33777381543964563,0.33777381543964563
0.23375478172881411,0.23375478172881411
0.1297357480179826,0.1297357480179826
0.1297357480179826,0.1297357480179826
0.10373098959027474,0.10373098959027474
0.1297357480179826,0.1297357480179826
0.06472385194871291,0.06472385194871291
-0.000288044120556775,-0.000288044120556775
0.19474764408725231,0.19474764408725231
0.23375478172881411,0.23375478172881411
0.2727619193703759,0.2727619193703759
0.2727619193703759,0.2727619193703759
0.2727619193703759,0.2727619193703759
0.23375478172881411,0.23375478172881411
0.2727619193703759,0.2727619193703759
0.16874288565954443,0.16874288565954443
0.2727619193703759,0.2727619193703759
0.19474764408725231,0.19474764408725231
0.19474764408725231,0.19474764408725231
0.1297357480179826,0.1297357480179826
0.1297357480179826,0.1297357480179826
0.06472385194871291,0.06472385194871291
-0.026292802548264653,-0.026292802548264653
-0.06529994018982647,-0.06529994018982647
-0.10430707783138829,-0.10430707783138829
-0.06529994018982647,-0.06529994018982647
-0.026292802548264653,-0.026292802548264653
-0.06529994018982647,-0.06529994018982647
-0.06529994018982647,-0.06529994018982647
-0.13031183625909618,-0.13031183625909618
-0.16931897390065798,-0.16931897390065798
-0.06529994018982647,-0.06529994018982647
-0.026292802548264653,-0.026292802548264653
-0.000288044120556775,-0.000288044120556775
-0.026292802548264653,-0.026292802548264653
0.03871909352100504,0.03871909352100504
-0.026292802548264653,-0.026292802548264653
0.03871909352100504,0.03871909352100504
-0.000288044120556775,-0.000288044120556775
0.03871909352100504,0.03871909352100504
-0.026292802548264653,-0.026292802548264653
0.03871909352100504,0.03871909352100504
-0.000288044120556775,-0.000288044120556775
0.06472385194871291,0.06472385194871291
0.06472385194871291,0.06472385194871291
0.03871909352100504,0.03871909352100504
-0.026292802548264653,-0.026292802548264653
-0.000288044120556775,-0.000288044120556775
-0.026292802548264653,-0.026292802548264653
0.03871909352100504,0.03871909352100504
0.06472385194871291,0.06472385194871291
0.16874288565954443,0.16874288565954443
0.2727619193703759,0.2727619193703759
0.6628332957859941,0.6628332957859941
1.091911809843174,1.091911809843174
0.8318642255660953,0.8318642255660953
0.2727619193703759,0.2727619193703759
-1.0924878980842878,-1.0924878980842878
-2.730787679029884,-2.730787679029884
-4.083035117270693,-4.083035117270693
-4.083035117270693,-4.083035117270693
-3.2898899852256034,-3.2898899852256034
-1.7296044795631307,-1.7296044795631307
-0.8974522098764787,-0.8974522098764787
-0.5593903503162762,-0.5593903503162762
-0.36435466210846706,-0.36435466210846706
-0.16931897390065798,-0.16931897390065798
-0.000288044120556775,-0.000288044120556775
0.23375478172881411,0.23375478172881411
0.33777381543964563,0.33777381543964563
0.3637785738673535,0.3637785738673535
0.2987666777980838,0.2987666777980838
0.2987666777980838,0.2987666777980838
0.2727619193703759,0.2727619193703759
0.23375478172881411,0.23375478172881411
0.23375478172881411,0.23375478172881411
0.19474764408725231,0.19474764408725231
0.2987666777980838,0.2987666777980838
0.40278571150891535,0.40278571150891535
0.4938023660058929,0.4938023660058929
0.4938023660058929,0.4938023660058929
0.5718166412890165,0.5718166412890165
0.467797607578185,0.467797607578185
0.5328095036474547,0.5328095036474547
0.4938023660058929,0.4938023660058929
0.7018404334275559,0.7018404334275559
0.6368285373582863,0.6368285373582863
0.6628332957859941,0.6628332957859941
0.7018404334275559,0.7018404334275559
0.7278451918552638,0.7278451918552638
0.7928570879245335,0.7928570879245335
0.8318642255660953,0.8318642255660953
0.7668523294968256,0.7668523294968256
0.7278451918552638,0.7278451918552638
0.5978213997167244,0.5978213997167244
0.5718166412890165,0.5718166412890165
0.4287904699366232,0.4287904699366232
0.467797607578185,0.467797607578185
0.40278571150891535,0.40278571150891535
0.2987666777980838,0.2987666777980838
0.2727619193703759,0.2727619193703759
0.2727619193703759,0.2727619193703759
0.23375478172881411,0.23375478172881411
0.19474764408725231,0.19474764408725231
0.2727619193703759,0.2727619193703759
0.2987666777980838,0.2987666777980838
0.2727619193703759,0.2727619193703759
0.1297357480179826,0.1297357480179826
0.10373098959027474,0.10373098959027474
0.1297357480179826,0.1297357480179826
0.16874288565954443,0.16874288565954443
0.03871909352100504,0.03871909352100504
0.06472385194871291,0.06472385194871291
0.10373098959027474,0.10373098959027474
0.1297357480179826,0.1297357480179826
0.10373098959027474,0.10373098959027474
0.06472385194871291,0.06472385194871291
0.03871909352100504,0.03871909352100504
0.06472385194871291,0.06472385194871291
0.03871909352100504,0.03871909352100504
0.10373098959027474,0.10373098959027474
0.03871909352100504,0.03871909352100504
-0.000288044120556775,-0.000288044120556775
0.06472385194871291,0.06472385194871291
0.10373098959027474,0.10373098959027474
0.06472385194871291,0.06472385194871291
-0.000288044120556775,-0.000288044120556775
-0.026292802548264653,-0.026292802548264653
-0.06529994018982647,-0.06529994018982647
-0.16931897390065798,-0.16931897390065798
-0.06529994018982647,-0.06529994018982647
-0.026292802548264653,-0.026292802548264653
-0.06529994018982647,-0.06529994018982647
-0.026292802548264653,-0.026292802548264653
-0.026292802548264653,-0.026292802548264653
-0.026292802548264653,-0.026292802548264653
-0.06529994018982647,-0.06529994018982647
0.06472385194871291,0.06472385194871291
0.03871909352100504,0.03871909352100504
-0.000288044120556775,-0.000288044120556775
-0.026292802548264653,-0.026292802548264653
0.10373098959027474,0.10373098959027474
0.2727619193703759,0.2727619193703759
0.7928570879245335,0.7928570879245335
1.1959308435540055,1.1959308435540055
1.260942739623275,1.260942739623275
0.7278451918552638,0.7278451918552638
-0.6374046255993998,-0.6374046255993998
-2.0286592014817715,-2.0286592014817715
-4.057030358842986,-4.057030358842986
-4.083035117270693,-4.083035117270693
-3.2638852267978953,-3.2638852267978953
-2.054663959909479,-2.054663959909479
-1.235514069436681,-1.235514069436681
-0.793433176165647,-0.793433176165647
-0.5333855918885683,-0.5333855918885683
-0.2603356283976356,-0.2603356283976356
-0.026292802548264653,-0.026292802548264653
0.10373098959027474,0.10373098959027474
0.19474764408725231,0.19474764408725231
0.23375478172881411,0.23375478172881411
0.2727619193703759,0.2727619193703759
0.2727619193703759,0.2727619193703759
0.2727619193703759,0.2727619193703759
0.23375478172881411,0.23375478172881411
0.2727619193703759,0.2727619193703759
0.40278571150891535,0.40278571150891535
0.4287904699366232,0.4287904699366232
0.33777381543964563,0.33777381543964563
0.40278571150891535,0.40278571150891535
0.3637785738673535,0.3637785738673535
0.40278571150891535,0.40278571150891535
0.2987666777980838,0.2987666777980838
0.2987666777980838,0.2987666777980838
0.2987666777980838,0.2987666777980838
0.3637785738673535,0.3637785738673535
0.40278571150891535,0.40278571150891535
0.4287904699366232,0.4287904699366232
0.467797607578185,0.467797607578185
0.5718166412890165,0.5718166412890165
0.6628332957859941,0.6628332957859941
0.7018404334275559,0.7018404334275559
0.7278451918552638,0.7278451918552638
0.8318642255660953,0.8318642255660953
0.7668523294968256,0.7668523294968256
0.6628332957859941,0.6628332957859941
0.6368285373582863,0.6368285373582863
0.5328095036474547,0.5328095036474547
0.4287904699366232,0.4287904699366232
0.3637785738673535,0.3637785738673535
0.2727619193703759,0.2727619193703759
0.19474764408725231,0.19474764408725231
0.1297357480179826,0.1297357480179826
0.06472385194871291,0.06472385194871291
0.03871909352100504,0.03871909352100504
-0.000288044120556775,-0.000288044120556775
-0.026292802548264653,-0.026292802548264653
-0.026292802548264653,-0.026292802548264653
-0.000288044120556775,-0.000288044120556775
0.03871909352100504,0.03871909352100504
0.1297357480179826,0.1297357480179826
0.19474764408725231,0.19474764408725231
0.19474764408725231,0.19474764408725231
0.16874288565954443,0.16874288565954443
0.19474764408725231,0.19474764408725231
0.16874288565954443,0.16874288565954443
0.23375478172881411,0.23375478172881411
0.1297357480179826,0.1297357480179826
0.1297357480179826,0.1297357480179826
0.16874288565954443,0.16874288565954443
0.1297357480179826,0.1297357480179826
0.16874288565954443,0.16874288565954443
0.19474764408725231,0.19474764408725231
0.10373098959027474,0.10373098959027474
0.1297357480179826,0.1297357480179826
0.1297357480179826,0.1297357480179826
0.06472385194871291,0.06472385194871291
-0.026292802548264653,-0.026292802548264653
0.03871909352100504,0.03871909352100504
0.10373098959027474,0.10373098959027474
0.03871909352100504,0.03871909352100504
-0.026292802548264653,-0.026292802548264653
-0.06529994018982647,-0.06529994018982647
-0.06529994018982647,-0.06529994018982647
-0.026292802548264653,-0.026292802548264653
0.03871909352100504,0.03871909352100504
0.1297357480179826,0.1297357480179826
0.2987666777980838,0.2987666777980838
0.7928570879245335,0.7928570879245335
1.260942739623275,1.260942739623275
0.9358832592769267,0.9358832592769267
0.3637785738673535,0.3637785738673535
-1.3915426200029284,-1.3915426200029284
-3.224878089156334,-3.224878089156334
-4.083035117270693,-4.083035117270693
-4.083035117270693,-4.083035117270693
-2.886816229596131,-2.886816229596131
-1.5345687913553216,-1.5345687913553216
-0.8974522098764787,-0.8974522098764787
-0.49437845424700644,-0.49437845424700644
-0.36435466210846706,-0.36435466210846706
-0.10430707783138829,-0.10430707783138829
0.06472385194871291,0.06472385194871291
0.23375478172881411,0.23375478172881411
0.33777381543964563,0.33777381543964563
0.4287904699366232,0.4287904699366232
0.3637785738673535,0.3637785738673535
0.40278571150891535,0.40278571150891535
0.4287904699366232,0.4287904699366232
0.40278571150891535,0.40278571150891535
0.3637785738673535,0.3637785738673535
0.3637785738673535,0.3637785738673535
0.4287904699366232,0.4287904699366232
0.5978213997167244,0.5978213997167244
0.4938023660058929,0.4938023660058929
0.467797607578185,0.467797607578185
0.5718166412890165,0.5718166412890165
0.5978213997167244,0.5978213997167244
0.5328095036474547,0.5328095036474547
0.5978213997167244,0.5978213997167244
0.7018404334275559,0.7018404334275559
0.7278451918552638,0.7278451918552638
0.7668523294968256,0.7668523294968256
0.7928570879245335,0.7928570879245335
0.870871363207657,0.870871363207657
0.9618880177046346,0.9618880177046346
0.9618880177046346,0.9618880177046346
0.8968761216353649,0.8968761216353649
0.8968761216353649,0.8968761216353649
0.7278451918552638,0.7278451918552638
0.7278451918552638,0.7278451918552638
0.6368285373582863,0.6368285373582863
0.5328095036474547,0.5328095036474547
0.40278571150891535,0.40278571150891535
0.2987666777980838,0.2987666777980838
0.2727619193703759,0.2727619193703759
0.23375478172881411,0.23375478172881411
0.16874288565954443,0.16874288565954443
0.1297357480179826,0.1297357480179826
0.1297357480179826,0.1297357480179826
0.1297357480179826,0.1297357480179826
0.1297357480179826,0.1297357480179826
0.1297357480179826,0.1297357480179826
0.1297357480179826,0.1297357480179826
0.1297357480179826,0.1297357480179826
0.1297357480179826,0.1297357480179826
0.1297357480179826,0.1297357480179826
0.1297357480179826,0.1297357480179826
0.1297357480179826,0.1297357480179826
0.1297357480179826,0.1297357480179826
0.1297357480179826,0.1297357480179826
0.16874288565954443,0.16874288565954443
0.1297357480179826,0.1297357480179826
0.1297357480179826,0.1297357480179826
0.1297357480179826,0.1297357480179826
0.10373098959027474,0.10373098959027474
0.03871909352100504,0.03871909352100504
0.06472385194871291,0.06472385194871291
0.03871909352100504,0.03871909352100504
-0.026292802548264653,-0.026292802548264653
-0.026292802548264653,-0.026292802548264653
-0.000288044120556775,-0.000288044120556775
-0.13031183625909618,-0.13031183625909618
-0.026292802548264653,-0.026292802548264653
-0.026292802548264653,-0.026292802548264653
-0.026292802548264653,-0.026292802548264653
-0.026292802548264653,-0.026292802548264653
-0.000288044120556775,-0.000288044120556775
0.03871909352100504,0.03871909352100504
-0.000288044120556775,-0.000288044120556775
0.06472385194871291,0.06472385194871291
-0.000288044120556775,-0.000288044120556775
0.06472385194871291,0.06472385194871291
-0.000288044120556775,-0.000288044120556775
0.06472385194871291,0.06472385194871291
-0.000288044120556775,-0.000288044120556775
0.03871909352100504,0.03871909352100504
0.03871909352100504,0.03871909352100504
0.16874288565954443,0.16874288565954443
0.5328095036474547,0.5328095036474547
1.0008951553461964,1.0008951553461964
1.065907051415466,1.065907051415466
0.16874288565954443,0.16874288565954443
-1.1574997941535574,-1.1574997941535574
-2.8218043335268614,-2.8218043335268614
-4.083035117270693,-4.083035117270693
-4.083035117270693,-4.083035117270693
-3.3288971228671653,-3.3288971228671653
-1.8986354093432318,-1.8986354093432318
-0.9624641059457484,-0.9624641059457484
-0.598397487957838,-0.598397487957838
-0.36435466210846706,-0.36435466210846706
-0.06529994018982647,-0.06529994018982647
0.10373098959027474,0.10373098959027474
0.23375478172881411,0.23375478172881411
0.40278571150891535,0.40278571150891535
0.2987666777980838,0.2987666777980838
0.2727619193703759,0.2727619193703759
0.2727619193703759,0.2727619193703759
0.33777381543964563,0.33777381543964563
0.2727619193703759,0.2727619193703759
0.3637785738673535,0.3637785738673535
0.2987666777980838,0.2987666777980838
0.33777381543964563,0.33777381543964563
0.2987666777980838,0.2987666777980838
0.3637785738673535,0.3637785738673535
0.40278571150891535,0.40278571150891535
0.4287904699366232,0.4287904699366232
0.4287904699366232,0.4287904699366232
0.5328095036474547,0.5328095036474547
0.4938023660058929,0.4938023660058929
0.5978213997167244,0.5978213997167244
0.7018404334275559,0.7018404334275559
0.6368285373582863,0.6368285373582863
0.7668523294968256,0.7668523294968256
0.870871363207657,0.870871363207657
0.9618880177046346,0.9618880177046346
1.0268999137739043,1.0268999137739043
1.065907051415466,1.065907051415466
0.8968761216353649,0.8968761216353649
0.7278451918552638,0.7278451918552638
0.6368285373582863,0.6368285373582863
0.467797607578185,0.467797607578185
0.2727619193703759,0.2727619193703759
0.19474764408725231,0.19474764408725231
0.23375478172881411,0.23375478172881411
0.1297357480179826,0.1297357480179826
0.06472385194871291,0.06472385194871291
0.10373098959027474,0.10373098959027474
-0.026292802548264653,-0.026292802548264653
0.03871909352100504,0.03871909352100504
0.03871909352100504,0.03871909352100504
0.1297357480179826,0.1297357480179826
0.10373098959027474,0.10373098959027474
0.19474764408725231,0.19474764408725231
0.19474764408725231,0.19474764408725231
0.2727619193703759,0.2727619193703759
0.19474764408725231,0.19474764408725231
0.16874288565954443,0.16874288565954443
0.1297357480179826,0.1297357480179826
0.10373098959027474,0.10373098959027474
0.06472385194871291,0.06472385194871291
0.03871909352100504,0.03871909352100504
-0.026292802548264653,-0.026292802548264653
-0.026292802548264653,-0.026292802548264653
-0.10430707783138829,-0.10430707783138829
-0.19532373232836586,-0.19532373232836586
-0.19532373232836586,-0.19532373232836586
-0.16931897390065798,-0.16931897390065798
-0.13031183625909618,-0.13031183625909618
-0.16931897390065798,-0.16931897390065798
-0.19532373232836586,-0.19532373232836586
-0.10430707783138829,-0.10430707783138829
-0.026292802548264653,-0.026292802548264653
0.06472385194871291,0.06472385194871291
0.1297357480179826,0.1297357480179826
0.1297357480179826,0.1297357480179826
0.4287904699366232,0.4287904699366232
0.8968761216353649,0.8968761216353649
1.0268999137739043,1.0268999137739043
0.10373098959027474,0.10373098959027474
-0.5333855918885683,-0.5333855918885683
-2.3667210610419738,-2.3667210610419738
-4.083035117270693,-4.083035117270693
-4.083035117270693,-4.083035117270693
-4.083035117270693,-4.083035117270693
-2.6917805413883222,-2.6917805413883222
-1.43054975764449,-1.43054975764449
-0.8974522098764787,-0.8974522098764787
-0.6634093840271077,-0.6634093840271077
-0.4293665581777368,-0.4293665581777368
-0.23433086996992766,-0.23433086996992766
0.03871909352100504,0.03871909352100504
0.19474764408725231,0.19474764408725231
0.2987666777980838,0.2987666777980838
0.2987666777980838,0.2987666777980838
0.4287904699366232,0.4287904699366232
0.40278571150891535,0.40278571150891535
0.4287904699366232,0.4287904699366232
0.2727619193703759,0.2727619193703759
0.3637785738673535,0.3637785738673535
0.2987666777980838,0.2987666777980838
0.33777381543964563,0.33777381543964563
0.3637785738673535,0.3637785738673535
0.4287904699366232,0.4287904699366232
0.4287904699366232,0.4287904699366232
0.4287904699366232,0.4287904699366232
0.4938023660058929,0.4938023660058929
0.5328095036474547,0.5328095036474547
0.5718166412890165,0.5718166412890165
0.6628332957859941,0.6628332957859941
0.7278451918552638,0.7278451918552638
0.8318642255660953,0.8318642255660953
0.8968761216353649,0.8968761216353649
0.9618880177046346,0.9618880177046346
1.065907051415466,1.065907051415466
1.0268999137739043,1.0268999137739043
0.8968761216353649,0.8968761216353649
0.7278451918552638,0.7278451918552638
0.6628332957859941,0.6628332957859941
0.467797607578185,0.467797607578185
0.2727619193703759,0.2727619193703759
0.19474764408725231,0.19474764408725231
0.1297357480179826,0.1297357480179826
0.1297357480179826,0.1297357480179826
0.06472385194871291,0.06472385194871291
-0.000288044120556775,-0.000288044120556775
0.03871909352100504,0.03871909352100504
0.03871909352100504,0.03871909352100504
0.06472385194871291,0.06472385194871291
0.10373098959027474,0.10373098959027474
0.06472385194871291,0.06472385194871291
0.06472385194871291,0.06472385194871291
0.06472385194871291,0.06472385194871291
0.03871909352100504,0.03871909352100504
0.03871909352100504,0.03871909352100504
0.06472385194871291,0.06472385194871291
-0.026292802548264653,-0.026292802548264653
-0.06529994018982647,-0.06529994018982647
-0.13031183625909618,-0.13031183625909618
-0.13031183625909618,-0.13031183625909618
-0.10430707783138829,-0.10430707783138829
-0.06529994018982647,-0.06529994018982647
-0.13031183625909618,-0.13031183625909618
-0.13031183625909618,-0.13031183625909618
-0.06529994018982647,-0.06529994018982647
0.10373098959027474,0.10373098959027474
0.5328095036474547,0.5328095036474547
0.9358832592769267,0.9358832592769267
0.467797607578185,0.467797607578185
-0.29934276603919735,-0.29934276603919735
-1.4955616537137597,-1.4955616537137597
-2.7957995750991538,-2.7957995750991538
-4.083035117270693,-4.083035117270693
-4.083035117270693,-4.083035117270693
-3.354901881294873,-3.354901881294873
-1.85962827170167,-1.85962827170167
-1.027476002015018,-1.027476002015018
-0.6634093840271077,-0.6634093840271077
-0.4293665581777368,-0.4293665581777368
-0.2603356283976356,-0.2603356283976356
-0.13031183625909618,-0.13031183625909618
0.03871909352100504,0.03871909352100504
0.10373098959027474,0.10373098959027474
0.16874288565954443,0.16874288565954443
0.1297357480179826,0.1297357480179826
0.16874288565954443,0.16874288565954443
0.1297357480179826,0.1297357480179826
0.1297357480179826,0.1297357480179826
0.19474764408725231,0.19474764408725231
0.2987666777980838,0.2987666777980838
0.2987666777980838,0.2987666777980838
0.2727619193703759,0.2727619193703759
0.2727619193703759,0.2727619193703759
0.2987666777980838,0.2987666777980838
0.467797607578185,0.467797607578185
0.4287904699366232,0.4287904699366232
0.5978213997167244,0.5978213997167244
0.5978213997167244,0.5978213997167244
0.6368285373582863,0.6368285373582863
0.6628332957859941,0.6628332957859941
0.7278451918552638,0.7278451918552638
0.870871363207657,0.870871363207657
0.8968761216353649,0.8968761216353649
0.8968761216353649,0.8968761216353649
0.7928570879245335,0.7928570879245335
0.6368285373582863,0.6368285373582863
0.6368285373582863,0.6368285373582863
0.4938023660058929,0.4938023660058929
0.3637785738673535,0.3637785738673535
0.19474764408725231,0.19474764408725231
0.1297357480179826,0.1297357480179826
0.03871909352100504,0.03871909352100504
-0.026292802548264653,-0.026292802548264653
-0.026292802548264653,-0.026292802548264653
-0.026292802548264653,-0.026292802548264653
0.10373098959027474,0.10373098959027474
0.1297357480179826,0.1297357480179826
0.06472385194871291,0.06472385194871291
0.03871909352100504,0.03871909352100504
0.1297357480179826,0.1297357480179826
-0.000288044120556775,-0.000288044120556775
0.06472385194871291,0.06472385194871291
-0.000288044120556775,-0.000288044120556775
-0.026292802548264653,-0.026292802548264653
0.03871909352100504,0.03871909352100504
-0.026292802548264653,-0.026292802548264653
-0.13031183625909618,-0.13031183625909618
-0.16931897390065798,-0.16931897390065798
-0.19532373232836586,-0.19532373232836586
-0.23433086996992766,-0.23433086996992766
-0.23433086996992766,-0.23433086996992766
-0.19532373232836586,-0.19532373232836586
-0.16931897390065798,-0.16931897390065798
-0.13031183625909618,-0.13031183625909618
-0.13031183625909618,-0.13031183625909618
-0.10430707783138829,-0.10430707783138829
-0.06529994018982647,-0.06529994018982647
-0.06529994018982647,-0.06529994018982647
-0.026292802548264653,-0.026292802548264653
-0.026292802548264653,-0.026292802548264653
-0.026292802548264653,-0.026292802548264653
-0.06529994018982647,-0.06529994018982647
-0.026292802548264653,-0.026292802548264653
-0.10430707783138829,-0.10430707783138829
-0.16931897390065798,-0.16931897390065798
-0.10430707783138829,-0.10430707783138829
-0.16931897390065798,-0.16931897390065798
-0.19532373232836586,-0.19532373232836586
-0.23433086996992766,-0.23433086996992766
-0.19532373232836586,-0.19532373232836586
-0.16931897390065798,-0.16931897390065798
-0.10430707783138829,-0.10430707783138829
-0.06529994018982647,-0.06529994018982647
-0.19532373232836586,-0.19532373232836586
-0.16931897390065798,-0.16931897390065798
-0.10430707783138829,-0.10430707783138829
-0.06529994018982647,-0.06529994018982647
-0.10430707783138829,-0.10430707783138829
-0.026292802548264653,-0.026292802548264653
-0.000288044120556775,-0.000288044120556775
-0.10430707783138829,-0.10430707783138829
-0.026292802548264653,-0.026292802548264653
-0.026292802548264653,-0.026292802548264653
0.03871909352100504,0.03871909352100504
0.19474764408725231,0.19474764408725231
0.7278451918552638,0.7278451918552638
1.091911809843174,1.091911809843174
0.8318642255660953,0.8318642255660953
0.467797607578185,0.467797607578185
-0.9624641059457484,-0.9624641059457484
-2.3667210610419738,-2.3667210610419738
-4.083035117270693,-4.083035117270693
-4.083035117270693,-4.083035117270693
-3.094854297017794,-3.094854297017794
-1.8986354093432318,-1.8986354093432318
-1.06648313965658,-1.06648313965658
-0.7024165216686694,-0.7024165216686694
-0.46837369581929855,-0.46837369581929855
-0.23433086996992766,-0.23433086996992766
-0.06529994018982647,-0.06529994018982647
-0.000288044120556775,-0.000288044120556775
0.1297357480179826,0.1297357480179826
0.19474764408725231,0.19474764408725231
0.23375478172881411,0.23375478172881411
0.23375478172881411,0.23375478172881411
0.23375478172881411,0.23375478172881411
0.2727619193703759,0.2727619193703759
0.19474764408725231,0.19474764408725231
0.2727619193703759,0.2727619193703759
0.23375478172881411,0.23375478172881411
0.23375478172881411,0.23375478172881411
0.23375478172881411,0.23375478172881411
0.23375478172881411,0.23375478172881411
0.16874288565954443,0.16874288565954443
0.19474764408725231,0.19474764408725231
0.16874288565954443,0.16874288565954443
0.2727619193703759,0.2727619193703759
0.2727619193703759,0.2727619193703759
0.33777381543964563,0.33777381543964563
0.4287904699366232,0.4287904699366232
0.4938023660058929,0.4938023660058929
0.5978213997167244,0.5978213997167244
0.7018404334275559,0.7018404334275559
0.7668523294968256,0.7668523294968256
0.870871363207657,0.870871363207657
0.7668523294968256,0.7668523294968256
0.6628332957859941,0.6628332957859941
0.6368285373582863,0.6368285373582863
0.5978213997167244,0.5978213997167244
0.4287904699366232,0.4287904699366232
0.2727619193703759,0.2727619193703759
0.23375478172881411,0.23375478172881411
0.16874288565954443,0.16874288565954443
0.1297357480179826,0.1297357480179826
0.06472385194871291,0.06472385194871291
0.06472385194871291,0.06472385194871291
0.03871909352100504,0.03871909352100504
-0.026292802548264653,-0.026292802548264653
-0.026292802548264653,-0.026292802548264653
0.1297357480179826,0.1297357480179826
0.16874288565954443,0.16874288565954443
0.23375478172881411,0.23375478172881411
0.19474764408725231,0.19474764408725231
0.2727619193703759,0.2727619193703759
0.19474764408725231,0.19474764408725231
0.19474764408725231,0.19474764408725231
0.16874288565954443,0.16874288565954443
0.23375478172881411,0.23375478172881411
0.5328095036474547,0.5328095036474547
1.091911809843174,1.091911809843174
1.3909665317618145,1.3909665317618145
0.4938023660058929,0.4938023660058929
-0.2603356283976356,-0.2603356283976356
-2.054663959909479,-2.054663959909479
-3.953011325132154,-3.953011325132154
-4.083035117270693,-4.083035117270693
-3.9270065667044465,-3.9270065667044465
-2.496744853180513,-2.496744853180513
-1.3655378615752205,-1.3655378615752205
-0.832440313807209,-0.832440313807209
-0.5333855918885683,-0.5333855918885683
-0.3383499036807592,-0.3383499036807592
-0.06529994018982647,-0.06529994018982647
0.10373098959027474,0.10373098959027474
0.2727619193703759,0.2727619193703759
0.2727619193703759,0.2727619193703759
0.2727619193703759,0.2727619193703759
0.16874288565954443,0.16874288565954443
0.2987666777980838,0.2987666777980838
0.23375478172881411,0.23375478172881411
0.1297357480179826,0.1297357480179826
0.19474764408725231,0.19474764408725231
0.23375478172881411,0.23375478172881411
0.19474764408725231,0.19474764408725231
0.2727619193703759,0.2727619193703759
0.3637785738673535,0.3637785738673535
0.4287904699366232,0.4287904699366232
0.4287904699366232,0.4287904699366232
0.4938023660058929,0.4938023660058929
0.5978213997167244,0.5978213997167244
0.6368285373582863,0.6368285373582863
0.7278451918552638,0.7278451918552638
0.870871363207657,0.870871363207657
0.8968761216353649,0.8968761216353649
0.9358832592769267,0.9358832592769267
1.0008951553461964,1.0008951553461964
0.8318642255660953,0.8318642255660953
0.7928570879245335,0.7928570879245335
0.7018404334275559,0.7018404334275559
0.5718166412890165,0.5718166412890165
0.3637785738673535,0.3637785738673535
0.23375478172881411,0.23375478172881411
0.1297357480179826,0.1297357480179826
0.1297357480179826,0.1297357480179826
0.06472385194871291,0.06472385194871291
-0.000288044120556775,-0.000288044120556775
-0.026292802548264653,-0.026292802548264653
-0.026292802548264653,-0.026292802548264653
-0.026292802548264653,-0.026292802548264653
-0.026292802548264653,-0.026292802548264653
-0.000288044120556775,-0.000288044120556775
0.03871909352100504,0.03871909352100504
-0.000288044120556775,-0.000288044120556775
-0.000288044120556775,-0.000288044120556775
-0.026292802548264653,-0.026292802548264653
-0.10430707783138829,-0.10430707783138829
-0.16931897390065798,-0.16931897390065798
-0.13031183625909618,-0.13031183625909618
-0.16931897390065798,-0.16931897390065798
-0.16931897390065798,-0.16931897390065798
-0.06529994018982647,-0.06529994018982647
-0.16931897390065798,-0.16931897390065798
-0.16931897390065798,-0.16931897390065798
-0.19532373232836586,-0.19532373232836586
-0.13031183625909618,-0.13031183625909618
-0.10430707783138829,-0.10430707783138829
-0.06529994018982647,-0.06529994018982647
-0.10430707783138829,-0.10430707783138829
-0.13031183625909618,-0.13031183625909618
-0.16931897390065798,-0.16931897390065798
-0.06529994018982647,-0.06529994018982647
-0.026292802548264653,-0.026292802548264653
-0.13031183625909618,-0.13031183625909618
-0.10430707783138829,-0.10430707783138829
-0.10430707783138829,-0.10430707783138829
-0.19532373232836586,-0.19532373232836586
-0.23433086996992766,-0.23433086996992766
-0.19532373232836586,-0.19532373232836586
-0.10430707783138829,-0.10430707783138829
-0.06529994018982647,-0.06529994018982647
-0.13031183625909618,-0.13031183625909618
-0.000288044120556775,-0.000288044120556775
0.19474764408725231,0.19474764408725231
0.6628332957859941,0.6628332957859941
1.0008951553461964,1.0008951553461964
0.5718166412890165,0.5718166412890165
-0.06529994018982647,-0.06529994018982647
-1.7296044795631307,-1.7296044795631307
-3.2638852267978953,-3.2638852267978953
-4.083035117270693,-4.083035117270693
-4.083035117270693,-4.083035117270693
-3.159866193087064,-3.159866193087064
-1.7556092379908386,-1.7556092379908386
-1.06648313965658,-1.06648313965658
-0.6634093840271077,-0.6634093840271077
-0.36435466210846706,-0.36435466210846706
-0.19532373232836586,-0.19532373232836586
-0.06529994018982647,-0.06529994018982647
0.03871909352100504,0.03871909352100504
0.1297357480179826,0.1297357480179826
0.19474764408725231,0.19474764408725231
0.2727619193703759,0.2727619193703759
0.2727619193703759,0.2727619193703759
0.2727619193703759,0.2727619193703759
0.23375478172881411,0.23375478172881411
0.19474764408725231,0.19474764408725231
0.23375478172881411,0.23375478172881411
0.16874288565954443,0.16874288565954443
0.19474764408725231,0.19474764408725231
0.16874288565954443,0.16874288565954443
0.23375478172881411,0.23375478172881411
0.19474764408725231,0.19474764408725231
0.3637785738673535,0.3637785738673535
0.5718166412890165,0.5718166412890165
0.6368285373582863,0.6368285373582863
0.6628332957859941,0.6628332957859941
0.6368285373582863,0.6368285373582863
0.7018404334275559,0.7018404334275559
0.7278451918552638,0.7278451918552638
0.7668523294968256,0.7668523294968256
0.8318642255660953,0.8318642255660953
0.870871363207657,0.870871363207657
0.7928570879245335,0.7928570879245335
0.7018404334275559,0.7018404334275559
0.5978213997167244,0.5978213997167244
0.4938023660058929,0.4938023660058929
0.33777381543964563,0.33777381543964563
0.19474764408725231,0.19474764408725231
0.16874288565954443,0.16874288565954443
0.16874288565954443,0.16874288565954443
0.1297357480179826,0.1297357480179826
0.19474764408725231,0.19474764408725231
0.1297357480179826,0.1297357480179826
0.1297357480179826,0.1297357480179826
0.1297357480179826,0.1297357480179826
0.1297357480179826,0.1297357480179826
0.1297357480179826,0.1297357480179826
0.10373098959027474,0.10373098959027474
0.10373098959027474,0.10373098959027474
0.1297357480179826,0.1297357480179826
0.03871909352100504,0.03871909352100504
-0.026292802548264653,-0.026292802548264653
-0.026292802548264653,-0.026292802548264653
-0.06529994018982647,-0.06529994018982647
-0.10430707783138829,-0.10430707783138829
-0.06529994018982647,-0.06529994018982647
-0.13031183625909618,-0.13031183625909618
-0.16931897390065798,-0.16931897390065798
-0.10430707783138829,-0.10430707783138829
-0.13031183625909618,-0.13031183625909618
-0.026292802548264653,-0.026292802548264653
-0.10430707783138829,-0.10430707783138829
-0.10430707783138829,-0.10430707783138829
-0.13031183625909618,-0.13031183625909618
-0.10430707783138829,-0.10430707783138829
-0.026292802548264653,-0.026292802548264653
-0.026292802548264653,-0.026292802548264653
-0.06529994018982647,-0.06529994018982647
-0.10430707783138829,-0.10430707783138829
-0.13031183625909618,-0.13031183625909618
-0.10430707783138829,-0.10430707783138829
-0.19532373232836586,-0.19532373232836586
-0.16931897390065798,-0.16931897390065798
-0.19532373232836586,-0.19532373232836586
-0.2603356283976356,-0.2603356283976356
-0.19532373232836586,-0.19532373232836586
-0.13031183625909618,-0.13031183625909618
-0.06529994018982647,-0.06529994018982647
-0.13031183625909618,-0.13031183625909618
-0.16931897390065798,-0.16931897390065798
-0.06529994018982647,-0.06529994018982647
-0.06529994018982647,-0.06529994018982647
-0.06529994018982647,-0.06529994018982647
-0.10430707783138829,-0.10430707783138829
-0.10430707783138829,-0.10430707783138829
-0.026292802548264653,-0.026292802548264653
0.1297357480179826,0.1297357480179826
0.4287904699366232,0.4287904699366232
0.8318642255660953,0.8318642255660953
0.9618880177046346,0.9618880177046346
-0.000288044120556775,-0.000288044120556775
-1.1314950357258495,-1.1314950357258495
-2.5877615076774907,-2.5877615076774907
-4.083035117270693,-4.083035117270693
-4.083035117270693,-4.083035117270693
-3.562939948716536,-3.562939948716536
-2.2236948896895803,-2.2236948896895803
-1.235514069436681,-1.235514069436681
-0.832440313807209,-0.832440313807209
-0.5333855918885683,-0.5333855918885683
-0.3383499036807592,-0.3383499036807592
-0.13031183625909618,-0.13031183625909618
0.06472385194871291,0.06472385194871291
0.19474764408725231,0.19474764408725231
0.19474764408725231,0.19474764408725231
0.2727619193703759,0.2727619193703759
0.23375478172881411,0.23375478172881411
0.19474764408725231,0.19474764408725231
0.23375478172881411,0.23375478172881411
0.16874288565954443,0.16874288565954443
0.2727619193703759,0.2727619193703759
0.2727619193703759,0.2727619193703759
0.2727619193703759,0.2727619193703759
0.2727619193703759,0.2727619193703759
0.2727619193703759,0.2727619193703759
0.2727619193703759,0.2727619193703759
0.2987666777980838,0.2987666777980838
0.2987666777980838,0.2987666777980838
0.3637785738673535,0.3637785738673535
0.33777381543964563,0.33777381543964563
0.40278571150891535,0.40278571150891535
0.5328095036474547,0.5328095036474547
0.4938023660058929,0.4938023660058929
0.5328095036474547,0.5328095036474547
0.5978213997167244,0.5978213997167244
0.7278451918552638,0.7278451918552638
0.7928570879245335,0.7928570879245335
0.8968761216353649,0.8968761216353649
0.7928570879245335,0.7928570879245335
0.6368285373582863,0.6368285373582863
0.5718166412890165,0.5718166412890165
0.4287904699366232,0.4287904699366232
0.3637785738673535,0.3637785738673535
0.23375478172881411,0.23375478172881411
0.23375478172881411,0.23375478172881411
0.2727619193703759,0.2727619193703759
0.16874288565954443,0.16874288565954443
0.1297357480179826,0.1297357480179826
0.10373098959027474,0.10373098959027474
0.1297357480179826,0.1297357480179826
0.06472385194871291,0.06472385194871291
0.06472385194871291,0.06472385194871291
0.03871909352100504,0.03871909352100504
0.03871909352100504,0.03871909352100504
0.03871909352100504,0.03871909352100504
0.10373098959027474,0.10373098959027474
0.1297357480179826,0.1297357480179826
0.1297357480179826,0.1297357480179826
0.10373098959027474,0.10373098959027474
0.1297357480179826,0.1297357480179826
0.10373098959027474,0.10373098959027474
0.06472385194871291,0.06472385194871291
0.1297357480179826,0.1297357480179826
0.19474764408725231,0.19474764408725231
0.40278571150891535,0.40278571150891535
0.870871363207657,0.870871363207657
1.1959308435540055,1.1959308435540055
0.5718166412890165,0.5718166412890165
-0.06529994018982647,-0.06529994018982647
-1.5995806874245913,-1.5995806874245913
-2.964830504879255,-2.964830504879255
-4.083035117270693,-4.083035117270693
-4.083035117270693,-4.083035117270693
-2.8608114711684234,-2.8608114711684234
-1.5995806874245913,-1.5995806874245913
-0.9364593475180405,-0.9364593475180405
-0.5593903503162762,-0.5593903503162762
-0.29934276603919735,-0.29934276603919735
-0.10430707783138829,-0.10430707783138829
0.1297357480179826,0.1297357480179826
0.2727619193703759,0.2727619193703759
0.33777381543964563,0.33777381543964563
0.3637785738673535,0.3637785738673535
0.2727619193703759,0.2727619193703759
0.3637785738673535,0.3637785738673535
0.2987666777980838,0.2987666777980838
0.23375478172881411,0.23375478172881411
0.23375478172881411,0.23375478172881411
0.19474764408725231,0.19474764408725231
0.2727619193703759,0.2727619193703759
0.33777381543964563,0.33777381543964563
0.3637785738673535,0.3637785738673535
0.467797607578185,0.467797607578185
0.4287904699366232,0.4287904699366232
0.4938023660058929,0.4938023660058929
0.5978213997167244,0.5978213997167244
0.6628332957859941,0.6628332957859941
0.7278451918552638,0.7278451918552638
0.870871363207657,0.870871363207657
1.0008951553461964,1.0008951553461964
1.091911809843174,1.091911809843174
1.1309189474847359,1.1309189474847359
1.065907051415466,1.065907051415466
1.1309189474847359,1.1309189474847359
0.870871363207657,0.870871363207657
0.7018404334275559,0.7018404334275559
0.5328095036474547,0.5328095036474547
0.4287904699366232,0.4287904699366232
0.33777381543964563,0.33777381543964563
0.2727619193703759,0.2727619193703759
0.16874288565954443,0.16874288565954443
0.19474764408725231,0.19474764408725231
0.1297357480179826,0.1297357480179826
0.1297357480179826,0.1297357480179826
0.10373098959027474,0.10373098959027474
0.06472385194871291,0.06472385194871291
0.16874288565954443,0.16874288565954443
0.10373098959027474,0.10373098959027474
0.1297357480179826,0.1297357480179826
0.16874288565954443,0.16874288565954443
0.23375478172881411,0.23375478172881411
0.19474764408725231,0.19474764408725231
0.1297357480179826,0.1297357480179826
0.1297357480179826,0.1297357480179826
0.16874288565954443,0.16874288565954443
0.1297357480179826,0.1297357480179826
0.6628332957859941,0.6628332957859941
1.1959308435540055,1.1959308435540055
1.4689808070449382,1.4689808070449382
0.7928570879245335,0.7928570879245335
0.2727619193703759,0.2727619193703759
-1.3005259655059507,-1.3005259655059507
-2.9908352633069626,-2.9908352633069626
-4.083035117270693,-4.083035117270693
-3.7579756369243453,-3.7579756369243453
-2.5617567492497826,-2.5617567492497826
-1.5995806874245913,-1.5995806874245913
-0.9364593475180405,-0.9364593475180405
-0.6374046255993998,-0.6374046255993998
-0.36435466210846706,-0.36435466210846706
-0.06529994018982647,-0.06529994018982647
0.06472385194871291,0.06472385194871291
0.2727619193703759,0.2727619193703759
0.2987666777980838,0.2987666777980838
0.40278571150891535,0.40278571150891535
0.2987666777980838,0.2987666777980838
0.2987666777980838,0.2987666777980838
0.3637785738673535,0.3637785738673535
0.40278571150891535,0.40278571150891535
0.3637785738673535,0.3637785738673535
0.33777381543964563,0.33777381543964563
0.4287904699366232,0.4287904699366232
0.467797607578185,0.467797607578185
0.4287904699366232,0.4287904699366232
0.4287904699366232,0.4287904699366232
0.40278571150891535,0.40278571150891535
0.5718166412890165,0.5718166412890165
0.6628332957859941,0.6628332957859941
0.6368285373582863,0.6368285373582863
0.7278451918552638,0.7278451918552638
0.9358832592769267,0.9358832592769267
1.0268999137739043,1.0268999137739043
1.091911809843174,1.091911809843174
1.091911809843174,1.091911809843174
1.0008951553461964,1.0008951553461964
0.9618880177046346,0.9618880177046346
0.7668523294968256,0.7668523294968256
0.7278451918552638,0.7278451918552638
0.5718166412890165,0.5718166412890165
0.4287904699366232,0.4287904699366232
0.2727619193703759,0.2727619193703759
0.2987666777980838,0.2987666777980838
