ECG,PPG
-0.7888011718999391,-0.7888011718999391
-0.604641592222757,-0.604641592222757
-0.6967213820613429,-0.6967213820613429
-0.604641592222757,-0.604641592222757
-0.604641592222757,-0.604641592222757
-0.420482012545575,-0.420482012545575
-0.604641592222757,-0.604641592222757
-0.604641592222757,-0.604641592222757
-0.6967213820613429,-0.6967213820613429
-0.604641592222757,-0.604641592222757
-0.6967213820613429,-0.6967213820613429
-0.6967213820613429,-0.6967213820613429
-0.880880961738525,-0.880880961738525
-0.880880961738525,-0.880880961738525
-1.0650405414157071,-1.0650405414157071
-0.9729607515771226,-0.9729607515771226
-1.1571203312543046,-1.1571203312543046
-0.9729607515771226,-0.9729607515771226
-1.1571203312543046,-1.1571203312543046
-0.880880961738525,-0.880880961738525
-0.880880961738525,-0.880880961738525
-0.880880961738525,-0.880880961738525
-0.6967213820613429,-0.6967213820613429
-0.420482012545575,-0.420482012545575
-0.14424264302979534,-0.14424264302979534
0.039916936647386776,0.039916936647386776
0.13199672648597263,0.13199672648597263
0.22407651632457018,0.22407651632457018
0.40823609600175226,0.40823609600175226
0.3161563061631547,0.3161563061631547
0.40823609600175226,0.40823609600175226
0.22407651632457018,0.22407651632457018
0.40823609600175226,0.40823609600175226
0.22407651632457018,0.22407651632457018
0.40823609600175226,0.40823609600175226
0.22407651632457018,0.22407651632457018
0.3161563061631547,0.3161563061631547
0.13199672648597263,0.13199672648597263
0.22407651632457018,0.22407651632457018
-0.05216285319120947,-0.05216285319120947
0.22407651632457018,0.22407651632457018
0.039916936647386776,0.039916936647386776
0.039916936647386776,0.039916936647386776
-0.14424264302979534,-0.14424264302979534
-0.05216285319120947,-0.05216285319120947
-0.23632243286839286,-0.23632243286839286
-0.05216285319120947,-0.05216285319120947
-0.05216285319120947,-0.05216285319120947
0.039916936647386776,0.039916936647386776
0.039916936647386776,0.039916936647386776
0.22407651632457018,0.22407651632457018
0.039916936647386776,0.039916936647386776
0.039916936647386776,0.039916936647386776
0.22407651632457018,0.22407651632457018
0.22407651632457018,0.22407651632457018
0.40823609600175226,0.40823609600175226
0.5003158858403381,0.5003158858403381
0.5923956756789344,0.5923956756789344
0.40823609600175226,0.40823609600175226
0.5003158858403381,0.5003158858403381
0.3161563061631547,0.3161563061631547
0.40823609600175226,0.40823609600175226
0.22407651632457018,0.22407651632457018
0.40823609600175226,0.40823609600175226
0.039916936647386776,0.039916936647386776
0.039916936647386776,0.039916936647386776
-0.05216285319120947,-0.05216285319120947
0.039916936647386776,0.039916936647386776
-0.14424264302979534,-0.14424264302979534
-0.05216285319120947,-0.05216285319120947
-0.23632243286839286,-0.23632243286839286
-0.05216285319120947,-0.05216285319120947
-0.23632243286839286,-0.23632243286839286
-0.05216285319120947,-0.05216285319120947
-0.32840222270697744,-0.32840222270697744
-0.05216285319120947,-0.05216285319120947
-0.05216285319120947,-0.05216285319120947
0.8686350451947024,0.8686350451947024
1.6973531537420297,1.6973531537420297
3.999347899706841,3.999347899706841
6.209262855832961,6.209262855832961
5.6567841168014015,5.6567841168014015
2.894390421643722,2.894390421643722
-0.604641592222757,-0.604641592222757
-1.1571203312543046,-1.1571203312543046
-0.9729607515771226,-0.9729607515771226
-0.7888011718999391,-0.7888011718999391
-0.880880961738525,-0.880880961738525
-0.7888011718999391,-0.7888011718999391
-0.880880961738525,-0.880880961738525
-0.7888011718999391,-0.7888011718999391
-0.880880961738525,-0.880880961738525
-0.6967213820613429,-0.6967213820613429
-0.880880961738525,-0.880880961738525
-0.7888011718999391,-0.7888011718999391
-0.6967213820613429,-0.6967213820613429
-0.604641592222757,-0.604641592222757
-0.6967213820613429,-0.6967213820613429
-0.604641592222757,-0.604641592222757
-0.5125618023841608,-0.5125618023841608
-0.420482012545575,-0.420482012545575
-0.604641592222757,-0.604641592222757
-0.5125618023841608,-0.5125618023841608
-0.604641592222757,-0.604641592222757
-0.604641592222757,-0.604641592222757
-0.6967213820613429,-0.6967213820613429
-0.7888011718999391,-0.7888011718999391
-0.6967213820613429,-0.6967213820613429
-0.9729607515771226,-0.9729607515771226
-1.0650405414157071,-1.0650405414157071
-1.1571203312543046,-1.1571203312543046
-1.1571203312543046,-1.1571203312543046
-1.1571203312543046,-1.1571203312543046
-1.0650405414157071,-1.0650405414157071
-1.0650405414157071,-1.0650405414157071
-0.880880961738525,-0.880880961738525
-0.6967213820613429,-0.6967213820613429
-0.420482012545575,-0.420482012545575
-0.32840222270697744,-0.32840222270697744
0.039916936647386776,0.039916936647386776
0.13199672648597263,0.13199672648597263
0.22407651632457018,0.22407651632457018
0.22407651632457018,0.22407651632457018
0.5003158858403381,0.5003158858403381
0.5003158858403381,0.5003158858403381
0.5923956756789344,0.5923956756789344
0.5003158858403381,0.5003158858403381
0.5923956756789344,0.5923956756789344
0.40823609600175226,0.40823609600175226
0.3161563061631547,0.3161563061631547
0.40823609600175226,0.40823609600175226
0.22407651632457018,0.22407651632457018
0.3161563061631547,0.3161563061631547
0.13199672648597263,0.13199672648597263
0.22407651632457018,0.22407651632457018
-0.05216285319120947,-0.05216285319120947
-0.05216285319120947,-0.05216285319120947
-0.23632243286839286,-0.23632243286839286
-0.14424264302979534,-0.14424264302979534
-0.32840222270697744,-0.32840222270697744
-0.05216285319120947,-0.05216285319120947
-0.14424264302979534,-0.14424264302979534
-0.05216285319120947,-0.05216285319120947
-0.05216285319120947,-0.05216285319120947
0.13199672648597263,0.13199672648597263
0.22407651632457018,0.22407651632457018
0.40823609600175226,0.40823609600175226
0.22407651632457018,0.22407651632457018
0.5003158858403381,0.5003158858403381
0.22407651632457018,0.22407651632457018
0.40823609600175226,0.40823609600175226
0.40823609600175226,0.40823609600175226
0.3161563061631547,0.3161563061631547
0.40823609600175226,0.40823609600175226
0.22407651632457018,0.22407651632457018
0.5003158858403381,0.5003158858403381
0.3161563061631547,0.3161563061631547
0.22407651632457018,0.22407651632457018
0.039916936647386776,0.039916936647386776
0.13199672648597263,0.13199672648597263
-0.23632243286839286,-0.23632243286839286
-0.23632243286839286,-0.23632243286839286
-0.420482012545575,-0.420482012545575
-0.420482012545575,-0.420482012545575
-0.420482012545575,-0.420482012545575
-0.23632243286839286,-0.23632243286839286
-0.32840222270697744,-0.32840222270697744
-0.23632243286839286,-0.23632243286839286
-0.23632243286839286,-0.23632243286839286
-0.05216285319120947,-0.05216285319120947
-0.14424264302979534,-0.14424264302979534
0.039916936647386776,0.039916936647386776
0.039916936647386776,0.039916936647386776
0.13199672648597263,0.13199672648597263
0.039916936647386776,0.039916936647386776
0.22407651632457018,0.22407651632457018
0.039916936647386776,0.039916936647386776
0.22407651632457018,0.22407651632457018
0.22407651632457018,0.22407651632457018
0.22407651632457018,0.22407651632457018
0.13199672648597263,0.13199672648597263
0.22407651632457018,0.22407651632457018
0.039916936647386776,0.039916936647386776
-0.05216285319120947,-0.05216285319120947
-0.05216285319120947,-0.05216285319120947
-0.14424264302979534,-0.14424264302979534
-0.05216285319120947,-0.05216285319120947
-0.23632243286839286,-0.23632243286839286
-0.14424264302979534,-0.14424264302979534
-0.23632243286839286,-0.23632243286839286
-0.05216285319120947,-0.05216285319120947
-0.23632243286839286,-0.23632243286839286
-0.23632243286839286,-0.23632243286839286
-0.23632243286839286,-0.23632243286839286
0.039916936647386776,0.039916936647386776
0.039916936647386776,0.039916936647386776
-0.05216285319120947,-0.05216285319120947
-0.05216285319120947,-0.05216285319120947
0.3161563061631547,0.3161563061631547
0.8686350451947024,0.8686350451947024
1.6973531537420297,1.6973531537420297
3.999347899706841,3.999347899706841
6.301342645671534,6.301342645671534
5.564704326962829,5.564704326962829
2.8023106318051494,2.8023106318051494
-0.880880961738525,-0.880880961738525
-1.6175192804472547,-1.6175192804472547
-1.4333597007700727,-1.4333597007700727
-1.2492001210928905,-1.2492001210928905
-1.1571203312543046,-1.1571203312543046
-1.1571203312543046,-1.1571203312543046
-1.0650405414157071,-1.0650405414157071
-1.0650405414157071,-1.0650405414157071
-0.880880961738525,-0.880880961738525
-1.0650405414157071,-1.0650405414157071
-0.880880961738525,-0.880880961738525
-1.0650405414157071,-1.0650405414157071
-0.7888011718999391,-0.7888011718999391
-0.880880961738525,-0.880880961738525
-0.6967213820613429,-0.6967213820613429
-0.880880961738525,-0.880880961738525
-0.7888011718999391,-0.7888011718999391
-0.880880961738525,-0.880880961738525
-0.880880961738525,-0.880880961738525
-0.9729607515771226,-0.9729607515771226
-0.880880961738525,-0.880880961738525
-0.880880961738525,-0.880880961738525
-0.6967213820613429,-0.6967213820613429
-0.880880961738525,-0.880880961738525
-0.880880961738525,-0.880880961738525
-0.7888011718999391,-0.7888011718999391
-0.880880961738525,-0.880880961738525
-0.880880961738525,-0.880880961738525
-1.0650405414157071,-1.0650405414157071
-0.880880961738525,-0.880880961738525
-0.6967213820613429,-0.6967213820613429
-0.604641592222757,-0.604641592222757
-0.604641592222757,-0.604641592222757
-0.23632243286839286,-0.23632243286839286
-0.05216285319120947,-0.05216285319120947
0.13199672648597263,0.13199672648597263
0.22407651632457018,0.22407651632457018
0.5003158858403381,0.5003158858403381
0.3161563061631547,0.3161563061631547
0.40823609600175226,0.40823609600175226
0.22407651632457018,0.22407651632457018
0.039916936647386776,0.039916936647386776
-0.05216285319120947,-0.05216285319120947
0.039916936647386776,0.039916936647386776
-0.05216285319120947,-0.05216285319120947
-0.05216285319120947,-0.05216285319120947
-0.14424264302979534,-0.14424264302979534
-0.05216285319120947,-0.05216285319120947
-0.32840222270697744,-0.32840222270697744
-0.23632243286839286,-0.23632243286839286
-0.32840222270697744,-0.32840222270697744
-0.420482012545575,-0.420482012545575
-0.23632243286839286,-0.23632243286839286
-0.05216285319120947,-0.05216285319120947
0.039916936647386776,0.039916936647386776
-0.05216285319120947,-0.05216285319120947
0.22407651632457018,0.22407651632457018
0.22407651632457018,0.22407651632457018
0.40823609600175226,0.40823609600175226
0.40823609600175226,0.40823609600175226
0.40823609600175226,0.40823609600175226
0.3161563061631547,0.3161563061631547
0.22407651632457018,0.22407651632457018
0.13199672648597263,0.13199672648597263
0.22407651632457018,0.22407651632457018
0.13199672648597263,0.13199672648597263
0.22407651632457018,0.22407651632457018
0.039916936647386776,0.039916936647386776
0.039916936647386776,0.039916936647386776
-0.05216285319120947,-0.05216285319120947
0.039916936647386776,0.039916936647386776
-0.05216285319120947,-0.05216285319120947
-0.23632243286839286,-0.23632243286839286
-0.05216285319120947,-0.05216285319120947
-0.23632243286839286,-0.23632243286839286
-0.05216285319120947,-0.05216285319120947
-0.23632243286839286,-0.23632243286839286
-0.05216285319120947,-0.05216285319120947
-0.05216285319120947,-0.05216285319120947
0.039916936647386776,0.039916936647386776
-0.05216285319120947,-0.05216285319120947
0.22407651632457018,0.22407651632457018
0.039916936647386776,0.039916936647386776
0.22407651632457018,0.22407651632457018
-0.05216285319120947,-0.05216285319120947
0.13199672648597263,0.13199672648597263
0.039916936647386776,0.039916936647386776
0.3161563061631547,0.3161563061631547
0.22407651632457018,0.22407651632457018
0.3161563061631547,0.3161563061631547
0.13199672648597263,0.13199672648597263
0.22407651632457018,0.22407651632457018
0.039916936647386776,0.039916936647386776
0.13199672648597263,0.13199672648597263
0.039916936647386776,0.039916936647386776
0.22407651632457018,0.22407651632457018
0.039916936647386776,0.039916936647386776
0.039916936647386776,0.039916936647386776
0.039916936647386776,0.039916936647386776
0.22407651632457018,0.22407651632457018
0.22407651632457018,0.22407651632457018
0.22407651632457018,0.22407651632457018
0.22407651632457018,0.22407651632457018
0.22407651632457018,0.22407651632457018
0.3161563061631547,0.3161563061631547
0.13199672648597263,0.13199672648597263
0.40823609600175226,0.40823609600175226
0.8686350451947024,0.8686350451947024
1.5131935740648474,1.5131935740648474
2.894390421643722,2.894390421643722
5.93302348631724,5.93302348631724
6.117183065994388,6.117183065994388
4.183507479383989,4.183507479383989
0.039916936647386776,0.039916936647386776
-1.2492001210928905,-1.2492001210928905
-1.2492001210928905,-1.2492001210928905
-0.6967213820613429,-0.6967213820613429
-0.604641592222757,-0.604641592222757
-0.604641592222757,-0.604641592222757
-0.6967213820613429,-0.6967213820613429
-0.6967213820613429,-0.6967213820613429
-0.604641592222757,-0.604641592222757
-0.6967213820613429,-0.6967213820613429
-0.604641592222757,-0.604641592222757
-0.6967213820613429,-0.6967213820613429
-0.604641592222757,-0.604641592222757
-0.604641592222757,-0.604641592222757
-0.604641592222757,-0.604641592222757
-0.6967213820613429,-0.6967213820613429
-0.7888011718999391,-0.7888011718999391
-0.880880961738525,-0.880880961738525
-0.6967213820613429,-0.6967213820613429
-0.880880961738525,-0.880880961738525
-0.880880961738525,-0.880880961738525
-1.0650405414157071,-1.0650405414157071
-0.9729607515771226,-0.9729607515771226
-0.880880961738525,-0.880880961738525
-0.604641592222757,-0.604641592222757
-0.6967213820613429,-0.6967213820613429
-0.6967213820613429,-0.6967213820613429
-0.7888011718999391,-0.7888011718999391
-0.604641592222757,-0.604641592222757
-0.604641592222757,-0.604641592222757
-0.604641592222757,-0.604641592222757
-0.604641592222757,-0.604641592222757
-0.32840222270697744,-0.32840222270697744
-0.32840222270697744,-0.32840222270697744
-0.14424264302979534,-0.14424264302979534
-0.05216285319120947,-0.05216285319120947
0.13199672648597263,0.13199672648597263
0.22407651632457018,0.22407651632457018
0.039916936647386776,0.039916936647386776
0.22407651632457018,0.22407651632457018
0.039916936647386776,0.039916936647386776
0.039916936647386776,0.039916936647386776
-0.14424264302979534,-0.14424264302979534
-0.23632243286839286,-0.23632243286839286
-0.32840222270697744,-0.32840222270697744
-0.23632243286839286,-0.23632243286839286
-0.23632243286839286,-0.23632243286839286
0.039916936647386776,0.039916936647386776
0.039916936647386776,0.039916936647386776
0.22407651632457018,0.22407651632457018
0.039916936647386776,0.039916936647386776
0.22407651632457018,0.22407651632457018
0.13199672648597263,0.13199672648597263
0.22407651632457018,0.22407651632457018
0.13199672648597263,0.13199672648597263
0.22407651632457018,0.22407651632457018
0.039916936647386776,0.039916936647386776
-0.05216285319120947,-0.05216285319120947
-0.05216285319120947,-0.05216285319120947
-0.05216285319120947,-0.05216285319120947
-0.14424264302979534,-0.14424264302979534
-0.14424264302979534,-0.14424264302979534
-0.23632243286839286,-0.23632243286839286
-0.23632243286839286,-0.23632243286839286
-0.14424264302979534,-0.14424264302979534
-0.32840222270697744,-0.32840222270697744
-0.23632243286839286,-0.23632243286839286
-0.420482012545575,-0.420482012545575
-0.14424264302979534,-0.14424264302979534
-0.05216285319120947,-0.05216285319120947
0.13199672648597263,0.13199672648597263
0.039916936647386776,0.039916936647386776
0.40823609600175226,0.40823609600175226
0.3161563061631547,0.3161563061631547
0.40823609600175226,0.40823609600175226
0.22407651632457018,0.22407651632457018
0.40823609600175226,0.40823609600175226
0.3161563061631547,0.3161563061631547
0.40823609600175226,0.40823609600175226
0.22407651632457018,0.22407651632457018
0.22407651632457018,0.22407651632457018
0.039916936647386776,0.039916936647386776
-0.05216285319120947,-0.05216285319120947
-0.23632243286839286,-0.23632243286839286
-0.23632243286839286,-0.23632243286839286
-0.05216285319120947,-0.05216285319120947
0.039916936647386776,0.039916936647386776
0.7765552553561178,0.7765552553561178
1.5131935740648474,1.5131935740648474
3.999347899706841,3.999347899706841
5.840943696478667,5.840943696478667
5.104305377769842,5.104305377769842
1.8815127334192012,1.8815127334192012
-0.9729607515771226,-0.9729607515771226
-1.4333597007700727,-1.4333597007700727
-0.880880961738525,-0.880880961738525
-0.6967213820613429,-0.6967213820613429
-0.604641592222757,-0.604641592222757
-0.604641592222757,-0.604641592222757
-0.5125618023841608,-0.5125618023841608
-0.6967213820613429,-0.6967213820613429
-0.604641592222757,-0.604641592222757
-0.880880961738525,-0.880880961738525
-0.6967213820613429,-0.6967213820613429
-0.880880961738525,-0.880880961738525
-0.7888011718999391,-0.7888011718999391
-0.880880961738525,-0.880880961738525
-0.7888011718999391,-0.7888011718999391
-0.9729607515771226,-0.9729607515771226
-0.880880961738525,-0.880880961738525
-1.0650405414157071,-1.0650405414157071
-0.880880961738525,-0.880880961738525
-1.0650405414157071,-1.0650405414157071
-0.880880961738525,-0.880880961738525
-0.880880961738525,-0.880880961738525
-0.880880961738525,-0.880880961738525
-0.880880961738525,-0.880880961738525
-0.9729607515771226,-0.9729607515771226
-0.880880961738525,-0.880880961738525
-0.9729607515771226,-0.9729607515771226
-0.604641592222757,-0.604641592222757
-0.5125618023841608,-0.5125618023841608
-0.420482012545575,-0.420482012545575
-0.604641592222757,-0.604641592222757
-0.32840222270697744,-0.32840222270697744
-0.420482012545575,-0.420482012545575
-0.05216285319120947,-0.05216285319120947
-0.05216285319120947,-0.05216285319120947
0.039916936647386776,0.039916936647386776
0.039916936647386776,0.039916936647386776
0.13199672648597263,0.13199672648597263
0.039916936647386776,0.039916936647386776
0.22407651632457018,0.22407651632457018
0.039916936647386776,0.039916936647386776
0.22407651632457018,0.22407651632457018
0.039916936647386776,0.039916936647386776
0.22407651632457018,0.22407651632457018
0.22407651632457018,0.22407651632457018
0.13199672648597263,0.13199672648597263
0.22407651632457018,0.22407651632457018
0.039916936647386776,0.039916936647386776
0.13199672648597263,0.13199672648597263
-0.05216285319120947,-0.05216285319120947
0.039916936647386776,0.039916936647386776
-0.05216285319120947,-0.05216285319120947
0.039916936647386776,0.039916936647386776
-0.05216285319120947,-0.05216285319120947
0.22407651632457018,0.22407651632457018
-0.05216285319120947,-0.05216285319120947
0.039916936647386776,0.039916936647386776
0.039916936647386776,0.039916936647386776
0.13199672648597263,0.13199672648597263
0.039916936647386776,0.039916936647386776
0.22407651632457018,0.22407651632457018
0.039916936647386776,0.039916936647386776
0.22407651632457018,0.22407651632457018
0.039916936647386776,0.039916936647386776
0.22407651632457018,0.22407651632457018
0.039916936647386776,0.039916936647386776
0.13199672648597263,0.13199672648597263
-0.05216285319120947,-0.05216285319120947
0.039916936647386776,0.039916936647386776
-0.05216285319120947,-0.05216285319120947
0.039916936647386776,0.039916936647386776
-0.05216285319120947,-0.05216285319120947
-0.05216285319120947,-0.05216285319120947
0.22407651632457018,0.22407651632457018
0.22407651632457018,0.22407651632457018
0.22407651632457018,0.22407651632457018
0.039916936647386776,0.039916936647386776
0.22407651632457018,0.22407651632457018
-0.05216285319120947,-0.05216285319120947
0.039916936647386776,0.039916936647386776
-0.05216285319120947,-0.05216285319120947
0.13199672648597263,0.13199672648597263
0.039916936647386776,0.039916936647386776
0.22407651632457018,0.22407651632457018
-0.05216285319120947,-0.05216285319120947
0.22407651632457018,0.22407651632457018
0.039916936647386776,0.039916936647386776
0.22407651632457018,0.22407651632457018
0.22407651632457018,0.22407651632457018
0.22407651632457018,0.22407651632457018
0.039916936647386776,0.039916936647386776
0.22407651632457018,0.22407651632457018
0.039916936647386776,0.039916936647386776
0.13199672648597263,0.13199672648597263
-0.05216285319120947,-0.05216285319120947
-0.05216285319120947,-0.05216285319120947
0.039916936647386776,0.039916936647386776
0.13199672648597263,0.13199672648597263
0.039916936647386776,0.039916936647386776
0.13199672648597263,0.13199672648597263
-0.05216285319120947,-0.05216285319120947
0.039916936647386776,0.039916936647386776
-0.05216285319120947,-0.05216285319120947
-0.05216285319120947,-0.05216285319120947
0.039916936647386776,0.039916936647386776
-0.05216285319120947,-0.05216285319120947
-0.05216285319120947,-0.05216285319120947
-0.14424264302979534,-0.14424264302979534
-0.05216285319120947,-0.05216285319120947
0.13199672648597263,0.13199672648597263
0.8686350451947024,0.8686350451947024
1.42111378422625,1.42111378422625
3.3547893708367087,3.3547893708367087
6.117183065994388,6.117183065994388
5.840943696478667,5.840943696478667
3.3547893708367087,3.3547893708367087
-0.420482012545575,-0.420482012545575
-1.7095990702858523,-1.7095990702858523
-1.3412799109314868,-1.3412799109314868
-1.1571203312543046,-1.1571203312543046
-0.9729607515771226,-0.9729607515771226
-0.7888011718999391,-0.7888011718999391
-0.9729607515771226,-0.9729607515771226
-0.6967213820613429,-0.6967213820613429
-0.880880961738525,-0.880880961738525
-0.6967213820613429,-0.6967213820613429
-0.6967213820613429,-0.6967213820613429
-0.604641592222757,-0.604641592222757
-0.7888011718999391,-0.7888011718999391
-0.604641592222757,-0.604641592222757
-0.604641592222757,-0.604641592222757
-0.5125618023841608,-0.5125618023841608
-0.6967213820613429,-0.6967213820613429
-0.6967213820613429,-0.6967213820613429
-0.880880961738525,-0.880880961738525
-0.880880961738525,-0.880880961738525
-1.0650405414157071,-1.0650405414157071
-1.0650405414157071,-1.0650405414157071
-1.2492001210928905,-1.2492001210928905
-1.1571203312543046,-1.1571203312543046
-1.4333597007700727,-1.4333597007700727
-1.3412799109314868,-1.3412799109314868
-1.3412799109314868,-1.3412799109314868
-1.1571203312543046,-1.1571203312543046
-1.2492001210928905,-1.2492001210928905
-0.9729607515771226,-0.9729607515771226
-1.0650405414157071,-1.0650405414157071
-0.880880961738525,-0.880880961738525
-0.604641592222757,-0.604641592222757
-0.420482012545575,-0.420482012545575
-0.23632243286839286,-0.23632243286839286
-0.05216285319120947,-0.05216285319120947
0.22407651632457018,0.22407651632457018
0.3161563061631547,0.3161563061631547
0.40823609600175226,0.40823609600175226
0.22407651632457018,0.22407651632457018
0.40823609600175226,0.40823609600175226
0.22407651632457018,0.22407651632457018
0.3161563061631547,0.3161563061631547
0.039916936647386776,0.039916936647386776
0.22407651632457018,0.22407651632457018
-0.23632243286839286,-0.23632243286839286
-0.23632243286839286,-0.23632243286839286
-0.5125618023841608,-0.5125618023841608
-0.420482012545575,-0.420482012545575
-0.32840222270697744,-0.32840222270697744
-0.14424264302979534,-0.14424264302979534
-0.32840222270697744,-0.32840222270697744
-0.14424264302979534,-0.14424264302979534
-0.05216285319120947,-0.05216285319120947
-0.05216285319120947,-0.05216285319120947
-0.05216285319120947,-0.05216285319120947
-0.05216285319120947,-0.05216285319120947
0.13199672648597263,0.13199672648597263
0.039916936647386776,0.039916936647386776
0.22407651632457018,0.22407651632457018
0.22407651632457018,0.22407651632457018
0.3161563061631547,0.3161563061631547
0.22407651632457018,0.22407651632457018
0.3161563061631547,0.3161563061631547
0.13199672648597263,0.13199672648597263
0.22407651632457018,0.22407651632457018
-0.05216285319120947,-0.05216285319120947
-0.05216285319120947,-0.05216285319120947
-0.23632243286839286,-0.23632243286839286
-0.32840222270697744,-0.32840222270697744
-0.23632243286839286,-0.23632243286839286
-0.05216285319120947,-0.05216285319120947
-0.14424264302979534,-0.14424264302979534
-0.14424264302979534,-0.14424264302979534
-0.32840222270697744,-0.32840222270697744
-0.05216285319120947,-0.05216285319120947
-0.05216285319120947,-0.05216285319120947
0.039916936647386776,0.039916936647386776
-0.05216285319120947,-0.05216285319120947
0.13199672648597263,0.13199672648597263
0.039916936647386776,0.039916936647386776
0.13199672648597263,0.13199672648597263
-0.05216285319120947,-0.05216285319120947
-0.05216285319120947,-0.05216285319120947
0.039916936647386776,0.039916936647386776
0.039916936647386776,0.039916936647386776
0.039916936647386776,0.039916936647386776
0.039916936647386776,0.039916936647386776
-0.05216285319120947,-0.05216285319120947
0.22407651632457018,0.22407651632457018
0.40823609600175226,0.40823609600175226
1.0527946248718858,1.0527946248718858
2.341911682612163,2.341911682612163
5.01222558793127,5.01222558793127
5.748863906640092,5.748863906640092
4.183507479383989,4.183507479383989
0.6844754655175203,0.6844754655175203
-1.6175192804472547,-1.6175192804472547
-1.7095990702858523,-1.7095990702858523
-1.0650405414157071,-1.0650405414157071
-0.6967213820613429,-0.6967213820613429
-0.7888011718999391,-0.7888011718999391
-0.6967213820613429,-0.6967213820613429
-0.7888011718999391,-0.7888011718999391
-0.604641592222757,-0.604641592222757
-0.7888011718999391,-0.7888011718999391
-0.6967213820613429,-0.6967213820613429
-0.880880961738525,-0.880880961738525
-0.880880961738525,-0.880880961738525
-0.6967213820613429,-0.6967213820613429
-0.6967213820613429,-0.6967213820613429
-0.7888011718999391,-0.7888011718999391
-0.6967213820613429,-0.6967213820613429
-0.880880961738525,-0.880880961738525
-0.7888011718999391,-0.7888011718999391
-0.604641592222757,-0.604641592222757
-0.6967213820613429,-0.6967213820613429
-0.5125618023841608,-0.5125618023841608
-0.604641592222757,-0.604641592222757
-0.604641592222757,-0.604641592222757
-0.604641592222757,-0.604641592222757
-0.420482012545575,-0.420482012545575
-0.604641592222757,-0.604641592222757
-0.604641592222757,-0.604641592222757
-0.6967213820613429,-0.6967213820613429
-0.604641592222757,-0.604641592222757
-0.6967213820613429,-0.6967213820613429
-0.604641592222757,-0.604641592222757
-0.604641592222757,-0.604641592222757
-0.32840222270697744,-0.32840222270697744
-0.23632243286839286,-0.23632243286839286
-0.32840222270697744,-0.32840222270697744
-0.05216285319120947,-0.05216285319120947
0.039916936647386776,0.039916936647386776
0.13199672648597263,0.13199672648597263
0.039916936647386776,0.039916936647386776
-0.05216285319120947,-0.05216285319120947
0.039916936647386776,0.039916936647386776
0.039916936647386776,0.039916936647386776
-0.05216285319120947,-0.05216285319120947
0.039916936647386776,0.039916936647386776
-0.05216285319120947,-0.05216285319120947
0.039916936647386776,0.039916936647386776
-0.05216285319120947,-0.05216285319120947
0.13199672648597263,0.13199672648597263
-0.05216285319120947,-0.05216285319120947
-0.05216285319120947,-0.05216285319120947
-0.05216285319120947,-0.05216285319120947
0.039916936647386776,0.039916936647386776
-0.05216285319120947,-0.05216285319120947
0.22407651632457018,0.22407651632457018
0.039916936647386776,0.039916936647386776
0.22407651632457018,0.22407651632457018
0.22407651632457018,0.22407651632457018
0.3161563061631547,0.3161563061631547
0.22407651632457018,0.22407651632457018
0.22407651632457018,0.22407651632457018
0.13199672648597263,0.13199672648597263
0.22407651632457018,0.22407651632457018
0.039916936647386776,0.039916936647386776
0.13199672648597263,0.13199672648597263
0.22407651632457018,0.22407651632457018
0.039916936647386776,0.039916936647386776
0.22407651632457018,0.22407651632457018
0.039916936647386776,0.039916936647386776
0.22407651632457018,0.22407651632457018
-0.05216285319120947,-0.05216285319120947
0.039916936647386776,0.039916936647386776
-0.05216285319120947,-0.05216285319120947
0.039916936647386776,0.039916936647386776
-0.05216285319120947,-0.05216285319120947
-0.05216285319120947,-0.05216285319120947
-0.05216285319120947,-0.05216285319120947
0.039916936647386776,0.039916936647386776
-0.05216285319120947,-0.05216285319120947
0.039916936647386776,0.039916936647386776
-0.05216285319120947,-0.05216285319120947
0.039916936647386776,0.039916936647386776
-0.14424264302979534,-0.14424264302979534
-0.23632243286839286,-0.23632243286839286
0.039916936647386776,0.039916936647386776
0.8686350451947024,0.8686350451947024
1.42111378422625,1.42111378422625
3.2627095809981332,3.2627095809981332
5.748863906640092,5.748863906640092
5.288464957447108,5.288464957447108
3.1706297911594437,3.1706297911594437
-0.604641592222757,-0.604641592222757
-1.4333597007700727,-1.4333597007700727
-1.2492001210928905,-1.2492001210928905
-1.0650405414157071,-1.0650405414157071
-1.0650405414157071,-1.0650405414157071
-0.9729607515771226,-0.9729607515771226
-1.1571203312543046,-1.1571203312543046
-0.7888011718999391,-0.7888011718999391
-0.7888011718999391,-0.7888011718999391
-0.6967213820613429,-0.6967213820613429
-0.880880961738525,-0.880880961738525
-0.7888011718999391,-0.7888011718999391
-0.9729607515771226,-0.9729607515771226
-0.880880961738525,-0.880880961738525
-0.880880961738525,-0.880880961738525
-0.6967213820613429,-0.6967213820613429
-0.6967213820613429,-0.6967213820613429
-0.604641592222757,-0.604641592222757
-0.6967213820613429,-0.6967213820613429
-0.6967213820613429,-0.6967213820613429
-0.880880961738525,-0.880880961738525
-0.880880961738525,-0.880880961738525
-0.880880961738525,-0.880880961738525
-0.880880961738525,-0.880880961738525
-0.880880961738525,-0.880880961738525
-0.9729607515771226,-0.9729607515771226
-0.880880961738525,-0.880880961738525
-1.1571203312543046,-1.1571203312543046
-1.2492001210928905,-1.2492001210928905
-1.3412799109314868,-1.3412799109314868
-1.0650405414157071,-1.0650405414157071
-0.880880961738525,-0.880880961738525
-0.5125618023841608,-0.5125618023841608
-0.23632243286839286,-0.23632243286839286
0.039916936647386776,0.039916936647386776
0.039916936647386776,0.039916936647386776
0.22407651632457018,0.22407651632457018
0.13199672648597263,0.13199672648597263
0.3161563061631547,0.3161563061631547
0.3161563061631547,0.3161563061631547
0.5003158858403381,0.5003158858403381
0.22407651632457018,0.22407651632457018
0.40823609600175226,0.40823609600175226
0.22407651632457018,0.22407651632457018
0.13199672648597263,0.13199672648597263
0.22407651632457018,0.22407651632457018
0.039916936647386776,0.039916936647386776
0.039916936647386776,0.039916936647386776
-0.05216285319120947,-0.05216285319120947
0.13199672648597263,0.13199672648597263
-0.05216285319120947,-0.05216285319120947
-0.23632243286839286,-0.23632243286839286
-0.32840222270697744,-0.32840222270697744
-0.420482012545575,-0.420482012545575
-0.23632243286839286,-0.23632243286839286
-0.05216285319120947,-0.05216285319120947
-0.05216285319120947,-0.05216285319120947
0.22407651632457018,0.22407651632457018
0.039916936647386776,0.039916936647386776
0.13199672648597263,0.13199672648597263
0.039916936647386776,0.039916936647386776
0.3161563061631547,0.3161563061631547
0.22407651632457018,0.22407651632457018
0.40823609600175226,0.40823609600175226
0.22407651632457018,0.22407651632457018
0.22407651632457018,0.22407651632457018
0.039916936647386776,0.039916936647386776
-0.05216285319120947,-0.05216285319120947
0.039916936647386776,0.039916936647386776
0.13199672648597263,0.13199672648597263
-0.05216285319120947,-0.05216285319120947
-0.05216285319120947,-0.05216285319120947
-0.14424264302979534,-0.14424264302979534
-0.23632243286839286,-0.23632243286839286
-0.32840222270697744,-0.32840222270697744
-0.32840222270697744,-0.32840222270697744
-0.23632243286839286,-0.23632243286839286
-0.32840222270697744,-0.32840222270697744
-0.05216285319120947,-0.05216285319120947
-0.05216285319120947,-0.05216285319120947
0.13199672648597263,0.13199672648597263
-0.05216285319120947,-0.05216285319120947
0.13199672648597263,0.13199672648597263
0.039916936647386776,0.039916936647386776
0.22407651632457018,0.22407651632457018
0.22407651632457018,0.22407651632457018
0.40823609600175226,0.40823609600175226
0.039916936647386776,0.039916936647386776
0.22407651632457018,0.22407651632457018
0.13199672648597263,0.13199672648597263
0.5923956756789344,0.5923956756789344
1.0527946248718858,1.0527946248718858
2.5260712622893116,2.5260712622893116
5.380544747285681,5.380544747285681
5.6567841168014015,5.6567841168014015
3.723108530191003,3.723108530191003
-0.05216285319120947,-0.05216285319120947
-1.5254394906086701,-1.5254394906086701
-1.1571203312543046,-1.1571203312543046
-0.880880961738525,-0.880880961738525
-0.6967213820613429,-0.6967213820613429
-0.604641592222757,-0.604641592222757
-0.5125618023841608,-0.5125618023841608
-0.420482012545575,-0.420482012545575
-0.604641592222757,-0.604641592222757
-0.32840222270697744,-0.32840222270697744
-0.420482012545575,-0.420482012545575
-0.23632243286839286,-0.23632243286839286
-0.32840222270697744,-0.32840222270697744
-0.23632243286839286,-0.23632243286839286
-0.420482012545575,-0.420482012545575
-0.32840222270697744,-0.32840222270697744
-0.6967213820613429,-0.6967213820613429
-0.604641592222757,-0.604641592222757
-0.880880961738525,-0.880880961738525
-0.880880961738525,-0.880880961738525
-1.1571203312543046,-1.1571203312543046
-1.1571203312543046,-1.1571203312543046
-1.3412799109314868,-1.3412799109314868
-1.3412799109314868,-1.3412799109314868
-1.2492001210928905,-1.2492001210928905
-1.4333597007700727,-1.4333597007700727
-1.5254394906086701,-1.5254394906086701
-1.3412799109314868,-1.3412799109314868
-1.1571203312543046,-1.1571203312543046
-1.2492001210928905,-1.2492001210928905
-0.880880961738525,-0.880880961738525
-0.6967213820613429,-0.6967213820613429
-0.32840222270697744,-0.32840222270697744
-0.05216285319120947,-0.05216285319120947
0.22407651632457018,0.22407651632457018
0.13199672648597263,0.13199672648597263
0.5923956756789344,0.5923956756789344
0.5003158858403381,0.5003158858403381
0.7765552553561178,0.7765552553561178
0.5923956756789344,0.5923956756789344
0.5923956756789344,0.5923956756789344
0.40823609600175226,0.40823609600175226
0.5003158858403381,0.5003158858403381
0.22407651632457018,0.22407651632457018
0.22407651632457018,0.22407651632457018
-0.05216285319120947,-0.05216285319120947
-0.05216285319120947,-0.05216285319120947
-0.14424264302979534,-0.14424264302979534
0.039916936647386776,0.039916936647386776
-0.05216285319120947,-0.05216285319120947
0.039916936647386776,0.039916936647386776
-0.05216285319120947,-0.05216285319120947
-0.05216285319120947,-0.05216285319120947
0.039916936647386776,0.039916936647386776
-0.05216285319120947,-0.05216285319120947
0.22407651632457018,0.22407651632457018
0.13199672648597263,0.13199672648597263
0.22407651632457018,0.22407651632457018
0.3161563061631547,0.3161563061631547
0.40823609600175226,0.40823609600175226
0.40823609600175226,0.40823609600175226
0.40823609600175226,0.40823609600175226
0.40823609600175226,0.40823609600175226
0.5003158858403381,0.5003158858403381
0.22407651632457018,0.22407651632457018
0.40823609600175226,0.40823609600175226
0.13199672648597263,0.13199672648597263
0.039916936647386776,0.039916936647386776
-0.05216285319120947,-0.05216285319120947
0.039916936647386776,0.039916936647386776
-0.23632243286839286,-0.23632243286839286
-0.23632243286839286,-0.23632243286839286
-0.420482012545575,-0.420482012545575
-0.420482012545575,-0.420482012545575
-0.604641592222757,-0.604641592222757
-0.420482012545575,-0.420482012545575
-0.32840222270697744,-0.32840222270697744
-0.420482012545575,-0.420482012545575
-0.14424264302979534,-0.14424264302979534
-0.05216285319120947,-0.05216285319120947
-0.05216285319120947,-0.05216285319120947
0.13199672648597263,0.13199672648597263
0.22407651632457018,0.22407651632457018
0.13199672648597263,0.13199672648597263
0.40823609600175226,0.40823609600175226
0.22407651632457018,0.22407651632457018
0.40823609600175226,0.40823609600175226
0.40823609600175226,0.40823609600175226
1.0527946248718858,1.0527946248718858
1.5131935740648474,1.5131935740648474
3.3547893708367087,3.3547893708367087
6.117183065994388,6.117183065994388
6.301342645671534,6.301342645671534
3.8151883200295758,3.8151883200295758
0.039916936647386776,0.039916936647386776
-1.4333597007700727,-1.4333597007700727
-1.2492001210928905,-1.2492001210928905
-1.1571203312543046,-1.1571203312543046
-0.880880961738525,-0.880880961738525
-0.880880961738525,-0.880880961738525
-1.0650405414157071,-1.0650405414157071
-0.880880961738525,-0.880880961738525
-1.0650405414157071,-1.0650405414157071
-0.880880961738525,-0.880880961738525
-0.880880961738525,-0.880880961738525
-0.6967213820613429,-0.6967213820613429
-0.7888011718999391,-0.7888011718999391
-0.6967213820613429,-0.6967213820613429
-0.880880961738525,-0.880880961738525
-0.6967213820613429,-0.6967213820613429
-0.604641592222757,-0.604641592222757
-0.6967213820613429,-0.6967213820613429
-0.7888011718999391,-0.7888011718999391
-0.604641592222757,-0.604641592222757
-0.6967213820613429,-0.6967213820613429
-0.604641592222757,-0.604641592222757
-0.6967213820613429,-0.6967213820613429
-0.604641592222757,-0.604641592222757
-0.7888011718999391,-0.7888011718999391
-0.6967213820613429,-0.6967213820613429
-0.880880961738525,-0.880880961738525
-0.604641592222757,-0.604641592222757
-0.880880961738525,-0.880880961738525
-0.6967213820613429,-0.6967213820613429
-0.7888011718999391,-0.7888011718999391
-0.604641592222757,-0.604641592222757
-0.604641592222757,-0.604641592222757
-0.5125618023841608,-0.5125618023841608
-0.420482012545575,-0.420482012545575
-0.23632243286839286,-0.23632243286839286
-0.14424264302979534,-0.14424264302979534
-0.14424264302979534,-0.14424264302979534
-0.32840222270697744,-0.32840222270697744
-0.14424264302979534,-0.14424264302979534
-0.05216285319120947,-0.05216285319120947
-0.32840222270697744,-0.32840222270697744
-0.23632243286839286,-0.23632243286839286
-0.32840222270697744,-0.32840222270697744
-0.23632243286839286,-0.23632243286839286
-0.32840222270697744,-0.32840222270697744
-0.05216285319120947,-0.05216285319120947
-0.14424264302979534,-0.14424264302979534
0.039916936647386776,0.039916936647386776
0.039916936647386776,0.039916936647386776
0.3161563061631547,0.3161563061631547
0.22407651632457018,0.22407651632457018
0.5003158858403381,0.5003158858403381
0.5003158858403381,0.5003158858403381
0.5923956756789344,0.5923956756789344
0.5003158858403381,0.5003158858403381
0.40823609600175226,0.40823609600175226
0.5003158858403381,0.5003158858403381
0.40823609600175226,0.40823609600175226
0.039916936647386776,0.039916936647386776
0.039916936647386776,0.039916936647386776
0.039916936647386776,0.039916936647386776
0.039916936647386776,0.039916936647386776
-0.05216285319120947,-0.05216285319120947
-0.32840222270697744,-0.32840222270697744
-0.23632243286839286,-0.23632243286839286
-0.604641592222757,-0.604641592222757
-0.32840222270697744,-0.32840222270697744
-0.5125618023841608,-0.5125618023841608
-0.420482012545575,-0.420482012545575
-0.604641592222757,-0.604641592222757
-0.420482012545575,-0.420482012545575
-0.5125618023841608,-0.5125618023841608
-0.420482012545575,-0.420482012545575
-0.604641592222757,-0.604641592222757
-0.420482012545575,-0.420482012545575
-0.604641592222757,-0.604641592222757
-0.32840222270697744,-0.32840222270697744
-0.32840222270697744,-0.32840222270697744
0.22407651632457018,0.22407651632457018
0.22407651632457018,0.22407651632457018
0.40823609600175226,0.40823609600175226
0.22407651632457018,0.22407651632457018
0.3161563061631547,0.3161563061631547
0.22407651632457018,0.22407651632457018
0.3161563061631547,0.3161563061631547
0.13199672648597263,0.13199672648597263
0.039916936647386776,0.039916936647386776
0.22407651632457018,0.22407651632457018
-0.14424264302979534,-0.14424264302979534
-0.05216285319120947,-0.05216285319120947
-0.420482012545575,-0.420482012545575
-0.14424264302979534,-0.14424264302979534
0.13199672648597263,0.13199672648597263
1.0527946248718858,1.0527946248718858
1.7894329435806153,1.7894329435806153
4.275587269222562,4.275587269222562
5.840943696478667,5.840943696478667
5.196385167608533,5.196385167608533
2.065672313096395,2.065672313096395
-0.9729607515771226,-0.9729607515771226
-1.801678860124438,-1.801678860124438
-1.3412799109314868,-1.3412799109314868
-1.3412799109314868,-1.3412799109314868
-1.0650405414157071,-1.0650405414157071
-0.880880961738525,-0.880880961738525
-0.604641592222757,-0.604641592222757
-0.6967213820613429,-0.6967213820613429
-0.6967213820613429,-0.6967213820613429
-0.880880961738525,-0.880880961738525
-0.880880961738525,-0.880880961738525
-0.880880961738525,-0.880880961738525
-0.9729607515771226,-0.9729607515771226
-1.0650405414157071,-1.0650405414157071
-1.1571203312543046,-1.1571203312543046
-0.880880961738525,-0.880880961738525
-1.2492001210928905,-1.2492001210928905
-1.1571203312543046,-1.1571203312543046
-1.0650405414157071,-1.0650405414157071
-0.880880961738525,-0.880880961738525
-0.9729607515771226,-0.9729607515771226
-0.880880961738525,-0.880880961738525
-0.880880961738525,-0.880880961738525
-0.604641592222757,-0.604641592222757
-0.880880961738525,-0.880880961738525
-0.880880961738525,-0.880880961738525
-0.9729607515771226,-0.9729607515771226
-0.880880961738525,-0.880880961738525
-0.9729607515771226,-0.9729607515771226
-0.880880961738525,-0.880880961738525
-0.6967213820613429,-0.6967213820613429
-0.23632243286839286,-0.23632243286839286
-0.05216285319120947,-0.05216285319120947
0.40823609600175226,0.40823609600175226
0.40823609600175226,0.40823609600175226
0.5003158858403381,0.5003158858403381
0.5923956756789344,0.5923956756789344
0.40823609600175226,0.40823609600175226
0.5003158858403381,0.5003158858403381
0.22407651632457018,0.22407651632457018
0.039916936647386776,0.039916936647386776
-0.23632243286839286,-0.23632243286839286
-0.05216285319120947,-0.05216285319120947
-0.32840222270697744,-0.32840222270697744
-0.05216285319120947,-0.05216285319120947
-0.14424264302979534,-0.14424264302979534
0.039916936647386776,0.039916936647386776
-0.23632243286839286,-0.23632243286839286
-0.05216285319120947,-0.05216285319120947
-0.05216285319120947,-0.05216285319120947
-0.14424264302979534,-0.14424264302979534
-0.05216285319120947,-0.05216285319120947
-0.05216285319120947,-0.05216285319120947
-0.23632243286839286,-0.23632243286839286
-0.05216285319120947,-0.05216285319120947
-0.23632243286839286,-0.23632243286839286
0.039916936647386776,0.039916936647386776
0.039916936647386776,0.039916936647386776
0.22407651632457018,0.22407651632457018
0.22407651632457018,0.22407651632457018
0.22407651632457018,0.22407651632457018
0.40823609600175226,0.40823609600175226
0.22407651632457018,0.22407651632457018
0.22407651632457018,0.22407651632457018
0.22407651632457018,0.22407651632457018
0.039916936647386776,0.039916936647386776
-0.05216285319120947,-0.05216285319120947
-0.23632243286839286,-0.23632243286839286
-0.32840222270697744,-0.32840222270697744
-0.23632243286839286,-0.23632243286839286
-0.32840222270697744,-0.32840222270697744
-0.14424264302979534,-0.14424264302979534
-0.32840222270697744,-0.32840222270697744
-0.14424264302979534,-0.14424264302979534
-0.23632243286839286,-0.23632243286839286
-0.23632243286839286,-0.23632243286839286
-0.23632243286839286,-0.23632243286839286
-0.05216285319120947,-0.05216285319120947
-0.14424264302979534,-0.14424264302979534
-0.05216285319120947,-0.05216285319120947
-0.05216285319120947,-0.05216285319120947
0.039916936647386776,0.039916936647386776
0.22407651632457018,0.22407651632457018
0.40823609600175226,0.40823609600175226
0.40823609600175226,0.40823609600175226
0.5923956756789344,0.5923956756789344
0.40823609600175226,0.40823609600175226
0.40823609600175226,0.40823609600175226
0.22407651632457018,0.22407651632457018
0.22407651632457018,0.22407651632457018
0.5003158858403381,0.5003158858403381
0.8686350451947024,0.8686350451947024
1.42111378422625,1.42111378422625
2.8023106318051494,2.8023106318051494
5.472624537124253,5.472624537124253
5.6567841168014015,5.6567841168014015
3.5389489505138543,3.5389489505138543
-0.420482012545575,-0.420482012545575
-1.6175192804472547,-1.6175192804472547
-1.7095990702858523,-1.7095990702858523
-1.0650405414157071,-1.0650405414157071
-1.1571203312543046,-1.1571203312543046
-0.880880961738525,-0.880880961738525
-1.0650405414157071,-1.0650405414157071
-0.880880961738525,-0.880880961738525
-0.880880961738525,-0.880880961738525
-0.5125618023841608,-0.5125618023841608
-0.604641592222757,-0.604641592222757
-0.420482012545575,-0.420482012545575
-0.420482012545575,-0.420482012545575
-0.5125618023841608,-0.5125618023841608
-0.420482012545575,-0.420482012545575
-0.604641592222757,-0.604641592222757
-0.420482012545575,-0.420482012545575
-0.604641592222757,-0.604641592222757
-0.5125618023841608,-0.5125618023841608
-0.7888011718999391,-0.7888011718999391
-0.880880961738525,-0.880880961738525
-0.9729607515771226,-0.9729607515771226
-0.880880961738525,-0.880880961738525
-1.0650405414157071,-1.0650405414157071
-1.0650405414157071,-1.0650405414157071
-1.0650405414157071,-1.0650405414157071
-0.9729607515771226,-0.9729607515771226
-1.0650405414157071,-1.0650405414157071
-0.880880961738525,-0.880880961738525
-1.0650405414157071,-1.0650405414157071
-0.880880961738525,-0.880880961738525
-1.0650405414157071,-1.0650405414157071
-0.420482012545575,-0.420482012545575
-0.23632243286839286,-0.23632243286839286
0.13199672648597263,0.13199672648597263
0.22407651632457018,0.22407651632457018
0.40823609600175226,0.40823609600175226
0.5003158858403381,0.5003158858403381
0.5003158858403381,0.5003158858403381
0.40823609600175226,0.40823609600175226
0.40823609600175226,0.40823609600175226
0.22407651632457018,0.22407651632457018
0.3161563061631547,0.3161563061631547
0.40823609600175226,0.40823609600175226
0.22407651632457018,0.22407651632457018
0.039916936647386776,0.039916936647386776
-0.05216285319120947,-0.05216285319120947
0.13199672648597263,0.13199672648597263
-0.23632243286839286,-0.23632243286839286
-0.05216285319120947,-0.05216285319120947
-0.14424264302979534,-0.14424264302979534
-0.05216285319120947,-0.05216285319120947
-0.23632243286839286,-0.23632243286839286
-0.05216285319120947,-0.05216285319120947
-0.23632243286839286,-0.23632243286839286
-0.05216285319120947,-0.05216285319120947
-0.23632243286839286,-0.23632243286839286
0.13199672648597263,0.13199672648597263
-0.05216285319120947,-0.05216285319120947
0.039916936647386776,0.039916936647386776
-0.05216285319120947,-0.05216285319120947
0.13199672648597263,0.13199672648597263
0.039916936647386776,0.039916936647386776
0.22407651632457018,0.22407651632457018
0.3161563061631547,0.3161563061631547
0.039916936647386776,0.039916936647386776
0.13199672648597263,0.13199672648597263
0.039916936647386776,0.039916936647386776
0.22407651632457018,0.22407651632457018
-0.05216285319120947,-0.05216285319120947
-0.23632243286839286,-0.23632243286839286
-0.32840222270697744,-0.32840222270697744
-0.14424264302979534,-0.14424264302979534
-0.420482012545575,-0.420482012545575
-0.14424264302979534,-0.14424264302979534
0.40823609600175226,0.40823609600175226
1.144874414710482,1.144874414710482
2.341911682612163,2.341911682612163
5.196385167608533,5.196385167608533
5.288464957447108,5.288464957447108
3.8151883200295758,3.8151883200295758
0.13199672648597263,0.13199672648597263
-1.0650405414157071,-1.0650405414157071
-1.1571203312543046,-1.1571203312543046
-0.420482012545575,-0.420482012545575
-0.420482012545575,-0.420482012545575
-0.23632243286839286,-0.23632243286839286
-0.23632243286839286,-0.23632243286839286
-0.32840222270697744,-0.32840222270697744
-0.5125618023841608,-0.5125618023841608
-0.604641592222757,-0.604641592222757
-0.7888011718999391,-0.7888011718999391
-0.6967213820613429,-0.6967213820613429
-0.880880961738525,-0.880880961738525
-1.0650405414157071,-1.0650405414157071
-0.9729607515771226,-0.9729607515771226
-1.0650405414157071,-1.0650405414157071
-0.9729607515771226,-0.9729607515771226
-0.9729607515771226,-0.9729607515771226
-0.880880961738525,-0.880880961738525
-0.9729607515771226,-0.9729607515771226
-0.880880961738525,-0.880880961738525
-1.0650405414157071,-1.0650405414157071
-0.9729607515771226,-0.9729607515771226
-1.0650405414157071,-1.0650405414157071
-0.880880961738525,-0.880880961738525
-0.880880961738525,-0.880880961738525
-0.5125618023841608,-0.5125618023841608
-0.420482012545575,-0.420482012545575
-0.5125618023841608,-0.5125618023841608
-0.604641592222757,-0.604641592222757
-0.32840222270697744,-0.32840222270697744
-0.14424264302979534,-0.14424264302979534
0.039916936647386776,0.039916936647386776
0.13199672648597263,0.13199672648597263
0.039916936647386776,0.039916936647386776
0.22407651632457018,0.22407651632457018
0.039916936647386776,0.039916936647386776
-0.05216285319120947,-0.05216285319120947
-0.23632243286839286,-0.23632243286839286
-0.05216285319120947,-0.05216285319120947
-0.23632243286839286,-0.23632243286839286
-0.05216285319120947,-0.05216285319120947
-0.05216285319120947,-0.05216285319120947
0.039916936647386776,0.039916936647386776
-0.14424264302979534,-0.14424264302979534
-0.05216285319120947,-0.05216285319120947
-0.14424264302979534,-0.14424264302979534
-0.05216285319120947,-0.05216285319120947
-0.05216285319120947,-0.05216285319120947
0.13199672648597263,0.13199672648597263
0.22407651632457018,0.22407651632457018
0.5003158858403381,0.5003158858403381
0.40823609600175226,0.40823609600175226
0.5003158858403381,0.5003158858403381
0.3161563061631547,0.3161563061631547
0.5923956756789344,0.5923956756789344
0.6844754655175203,0.6844754655175203
0.5003158858403381,0.5003158858403381
0.5923956756789344,0.5923956756789344
0.40823609600175226,0.40823609600175226
0.039916936647386776,0.039916936647386776
0.039916936647386776,0.039916936647386776
-0.14424264302979534,-0.14424264302979534
-0.23632243286839286,-0.23632243286839286
-0.32840222270697744,-0.32840222270697744
-0.32840222270697744,-0.32840222270697744
-0.32840222270697744,-0.32840222270697744
-0.32840222270697744,-0.32840222270697744
-0.23632243286839286,-0.23632243286839286
-0.32840222270697744,-0.32840222270697744
-0.23632243286839286,-0.23632243286839286
-0.420482012545575,-0.420482012545575
-0.23632243286839286,-0.23632243286839286
-0.14424264302979534,-0.14424264302979534
0.22407651632457018,0.22407651632457018
0.22407651632457018,0.22407651632457018
0.5003158858403381,0.5003158858403381
0.3161563061631547,0.3161563061631547
0.5003158858403381,0.5003158858403381
0.40823609600175226,0.40823609600175226
0.5923956756789344,0.5923956756789344
0.5003158858403381,0.5003158858403381
0.6844754655175203,0.6844754655175203
0.5003158858403381,0.5003158858403381
0.40823609600175226,0.40823609600175226
0.13199672648597263,0.13199672648597263
0.039916936647386776,0.039916936647386776
-0.05216285319120947,-0.05216285319120947
0.3161563061631547,0.3161563061631547
0.9607148350332999,0.9607148350332999
2.065672313096395,2.065672313096395
4.735986218415548,4.735986218415548
5.564704326962829,5.564704326962829
4.4597468488997105,4.4597468488997105
0.8686350451947024,0.8686350451947024
-1.3412799109314868,-1.3412799109314868
-1.6175192804472547,-1.6175192804472547
-0.880880961738525,-0.880880961738525
-0.6967213820613429,-0.6967213820613429
-0.604641592222757,-0.604641592222757
-0.604641592222757,-0.604641592222757
-0.5125618023841608,-0.5125618023841608
-0.604641592222757,-0.604641592222757
-0.23632243286839286,-0.23632243286839286
-0.420482012545575,-0.420482012545575
-0.23632243286839286,-0.23632243286839286
-0.420482012545575,-0.420482012545575
-0.5125618023841608,-0.5125618023841608
-0.32840222270697744,-0.32840222270697744
-0.5125618023841608,-0.5125618023841608
-0.6967213820613429,-0.6967213820613429
-0.7888011718999391,-0.7888011718999391
-0.6967213820613429,-0.6967213820613429
-0.880880961738525,-0.880880961738525
-1.0650405414157071,-1.0650405414157071
-0.9729607515771226,-0.9729607515771226
-0.880880961738525,-0.880880961738525
-1.0650405414157071,-1.0650405414157071
-0.880880961738525,-0.880880961738525
-1.0650405414157071,-1.0650405414157071
-0.880880961738525,-0.880880961738525
-0.9729607515771226,-0.9729607515771226
-0.7888011718999391,-0.7888011718999391
-0.880880961738525,-0.880880961738525
-0.420482012545575,-0.420482012545575
-0.420482012545575,-0.420482012545575
-0.23632243286839286,-0.23632243286839286
-0.05216285319120947,-0.05216285319120947
0.22407651632457018,0.22407651632457018
0.3161563061631547,0.3161563061631547
0.5923956756789344,0.5923956756789344
0.40823609600175226,0.40823609600175226
0.5003158858403381,0.5003158858403381
0.3161563061631547,0.3161563061631547
0.22407651632457018,0.22407651632457018
0.22407651632457018,0.22407651632457018
0.039916936647386776,0.039916936647386776
-0.05216285319120947,-0.05216285319120947
-0.05216285319120947,-0.05216285319120947
-0.05216285319120947,-0.05216285319120947
-0.05216285319120947,-0.05216285319120947
0.039916936647386776,0.039916936647386776
-0.23632243286839286,-0.23632243286839286
-0.05216285319120947,-0.05216285319120947
-0.23632243286839286,-0.23632243286839286
-0.05216285319120947,-0.05216285319120947
-0.05216285319120947,-0.05216285319120947
0.039916936647386776,0.039916936647386776
0.22407651632457018,0.22407651632457018
0.22407651632457018,0.22407651632457018
0.22407651632457018,0.22407651632457018
0.40823609600175226,0.40823609600175226
0.22407651632457018,0.22407651632457018
0.5003158858403381,0.5003158858403381
0.40823609600175226,0.40823609600175226
0.40823609600175226,0.40823609600175226
0.22407651632457018,0.22407651632457018
0.039916936647386776,0.039916936647386776
-0.05216285319120947,-0.05216285319120947
-0.23632243286839286,-0.23632243286839286
-0.420482012545575,-0.420482012545575
-0.5125618023841608,-0.5125618023841608
-0.420482012545575,-0.420482012545575
-0.604641592222757,-0.604641592222757
-0.5125618023841608,-0.5125618023841608
-0.23632243286839286,-0.23632243286839286
0.039916936647386776,0.039916936647386776
0.5923956756789344,0.5923956756789344
1.2369542045490678,1.2369542045490678
2.894390421643722,2.894390421643722
5.840943696478667,5.840943696478667
6.0251032761558125,6.0251032761558125
4.367667059061135,4.367667059061135
0.3161563061631547,0.3161563061631547
-0.880880961738525,-0.880880961738525
-0.9729607515771226,-0.9729607515771226
-0.32840222270697744,-0.32840222270697744
-0.32840222270697744,-0.32840222270697744
-0.23632243286839286,-0.23632243286839286
-0.420482012545575,-0.420482012545575
-0.32840222270697744,-0.32840222270697744
-0.420482012545575,-0.420482012545575
-0.5125618023841608,-0.5125618023841608
-1.0650405414157071,-1.0650405414157071
-1.1571203312543046,-1.1571203312543046
-1.2492001210928905,-1.2492001210928905
-1.3412799109314868,-1.3412799109314868
-1.2492001210928905,-1.2492001210928905
-1.1571203312543046,-1.1571203312543046
-1.1571203312543046,-1.1571203312543046
-1.1571203312543046,-1.1571203312543046
-1.0650405414157071,-1.0650405414157071
-1.1571203312543046,-1.1571203312543046
-1.0650405414157071,-1.0650405414157071
-1.2492001210928905,-1.2492001210928905
-1.0650405414157071,-1.0650405414157071
-1.0650405414157071,-1.0650405414157071
-0.6967213820613429,-0.6967213820613429
-0.7888011718999391,-0.7888011718999391
-0.604641592222757,-0.604641592222757
-0.604641592222757,-0.604641592222757
-0.5125618023841608,-0.5125618023841608
-0.420482012545575,-0.420482012545575
-0.32840222270697744,-0.32840222270697744
-0.420482012545575,-0.420482012545575
-0.32840222270697744,-0.32840222270697744
-0.420482012545575,-0.420482012545575
-0.32840222270697744,-0.32840222270697744
-0.32840222270697744,-0.32840222270697744
-0.05216285319120947,-0.05216285319120947
-0.05216285319120947,-0.05216285319120947
-0.14424264302979534,-0.14424264302979534
-0.05216285319120947,-0.05216285319120947
-0.14424264302979534,-0.14424264302979534
0.039916936647386776,0.039916936647386776
0.039916936647386776,0.039916936647386776
0.039916936647386776,0.039916936647386776
0.22407651632457018,0.22407651632457018
0.3161563061631547,0.3161563061631547
0.22407651632457018,0.22407651632457018
0.5003158858403381,0.5003158858403381
0.22407651632457018,0.22407651632457018
0.5003158858403381,0.5003158858403381
0.5003158858403381,0.5003158858403381
0.5923956756789344,0.5923956756789344
0.40823609600175226,0.40823609600175226
0.5923956756789344,0.5923956756789344
0.40823609600175226,0.40823609600175226
0.40823609600175226,0.40823609600175226
0.22407651632457018,0.22407651632457018
0.3161563061631547,0.3161563061631547
0.039916936647386776,0.039916936647386776
0.22407651632457018,0.22407651632457018
0.039916936647386776,0.039916936647386776
0.13199672648597263,0.13199672648597263
-0.05216285319120947,-0.05216285319120947
0.039916936647386776,0.039916936647386776
-0.05216285319120947,-0.05216285319120947
0.039916936647386776,0.039916936647386776
-0.14424264302979534,-0.14424264302979534
-0.32840222270697744,-0.32840222270697744
-0.05216285319120947,-0.05216285319120947
0.22407651632457018,0.22407651632457018
0.3161563061631547,0.3161563061631547
0.22407651632457018,0.22407651632457018
0.3161563061631547,0.3161563061631547
0.22407651632457018,0.22407651632457018
0.3161563061631547,0.3161563061631547
0.22407651632457018,0.22407651632457018
0.22407651632457018,0.22407651632457018
0.039916936647386776,0.039916936647386776
0.40823609600175226,0.40823609600175226
0.22407651632457018,0.22407651632457018
0.22407651632457018,0.22407651632457018
-0.05216285319120947,-0.05216285319120947
0.039916936647386776,0.039916936647386776
-0.32840222270697744,-0.32840222270697744
-0.05216285319120947,-0.05216285319120947
-0.23632243286839286,-0.23632243286839286
0.22407651632457018,0.22407651632457018
-0.05216285319120947,-0.05216285319120947
0.13199672648597263,0.13199672648597263
0.40823609600175226,0.40823609600175226
1.42111378422625,1.42111378422625
2.065672313096395,2.065672313096395
3.999347899706841,3.999347899706841
6.209262855832961,6.209262855832961
5.564704326962829,5.564704326962829
3.2627095809981332,3.2627095809981332
-0.420482012545575,-0.420482012545575
-1.0650405414157071,-1.0650405414157071
-0.880880961738525,-0.880880961738525
-0.604641592222757,-0.604641592222757
-0.420482012545575,-0.420482012545575
-0.420482012545575,-0.420482012545575
-0.420482012545575,-0.420482012545575
-0.420482012545575,-0.420482012545575
-0.604641592222757,-0.604641592222757
-0.5125618023841608,-0.5125618023841608
-0.880880961738525,-0.880880961738525
-0.7888011718999391,-0.7888011718999391
-1.1571203312543046,-1.1571203312543046
-0.6967213820613429,-0.6967213820613429
-0.6967213820613429,-0.6967213820613429
-0.604641592222757,-0.604641592222757
-0.6967213820613429,-0.6967213820613429
-0.604641592222757,-0.604641592222757
-0.6967213820613429,-0.6967213820613429
-0.7888011718999391,-0.7888011718999391
-0.7888011718999391,-0.7888011718999391
-0.7888011718999391,-0.7888011718999391
-0.604641592222757,-0.604641592222757
-0.6967213820613429,-0.6967213820613429
-0.5125618023841608,-0.5125618023841608
-0.604641592222757,-0.604641592222757
-0.5125618023841608,-0.5125618023841608
-0.604641592222757,-0.604641592222757
-0.604641592222757,-0.604641592222757
-0.6967213820613429,-0.6967213820613429
-0.420482012545575,-0.420482012545575
-0.420482012545575,-0.420482012545575
-0.05216285319120947,-0.05216285319120947
-0.14424264302979534,-0.14424264302979534
0.22407651632457018,0.22407651632457018
0.40823609600175226,0.40823609600175226
0.7765552553561178,0.7765552553561178
0.5923956756789344,0.5923956756789344
0.7765552553561178,0.7765552553561178
0.5923956756789344,0.5923956756789344
0.5003158858403381,0.5003158858403381
0.3161563061631547,0.3161563061631547
0.5003158858403381,0.5003158858403381
0.22407651632457018,0.22407651632457018
0.40823609600175226,0.40823609600175226
0.5003158858403381,0.5003158858403381
0.3161563061631547,0.3161563061631547
0.13199672648597263,0.13199672648597263
0.039916936647386776,0.039916936647386776
0.039916936647386776,0.039916936647386776
-0.05216285319120947,-0.05216285319120947
-0.23632243286839286,-0.23632243286839286
-0.32840222270697744,-0.32840222270697744
-0.23632243286839286,-0.23632243286839286
-0.23632243286839286,-0.23632243286839286
-0.05216285319120947,-0.05216285319120947
0.039916936647386776,0.039916936647386776
0.22407651632457018,0.22407651632457018
0.13199672648597263,0.13199672648597263
0.40823609600175226,0.40823609600175226
0.40823609600175226,0.40823609600175226
0.40823609600175226,0.40823609600175226
0.40823609600175226,0.40823609600175226
0.5003158858403381,0.5003158858403381
0.22407651632457018,0.22407651632457018
0.22407651632457018,0.22407651632457018
0.40823609600175226,0.40823609600175226
0.22407651632457018,0.22407651632457018
0.3161563061631547,0.3161563061631547
0.13199672648597263,0.13199672648597263
0.22407651632457018,0.22407651632457018
0.13199672648597263,0.13199672648597263
0.22407651632457018,0.22407651632457018
0.039916936647386776,0.039916936647386776
0.039916936647386776,0.039916936647386776
-0.23632243286839286,-0.23632243286839286
-0.14424264302979534,-0.14424264302979534
-0.32840222270697744,-0.32840222270697744
-0.23632243286839286,-0.23632243286839286
-0.32840222270697744,-0.32840222270697744
0.039916936647386776,0.039916936647386776
0.22407651632457018,0.22407651632457018
0.22407651632457018,0.22407651632457018
0.13199672648597263,0.13199672648597263
0.40823609600175226,0.40823609600175226
0.5003158858403381,0.5003158858403381
1.3290339943876655,1.3290339943876655
1.8815127334192012,1.8815127334192012
3.723108530191003,3.723108530191003
5.93302348631724,5.93302348631724
5.380544747285681,5.380544747285681
3.2627095809981332,3.2627095809981332
-0.14424264302979534,-0.14424264302979534
-1.2492001210928905,-1.2492001210928905
-0.880880961738525,-0.880880961738525
-0.6967213820613429,-0.6967213820613429
-0.7888011718999391,-0.7888011718999391
-0.880880961738525,-0.880880961738525
-0.9729607515771226,-0.9729607515771226
-0.880880961738525,-0.880880961738525
-0.880880961738525,-0.880880961738525
-0.9729607515771226,-0.9729607515771226
-0.880880961738525,-0.880880961738525
-0.7888011718999391,-0.7888011718999391
-0.880880961738525,-0.880880961738525
-0.7888011718999391,-0.7888011718999391
-0.6967213820613429,-0.6967213820613429
-0.5125618023841608,-0.5125618023841608
-0.604641592222757,-0.604641592222757
-0.5125618023841608,-0.5125618023841608
-0.6967213820613429,-0.6967213820613429
-0.604641592222757,-0.604641592222757
-0.604641592222757,-0.604641592222757
-0.32840222270697744,-0.32840222270697744
-0.5125618023841608,-0.5125618023841608
-0.5125618023841608,-0.5125618023841608
-0.604641592222757,-0.604641592222757
-0.6967213820613429,-0.6967213820613429
-0.9729607515771226,-0.9729607515771226
-0.7888011718999391,-0.7888011718999391
-0.880880961738525,-0.880880961738525
-0.6967213820613429,-0.6967213820613429
-0.604641592222757,-0.604641592222757
-0.6967213820613429,-0.6967213820613429
-0.5125618023841608,-0.5125618023841608
-0.604641592222757,-0.604641592222757
-0.14424264302979534,-0.14424264302979534
0.039916936647386776,0.039916936647386776
0.22407651632457018,0.22407651632457018
0.3161563061631547,0.3161563061631547
0.40823609600175226,0.40823609600175226
0.40823609600175226,0.40823609600175226
0.5923956756789344,0.5923956756789344
0.5923956756789344,0.5923956756789344
0.7765552553561178,0.7765552553561178
0.5003158858403381,0.5003158858403381
0.5923956756789344,0.5923956756789344
0.5923956756789344,0.5923956756789344
0.6844754655175203,0.6844754655175203
0.6844754655175203,0.6844754655175203
0.5923956756789344,0.5923956756789344
0.3161563061631547,0.3161563061631547
0.22407651632457018,0.22407651632457018
-0.05216285319120947,-0.05216285319120947
-0.05216285319120947,-0.05216285319120947
-0.05216285319120947,-0.05216285319120947
-0.05216285319120947,-0.05216285319120947
-0.23632243286839286,-0.23632243286839286
-0.32840222270697744,-0.32840222270697744
-0.05216285319120947,-0.05216285319120947
-0.05216285319120947,-0.05216285319120947
0.039916936647386776,0.039916936647386776
-0.14424264302979534,-0.14424264302979534
0.039916936647386776,0.039916936647386776
-0.23632243286839286,-0.23632243286839286
0.22407651632457018,0.22407651632457018
0.22407651632457018,0.22407651632457018
0.5003158858403381,0.5003158858403381
0.22407651632457018,0.22407651632457018
0.3161563061631547,0.3161563061631547
0.40823609600175226,0.40823609600175226
0.8686350451947024,0.8686350451947024
1.5131935740648474,1.5131935740648474
2.710230841966574,2.710230841966574
5.196385167608533,5.196385167608533
6.117183065994388,6.117183065994388
5.01222558793127,5.01222558793127
1.42111378422625,1.42111378422625
-1.3412799109314868,-1.3412799109314868
-1.7095990702858523,-1.7095990702858523
-1.3412799109314868,-1.3412799109314868
-0.880880961738525,-0.880880961738525
-0.7888011718999391,-0.7888011718999391
-0.604641592222757,-0.604641592222757
-0.604641592222757,-0.604641592222757
-0.880880961738525,-0.880880961738525
-0.6967213820613429,-0.6967213820613429
-0.6967213820613429,-0.6967213820613429
-0.604641592222757,-0.604641592222757
-0.5125618023841608,-0.5125618023841608
-0.420482012545575,-0.420482012545575
-0.5125618023841608,-0.5125618023841608
-0.32840222270697744,-0.32840222270697744
-0.5125618023841608,-0.5125618023841608
-0.420482012545575,-0.420482012545575
-0.604641592222757,-0.604641592222757
-0.5125618023841608,-0.5125618023841608
-0.6967213820613429,-0.6967213820613429
-0.7888011718999391,-0.7888011718999391
-0.9729607515771226,-0.9729607515771226
-0.880880961738525,-0.880880961738525
-1.2492001210928905,-1.2492001210928905
-1.2492001210928905,-1.2492001210928905
-1.6175192804472547,-1.6175192804472547
-1.4333597007700727,-1.4333597007700727
-1.4333597007700727,-1.4333597007700727
-1.1571203312543046,-1.1571203312543046
-0.9729607515771226,-0.9729607515771226
-0.7888011718999391,-0.7888011718999391
-0.604641592222757,-0.604641592222757
-0.23632243286839286,-0.23632243286839286
-0.05216285319120947,-0.05216285319120947
0.13199672648597263,0.13199672648597263
0.40823609600175226,0.40823609600175226
0.40823609600175226,0.40823609600175226
0.7765552553561178,0.7765552553561178
0.5003158858403381,0.5003158858403381
0.8686350451947024,0.8686350451947024
0.6844754655175203,0.6844754655175203
0.7765552553561178,0.7765552553561178
0.5923956756789344,0.5923956756789344
0.5923956756789344,0.5923956756789344
0.40823609600175226,0.40823609600175226
0.5003158858403381,0.5003158858403381
0.22407651632457018,0.22407651632457018
0.3161563061631547,0.3161563061631547
0.22407651632457018,0.22407651632457018
0.22407651632457018,0.22407651632457018
0.039916936647386776,0.039916936647386776
-0.05216285319120947,-0.05216285319120947
-0.05216285319120947,-0.05216285319120947
0.22407651632457018,0.22407651632457018
0.5003158858403381,0.5003158858403381
0.5923956756789344,0.5923956756789344
0.5003158858403381,0.5003158858403381
0.40823609600175226,0.40823609600175226
0.5923956756789344,0.5923956756789344
0.5923956756789344,0.5923956756789344
0.7765552553561178,0.7765552553561178
0.5003158858403381,0.5003158858403381
0.6844754655175203,0.6844754655175203
0.5923956756789344,0.5923956756789344
0.5003158858403381,0.5003158858403381
0.5003158858403381,0.5003158858403381
0.40823609600175226,0.40823609600175226
0.22407651632457018,0.22407651632457018
0.3161563061631547,0.3161563061631547
0.13199672648597263,0.13199672648597263
0.22407651632457018,0.22407651632457018
0.039916936647386776,0.039916936647386776
0.039916936647386776,0.039916936647386776
-0.05216285319120947,-0.05216285319120947
-0.05216285319120947,-0.05216285319120947
-0.05216285319120947,-0.05216285319120947
0.039916936647386776,0.039916936647386776
-0.05216285319120947,-0.05216285319120947
0.3161563061631547,0.3161563061631547
0.40823609600175226,0.40823609600175226
0.5003158858403381,0.5003158858403381
0.40823609600175226,0.40823609600175226
0.5003158858403381,0.5003158858403381
0.5003158858403381,0.5003158858403381
0.6844754655175203,0.6844754655175203
0.7765552553561178,0.7765552553561178
0.5003158858403381,0.5003158858403381
0.5923956756789344,0.5923956756789344
0.40823609600175226,0.40823609600175226
0.5003158858403381,0.5003158858403381
0.5923956756789344,0.5923956756789344
1.2369542045490678,1.2369542045490678
1.5131935740648474,1.5131935740648474
3.3547893708367087,3.3547893708367087
5.840943696478667,5.840943696478667
5.93302348631724,5.93302348631724
3.3547893708367087,3.3547893708367087
-0.23632243286839286,-0.23632243286839286
-1.7095990702858523,-1.7095990702858523
-1.3412799109314868,-1.3412799109314868
-0.7888011718999391,-0.7888011718999391
-0.420482012545575,-0.420482012545575
-0.604641592222757,-0.604641592222757
-0.32840222270697744,-0.32840222270697744
-0.23632243286839286,-0.23632243286839286
-0.420482012545575,-0.420482012545575
-0.32840222270697744,-0.32840222270697744
-0.420482012545575,-0.420482012545575
-0.32840222270697744,-0.32840222270697744
-0.604641592222757,-0.604641592222757
-0.604641592222757,-0.604641592222757
-0.604641592222757,-0.604641592222757
-0.604641592222757,-0.604641592222757
-0.604641592222757,-0.604641592222757
-0.6967213820613429,-0.6967213820613429
-0.880880961738525,-0.880880961738525
-0.7888011718999391,-0.7888011718999391
-0.880880961738525,-0.880880961738525
-0.7888011718999391,-0.7888011718999391
-1.0650405414157071,-1.0650405414157071
-1.0650405414157071,-1.0650405414157071
-0.9729607515771226,-0.9729607515771226
-0.7888011718999391,-0.7888011718999391
-0.880880961738525,-0.880880961738525
-0.604641592222757,-0.604641592222757
-0.604641592222757,-0.604641592222757
-0.420482012545575,-0.420482012545575
-0.5125618023841608,-0.5125618023841608
-0.32840222270697744,-0.32840222270697744
-0.23632243286839286,-0.23632243286839286
0.039916936647386776,0.039916936647386776
0.22407651632457018,0.22407651632457018
0.22407651632457018,0.22407651632457018
0.3161563061631547,0.3161563061631547
0.40823609600175226,0.40823609600175226
0.22407651632457018,0.22407651632457018
0.22407651632457018,0.22407651632457018
0.3161563061631547,0.3161563061631547
0.22407651632457018,0.22407651632457018
0.13199672648597263,0.13199672648597263
-0.05216285319120947,-0.05216285319120947
0.039916936647386776,0.039916936647386776
-0.05216285319120947,-0.05216285319120947
0.22407651632457018,0.22407651632457018
0.13199672648597263,0.13199672648597263
0.22407651632457018,0.22407651632457018
0.22407651632457018,0.22407651632457018
0.3161563061631547,0.3161563061631547
0.22407651632457018,0.22407651632457018
0.3161563061631547,0.3161563061631547
0.22407651632457018,0.22407651632457018
0.3161563061631547,0.3161563061631547
0.22407651632457018,0.22407651632457018
0.40823609600175226,0.40823609600175226
0.22407651632457018,0.22407651632457018
0.13199672648597263,0.13199672648597263
0.22407651632457018,0.22407651632457018
0.039916936647386776,0.039916936647386776
0.22407651632457018,0.22407651632457018
-0.05216285319120947,-0.05216285319120947
0.039916936647386776,0.039916936647386776
-0.05216285319120947,-0.05216285319120947
-0.23632243286839286,-0.23632243286839286
-0.23632243286839286,-0.23632243286839286
-0.05216285319120947,-0.05216285319120947
-0.05216285319120947,-0.05216285319120947
0.039916936647386776,0.039916936647386776
-0.05216285319120947,-0.05216285319120947
0.039916936647386776,0.039916936647386776
-0.05216285319120947,-0.05216285319120947
0.039916936647386776,0.039916936647386776
-0.05216285319120947,-0.05216285319120947
0.13199672648597263,0.13199672648597263
0.13199672648597263,0.13199672648597263
0.22407651632457018,0.22407651632457018
0.22407651632457018,0.22407651632457018
0.22407651632457018,0.22407651632457018
0.13199672648597263,0.13199672648597263
0.039916936647386776,0.039916936647386776
0.22407651632457018,0.22407651632457018
0.039916936647386776,0.039916936647386776
0.22407651632457018,0.22407651632457018
0.039916936647386776,0.039916936647386776
0.13199672648597263,0.13199672648597263
-0.05216285319120947,-0.05216285319120947
0.039916936647386776,0.039916936647386776
-0.05216285319120947,-0.05216285319120947
0.22407651632457018,0.22407651632457018
0.039916936647386776,0.039916936647386776
0.13199672648597263,0.13199672648597263
0.039916936647386776,0.039916936647386776
0.22407651632457018,0.22407651632457018
-0.05216285319120947,-0.05216285319120947
0.039916936647386776,0.039916936647386776
-0.05216285319120947,-0.05216285319120947
0.039916936647386776,0.039916936647386776
-0.05216285319120947,-0.05216285319120947
0.039916936647386776,0.039916936647386776
-0.32840222270697744,-0.32840222270697744
-0.05216285319120947,-0.05216285319120947
0.13199672648597263,0.13199672648597263
0.8686350451947024,0.8686350451947024
1.42111378422625,1.42111378422625
3.3547893708367087,3.3547893708367087
5.840943696478667,5.840943696478667
5.472624537124253,5.472624537124253
3.4468691606752815,3.4468691606752815
-0.23632243286839286,-0.23632243286839286
-1.1571203312543046,-1.1571203312543046
-0.7888011718999391,-0.7888011718999391
-0.604641592222757,-0.604641592222757
-0.604641592222757,-0.604641592222757
-0.5125618023841608,-0.5125618023841608
-0.604641592222757,-0.604641592222757
-0.5125618023841608,-0.5125618023841608
-0.604641592222757,-0.604641592222757
-0.5125618023841608,-0.5125618023841608
-0.604641592222757,-0.604641592222757
-0.5125618023841608,-0.5125618023841608
-0.6967213820613429,-0.6967213820613429
-0.604641592222757,-0.604641592222757
-0.880880961738525,-0.880880961738525
-0.6967213820613429,-0.6967213820613429
-0.880880961738525,-0.880880961738525
-0.6967213820613429,-0.6967213820613429
-0.880880961738525,-0.880880961738525
-0.6967213820613429,-0.6967213820613429
-0.6967213820613429,-0.6967213820613429
-0.880880961738525,-0.880880961738525
-0.6967213820613429,-0.6967213820613429
-0.7888011718999391,-0.7888011718999391
-0.604641592222757,-0.604641592222757
-0.6967213820613429,-0.6967213820613429
-0.6967213820613429,-0.6967213820613429
-0.880880961738525,-0.880880961738525
-0.6967213820613429,-0.6967213820613429
-0.6967213820613429,-0.6967213820613429
-0.604641592222757,-0.604641592222757
-0.604641592222757,-0.604641592222757
-0.23632243286839286,-0.23632243286839286
-0.32840222270697744,-0.32840222270697744
0.039916936647386776,0.039916936647386776
0.039916936647386776,0.039916936647386776
0.22407651632457018,0.22407651632457018
0.22407651632457018,0.22407651632457018
0.3161563061631547,0.3161563061631547
0.22407651632457018,0.22407651632457018
0.40823609600175226,0.40823609600175226
0.22407651632457018,0.22407651632457018
0.3161563061631547,0.3161563061631547
0.22407651632457018,0.22407651632457018
0.40823609600175226,0.40823609600175226
0.22407651632457018,0.22407651632457018
0.3161563061631547,0.3161563061631547
0.039916936647386776,0.039916936647386776
-0.05216285319120947,-0.05216285319120947
-0.14424264302979534,-0.14424264302979534
0.13199672648597263,0.13199672648597263
0.22407651632457018,0.22407651632457018
0.22407651632457018,0.22407651632457018
0.039916936647386776,0.039916936647386776
-0.05216285319120947,-0.05216285319120947
0.039916936647386776,0.039916936647386776
-0.05216285319120947,-0.05216285319120947
0.039916936647386776,0.039916936647386776
-0.05216285319120947,-0.05216285319120947
0.13199672648597263,0.13199672648597263
0.039916936647386776,0.039916936647386776
0.22407651632457018,0.22407651632457018
0.13199672648597263,0.13199672648597263
0.3161563061631547,0.3161563061631547
0.22407651632457018,0.22407651632457018
0.5003158858403381,0.5003158858403381
0.22407651632457018,0.22407651632457018
0.40823609600175226,0.40823609600175226
0.22407651632457018,0.22407651632457018
0.22407651632457018,0.22407651632457018
0.22407651632457018,0.22407651632457018
0.22407651632457018,0.22407651632457018
-0.05216285319120947,-0.05216285319120947
0.039916936647386776,0.039916936647386776
-0.05216285319120947,-0.05216285319120947
-0.05216285319120947,-0.05216285319120947
-0.23632243286839286,-0.23632243286839286
-0.14424264302979534,-0.14424264302979534
-0.05216285319120947,-0.05216285319120947
0.039916936647386776,0.039916936647386776
-0.05216285319120947,-0.05216285319120947
-0.05216285319120947,-0.05216285319120947
-0.05216285319120947,-0.05216285319120947
-0.05216285319120947,-0.05216285319120947
0.5923956756789344,0.5923956756789344
1.42111378422625,1.42111378422625
2.5260712622893116,2.5260712622893116
5.472624537124253,5.472624537124253
6.301342645671534,6.301342645671534
5.01222558793127,5.01222558793127
1.2369542045490678,1.2369542045490678
-1.0650405414157071,-1.0650405414157071
-1.1571203312543046,-1.1571203312543046
-0.880880961738525,-0.880880961738525
-0.7888011718999391,-0.7888011718999391
-0.880880961738525,-0.880880961738525
-0.6967213820613429,-0.6967213820613429
-0.880880961738525,-0.880880961738525
-0.7888011718999391,-0.7888011718999391
-0.880880961738525,-0.880880961738525
-0.880880961738525,-0.880880961738525
-1.0650405414157071,-1.0650405414157071
-1.1571203312543046,-1.1571203312543046
-0.880880961738525,-0.880880961738525
-0.604641592222757,-0.604641592222757
-0.420482012545575,-0.420482012545575
-0.420482012545575,-0.420482012545575
-0.23632243286839286,-0.23632243286839286
-0.420482012545575,-0.420482012545575
-0.23632243286839286,-0.23632243286839286
-0.420482012545575,-0.420482012545575
-0.23632243286839286,-0.23632243286839286
-0.420482012545575,-0.420482012545575
-0.32840222270697744,-0.32840222270697744
-0.604641592222757,-0.604641592222757
-0.5125618023841608,-0.5125618023841608
-0.880880961738525,-0.880880961738525
-0.880880961738525,-0.880880961738525
-0.9729607515771226,-0.9729607515771226
-0.880880961738525,-0.880880961738525
-0.880880961738525,-0.880880961738525
-0.880880961738525,-0.880880961738525
-0.7888011718999391,-0.7888011718999391
-0.604641592222757,-0.604641592222757
-0.604641592222757,-0.604641592222757
-0.32840222270697744,-0.32840222270697744
-0.23632243286839286,-0.23632243286839286
-0.23632243286839286,-0.23632243286839286
0.039916936647386776,0.039916936647386776
0.22407651632457018,0.22407651632457018
0.40823609600175226,0.40823609600175226
0.5003158858403381,0.5003158858403381
0.5923956756789344,0.5923956756789344
0.5003158858403381,0.5003158858403381
0.5923956756789344,0.5923956756789344
0.40823609600175226,0.40823609600175226
0.5003158858403381,0.5003158858403381
0.5003158858403381,0.5003158858403381
0.5003158858403381,0.5003158858403381
0.22407651632457018,0.22407651632457018
0.3161563061631547,0.3161563061631547
0.039916936647386776,0.039916936647386776
0.039916936647386776,0.039916936647386776
-0.05216285319120947,-0.05216285319120947
0.039916936647386776,0.039916936647386776
-0.05216285319120947,-0.05216285319120947
-0.23632243286839286,-0.23632243286839286
-0.32840222270697744,-0.32840222270697744
-0.32840222270697744,-0.32840222270697744
-0.420482012545575,-0.420482012545575
-0.23632243286839286,-0.23632243286839286
-0.23632243286839286,-0.23632243286839286
0.039916936647386776,0.039916936647386776
0.22407651632457018,0.22407651632457018
0.039916936647386776,0.039916936647386776
0.22407651632457018,0.22407651632457018
0.3161563061631547,0.3161563061631547
0.22407651632457018,0.22407651632457018
0.40823609600175226,0.40823609600175226
0.40823609600175226,0.40823609600175226
0.3161563061631547,0.3161563061631547
0.5003158858403381,0.5003158858403381
0.40823609600175226,0.40823609600175226
0.5003158858403381,0.5003158858403381
0.3161563061631547,0.3161563061631547
0.40823609600175226,0.40823609600175226
1.144874414710482,1.144874414710482
2.065672313096395,2.065672313096395
4.275587269222562,4.275587269222562
6.4855022253487995,6.4855022253487995
5.564704326962829,5.564704326962829
2.710230841966574,2.710230841966574
-0.7888011718999391,-0.7888011718999391
-1.6175192804472547,-1.6175192804472547
-1.3412799109314868,-1.3412799109314868
-1.0650405414157071,-1.0650405414157071
-1.0650405414157071,-1.0650405414157071
-0.880880961738525,-0.880880961738525
-0.880880961738525,-0.880880961738525
-0.6967213820613429,-0.6967213820613429
-0.6967213820613429,-0.6967213820613429
-0.7888011718999391,-0.7888011718999391
-0.880880961738525,-0.880880961738525
-0.6967213820613429,-0.6967213820613429
-0.6967213820613429,-0.6967213820613429
-0.6967213820613429,-0.6967213820613429
-0.604641592222757,-0.604641592222757
-0.6967213820613429,-0.6967213820613429
-0.604641592222757,-0.604641592222757
-0.6967213820613429,-0.6967213820613429
-0.6967213820613429,-0.6967213820613429
-0.7888011718999391,-0.7888011718999391
-0.880880961738525,-0.880880961738525
-0.880880961738525,-0.880880961738525
-0.880880961738525,-0.880880961738525
-1.1571203312543046,-1.1571203312543046
-1.0650405414157071,-1.0650405414157071
-1.3412799109314868,-1.3412799109314868
-1.3412799109314868,-1.3412799109314868
-1.1571203312543046,-1.1571203312543046
-0.880880961738525,-0.880880961738525
-0.880880961738525,-0.880880961738525
-0.6967213820613429,-0.6967213820613429
-0.6967213820613429,-0.6967213820613429
-0.420482012545575,-0.420482012545575
-0.32840222270697744,-0.32840222270697744
-0.05216285319120947,-0.05216285319120947
0.039916936647386776,0.039916936647386776
0.22407651632457018,0.22407651632457018
0.40823609600175226,0.40823609600175226
0.22407651632457018,0.22407651632457018
0.22407651632457018,0.22407651632457018
0.22407651632457018,0.22407651632457018
0.40823609600175226,0.40823609600175226
0.22407651632457018,0.22407651632457018
0.3161563061631547,0.3161563061631547
0.13199672648597263,0.13199672648597263
0.22407651632457018,0.22407651632457018
0.039916936647386776,0.039916936647386776
0.22407651632457018,0.22407651632457018
0.13199672648597263,0.13199672648597263
0.22407651632457018,0.22407651632457018
0.039916936647386776,0.039916936647386776
0.13199672648597263,0.13199672648597263
-0.05216285319120947,-0.05216285319120947
0.039916936647386776,0.039916936647386776
0.13199672648597263,0.13199672648597263
0.22407651632457018,0.22407651632457018
0.039916936647386776,0.039916936647386776
0.039916936647386776,0.039916936647386776
0.13199672648597263,0.13199672648597263
0.039916936647386776,0.039916936647386776
0.039916936647386776,0.039916936647386776
0.13199672648597263,0.13199672648597263
0.22407651632457018,0.22407651632457018
-0.05216285319120947,-0.05216285319120947
0.22407651632457018,0.22407651632457018
-0.05216285319120947,-0.05216285319120947
0.13199672648597263,0.13199672648597263
0.039916936647386776,0.039916936647386776
0.13199672648597263,0.13199672648597263
-0.05216285319120947,-0.05216285319120947
0.039916936647386776,0.039916936647386776
0.039916936647386776,0.039916936647386776
0.13199672648597263,0.13199672648597263
-0.05216285319120947,-0.05216285319120947
0.22407651632457018,0.22407651632457018
-0.05216285319120947,-0.05216285319120947
0.13199672648597263,0.13199672648597263
0.22407651632457018,0.22407651632457018
0.22407651632457018,0.22407651632457018
-0.05216285319120947,-0.05216285319120947
0.039916936647386776,0.039916936647386776
0.039916936647386776,0.039916936647386776
0.039916936647386776,0.039916936647386776
0.22407651632457018,0.22407651632457018
-0.05216285319120947,-0.05216285319120947
0.039916936647386776,0.039916936647386776
0.039916936647386776,0.039916936647386776
0.13199672648597263,0.13199672648597263
-0.05216285319120947,-0.05216285319120947
0.22407651632457018,0.22407651632457018
-0.05216285319120947,-0.05216285319120947
0.039916936647386776,0.039916936647386776
-0.05216285319120947,-0.05216285319120947
0.039916936647386776,0.039916936647386776
-0.05216285319120947,-0.05216285319120947
-0.05216285319120947,-0.05216285319120947
-0.05216285319120947,-0.05216285319120947
0.6844754655175203,0.6844754655175203
1.3290339943876655,1.3290339943876655
2.894390421643722,2.894390421643722
5.6567841168014015,5.6567841168014015
6.117183065994388,6.117183065994388
4.183507479383989,4.183507479383989
0.40823609600175226,0.40823609600175226
-1.5254394906086701,-1.5254394906086701
-1.6175192804472547,-1.6175192804472547
-0.880880961738525,-0.880880961738525
-0.6967213820613429,-0.6967213820613429
-0.604641592222757,-0.604641592222757
-0.6967213820613429,-0.6967213820613429
-0.5125618023841608,-0.5125618023841608
-0.604641592222757,-0.604641592222757
-0.32840222270697744,-0.32840222270697744
-0.420482012545575,-0.420482012545575
-0.32840222270697744,-0.32840222270697744
-0.6967213820613429,-0.6967213820613429
-0.604641592222757,-0.604641592222757
-0.6967213820613429,-0.6967213820613429
-0.6967213820613429,-0.6967213820613429
-0.880880961738525,-0.880880961738525
-0.6967213820613429,-0.6967213820613429
-0.880880961738525,-0.880880961738525
-0.7888011718999391,-0.7888011718999391
-0.9729607515771226,-0.9729607515771226
-0.880880961738525,-0.880880961738525
-1.0650405414157071,-1.0650405414157071
-1.1571203312543046,-1.1571203312543046
-1.0650405414157071,-1.0650405414157071
-0.9729607515771226,-0.9729607515771226
-0.9729607515771226,-0.9729607515771226
-0.880880961738525,-0.880880961738525
-0.7888011718999391,-0.7888011718999391
-0.604641592222757,-0.604641592222757
-0.6967213820613429,-0.6967213820613429
-0.5125618023841608,-0.5125618023841608
-0.32840222270697744,-0.32840222270697744
-0.14424264302979534,-0.14424264302979534
0.039916936647386776,0.039916936647386776
-0.05216285319120947,-0.05216285319120947
0.40823609600175226,0.40823609600175226
0.40823609600175226,0.40823609600175226
0.5003158858403381,0.5003158858403381
0.40823609600175226,0.40823609600175226
0.5003158858403381,0.5003158858403381
0.22407651632457018,0.22407651632457018
0.3161563061631547,0.3161563061631547
0.22407651632457018,0.22407651632457018
0.22407651632457018,0.22407651632457018
-0.05216285319120947,-0.05216285319120947
0.22407651632457018,0.22407651632457018
-0.05216285319120947,-0.05216285319120947
0.13199672648597263,0.13199672648597263
0.22407651632457018,0.22407651632457018
0.13199672648597263,0.13199672648597263
0.039916936647386776,0.039916936647386776
0.22407651632457018,0.22407651632457018
0.13199672648597263,0.13199672648597263
0.22407651632457018,0.22407651632457018
0.3161563061631547,0.3161563061631547
0.22407651632457018,0.22407651632457018
0.40823609600175226,0.40823609600175226
0.5003158858403381,0.5003158858403381
0.5923956756789344,0.5923956756789344
0.40823609600175226,0.40823609600175226
0.5003158858403381,0.5003158858403381
0.3161563061631547,0.3161563061631547
0.40823609600175226,0.40823609600175226
0.22407651632457018,0.22407651632457018
0.40823609600175226,0.40823609600175226
0.13199672648597263,0.13199672648597263
0.22407651632457018,0.22407651632457018
-0.05216285319120947,-0.05216285319120947
0.039916936647386776,0.039916936647386776
0.039916936647386776,0.039916936647386776
0.22407651632457018,0.22407651632457018
0.13199672648597263,0.13199672648597263
0.22407651632457018,0.22407651632457018
0.039916936647386776,0.039916936647386776
0.22407651632457018,0.22407651632457018
0.22407651632457018,0.22407651632457018
0.22407651632457018,0.22407651632457018
0.039916936647386776,0.039916936647386776
0.22407651632457018,0.22407651632457018
0.40823609600175226,0.40823609600175226
0.7765552553561178,0.7765552553561178
1.42111378422625,1.42111378422625
2.249831892773577,2.249831892773577
4.828066008254122,4.828066008254122
6.117183065994388,6.117183065994388
5.196385167608533,5.196385167608533
1.8815127334192012,1.8815127334192012
-0.880880961738525,-0.880880961738525
-1.3412799109314868,-1.3412799109314868
-0.880880961738525,-0.880880961738525
-0.9729607515771226,-0.9729607515771226
-0.880880961738525,-0.880880961738525
-0.9729607515771226,-0.9729607515771226
-0.880880961738525,-0.880880961738525
-1.0650405414157071,-1.0650405414157071
-0.880880961738525,-0.880880961738525
-1.0650405414157071,-1.0650405414157071
-0.9729607515771226,-0.9729607515771226
-1.0650405414157071,-1.0650405414157071
-0.880880961738525,-0.880880961738525
-0.7888011718999391,-0.7888011718999391
-0.604641592222757,-0.604641592222757
-0.5125618023841608,-0.5125618023841608
-0.604641592222757,-0.604641592222757
-0.420482012545575,-0.420482012545575
-0.420482012545575,-0.420482012545575
-0.604641592222757,-0.604641592222757
-0.604641592222757,-0.604641592222757
-0.604641592222757,-0.604641592222757
-0.6967213820613429,-0.6967213820613429
-0.880880961738525,-0.880880961738525
-1.0650405414157071,-1.0650405414157071
-0.880880961738525,-0.880880961738525
-1.2492001210928905,-1.2492001210928905
-1.0650405414157071,-1.0650405414157071
-1.1571203312543046,-1.1571203312543046
-1.0650405414157071,-1.0650405414157071
-1.0650405414157071,-1.0650405414157071
-0.6967213820613429,-0.6967213820613429
-0.6967213820613429,-0.6967213820613429
-0.420482012545575,-0.420482012545575
-0.32840222270697744,-0.32840222270697744
-0.14424264302979534,-0.14424264302979534
-0.23632243286839286,-0.23632243286839286
-0.05216285319120947,-0.05216285319120947
0.039916936647386776,0.039916936647386776
0.40823609600175226,0.40823609600175226
0.40823609600175226,0.40823609600175226
0.3161563061631547,0.3161563061631547
0.5003158858403381,0.5003158858403381
0.22407651632457018,0.22407651632457018
0.22407651632457018,0.22407651632457018
0.13199672648597263,0.13199672648597263
0.22407651632457018,0.22407651632457018
0.039916936647386776,0.039916936647386776
0.039916936647386776,0.039916936647386776
-0.14424264302979534,-0.14424264302979534
-0.05216285319120947,-0.05216285319120947
-0.32840222270697744,-0.32840222270697744
-0.23632243286839286,-0.23632243286839286
-0.32840222270697744,-0.32840222270697744
-0.05216285319120947,-0.05216285319120947
-0.14424264302979534,-0.14424264302979534
-0.05216285319120947,-0.05216285319120947
-0.05216285319120947,-0.05216285319120947
-0.05216285319120947,-0.05216285319120947
-0.32840222270697744,-0.32840222270697744
-0.14424264302979534,-0.14424264302979534
-0.14424264302979534,-0.14424264302979534
0.039916936647386776,0.039916936647386776
0.13199672648597263,0.13199672648597263
0.3161563061631547,0.3161563061631547
0.22407651632457018,0.22407651632457018
0.22407651632457018,0.22407651632457018
-0.05216285319120947,-0.05216285319120947
0.22407651632457018,0.22407651632457018
0.5003158858403381,0.5003158858403381
1.144874414710482,1.144874414710482
2.341911682612163,2.341911682612163
5.196385167608533,5.196385167608533
5.840943696478667,5.840943696478667
4.183507479383989,4.183507479383989
0.40823609600175226,0.40823609600175226
-1.4333597007700727,-1.4333597007700727
-1.2492001210928905,-1.2492001210928905
-0.9729607515771226,-0.9729607515771226
-0.6967213820613429,-0.6967213820613429
-0.7888011718999391,-0.7888011718999391
-0.604641592222757,-0.604641592222757
-0.7888011718999391,-0.7888011718999391
-0.604641592222757,-0.604641592222757
-0.7888011718999391,-0.7888011718999391
-0.7888011718999391,-0.7888011718999391
-0.6967213820613429,-0.6967213820613429
-0.604641592222757,-0.604641592222757
-0.604641592222757,-0.604641592222757
-0.604641592222757,-0.604641592222757
-0.7888011718999391,-0.7888011718999391
-0.604641592222757,-0.604641592222757
-0.6967213820613429,-0.6967213820613429
-0.604641592222757,-0.604641592222757
-0.7888011718999391,-0.7888011718999391
-0.880880961738525,-0.880880961738525
-0.6967213820613429,-0.6967213820613429
-0.6967213820613429,-0.6967213820613429
-0.604641592222757,-0.604641592222757
-0.880880961738525,-0.880880961738525
-0.7888011718999391,-0.7888011718999391
-0.9729607515771226,-0.9729607515771226
-0.880880961738525,-0.880880961738525
-0.880880961738525,-0.880880961738525
-0.880880961738525,-0.880880961738525
-0.880880961738525,-0.880880961738525
-0.604641592222757,-0.604641592222757
-0.604641592222757,-0.604641592222757
-0.23632243286839286,-0.23632243286839286
-0.14424264302979534,-0.14424264302979534
0.22407651632457018,0.22407651632457018
0.3161563061631547,0.3161563061631547
0.5003158858403381,0.5003158858403381
0.22407651632457018,0.22407651632457018
0.3161563061631547,0.3161563061631547
0.22407651632457018,0.22407651632457018
0.13199672648597263,0.13199672648597263
0.22407651632457018,0.22407651632457018
0.13199672648597263,0.13199672648597263
0.40823609600175226,0.40823609600175226
0.22407651632457018,0.22407651632457018
0.40823609600175226,0.40823609600175226
0.3161563061631547,0.3161563061631547
0.5003158858403381,0.5003158858403381
0.40823609600175226,0.40823609600175226
0.40823609600175226,0.40823609600175226
0.22407651632457018,0.22407651632457018
0.3161563061631547,0.3161563061631547
0.22407651632457018,0.22407651632457018
0.40823609600175226,0.40823609600175226
0.40823609600175226,0.40823609600175226
0.5003158858403381,0.5003158858403381
0.40823609600175226,0.40823609600175226
0.5003158858403381,0.5003158858403381
0.3161563061631547,0.3161563061631547
0.22407651632457018,0.22407651632457018
0.22407651632457018,0.22407651632457018
0.22407651632457018,0.22407651632457018
0.22407651632457018,0.22407651632457018
0.13199672648597263,0.13199672648597263
-0.05216285319120947,-0.05216285319120947
0.039916936647386776,0.039916936647386776
-0.05216285319120947,-0.05216285319120947
0.039916936647386776,0.039916936647386776
0.22407651632457018,0.22407651632457018
0.039916936647386776,0.039916936647386776
0.22407651632457018,0.22407651632457018
0.039916936647386776,0.039916936647386776
0.22407651632457018,0.22407651632457018
0.13199672648597263,0.13199672648597263
0.22407651632457018,0.22407651632457018
0.039916936647386776,0.039916936647386776
0.22407651632457018,0.22407651632457018
0.22407651632457018,0.22407651632457018
0.22407651632457018,0.22407651632457018
0.13199672648597263,0.13199672648597263
0.22407651632457018,0.22407651632457018
0.13199672648597263,0.13199672648597263
0.22407651632457018,0.22407651632457018
0.039916936647386776,0.039916936647386776
0.22407651632457018,0.22407651632457018
0.039916936647386776,0.039916936647386776
0.13199672648597263,0.13199672648597263
-0.05216285319120947,-0.05216285319120947
0.039916936647386776,0.039916936647386776
-0.05216285319120947,-0.05216285319120947
-0.05216285319120947,-0.05216285319120947
-0.23632243286839286,-0.23632243286839286
0.039916936647386776,0.039916936647386776
0.13199672648597263,0.13199672648597263
0.40823609600175226,0.40823609600175226
0.5003158858403381,0.5003158858403381
0.40823609600175226,0.40823609600175226
0.40823609600175226,0.40823609600175226
0.40823609600175226,0.40823609600175226
0.5923956756789344,0.5923956756789344
0.22407651632457018,0.22407651632457018
0.40823609600175226,0.40823609600175226
0.22407651632457018,0.22407651632457018
0.3161563061631547,0.3161563061631547
0.22407651632457018,0.22407651632457018
0.3161563061631547,0.3161563061631547
0.13199672648597263,0.13199672648597263
0.22407651632457018,0.22407651632457018
-0.05216285319120947,-0.05216285319120947
-0.14424264302979534,-0.14424264302979534
-0.32840222270697744,-0.32840222270697744
-0.23632243286839286,-0.23632243286839286
-0.420482012545575,-0.420482012545575
-0.23632243286839286,-0.23632243286839286
0.039916936647386776,0.039916936647386776
1.3290339943876655,1.3290339943876655
2.341911682612163,2.341911682612163
5.472624537124253,5.472624537124253
6.117183065994388,6.117183065994388
4.5518266387384,4.5518266387384
0.6844754655175203,0.6844754655175203
-1.2492001210928905,-1.2492001210928905
-1.1571203312543046,-1.1571203312543046
-0.880880961738525,-0.880880961738525
-0.7888011718999391,-0.7888011718999391
-0.604641592222757,-0.604641592222757
-0.5125618023841608,-0.5125618023841608
-0.604641592222757,-0.604641592222757
-0.604641592222757,-0.604641592222757
-0.6967213820613429,-0.6967213820613429
-0.604641592222757,-0.604641592222757
-0.880880961738525,-0.880880961738525
-0.7888011718999391,-0.7888011718999391
-0.9729607515771226,-0.9729607515771226
-0.6967213820613429,-0.6967213820613429
-0.6967213820613429,-0.6967213820613429
-0.6967213820613429,-0.6967213820613429
-0.880880961738525,-0.880880961738525
-0.6967213820613429,-0.6967213820613429
-0.604641592222757,-0.604641592222757
-0.5125618023841608,-0.5125618023841608
-0.7888011718999391,-0.7888011718999391
-0.5125618023841608,-0.5125618023841608
-0.420482012545575,-0.420482012545575
-0.6967213820613429,-0.6967213820613429
-0.420482012545575,-0.420482012545575
-0.420482012545575,-0.420482012545575
-0.32840222270697744,-0.32840222270697744
-0.5125618023841608,-0.5125618023841608
-0.32840222270697744,-0.32840222270697744
-0.420482012545575,-0.420482012545575
-0.604641592222757,-0.604641592222757
-0.420482012545575,-0.420482012545575
-0.32840222270697744,-0.32840222270697744
-0.420482012545575,-0.420482012545575
-0.23632243286839286,-0.23632243286839286
-0.32840222270697744,-0.32840222270697744
-0.23632243286839286,-0.23632243286839286
-0.23632243286839286,-0.23632243286839286
-0.23632243286839286,-0.23632243286839286
-0.14424264302979534,-0.14424264302979534
-0.05216285319120947,-0.05216285319120947
-0.05216285319120947,-0.05216285319120947
0.22407651632457018,0.22407651632457018
0.22407651632457018,0.22407651632457018
0.3161563061631547,0.3161563061631547
0.13199672648597263,0.13199672648597263
0.22407651632457018,0.22407651632457018
0.40823609600175226,0.40823609600175226
0.22407651632457018,0.22407651632457018
0.5003158858403381,0.5003158858403381
0.40823609600175226,0.40823609600175226
0.5003158858403381,0.5003158858403381
0.3161563061631547,0.3161563061631547
0.40823609600175226,0.40823609600175226
0.13199672648597263,0.13199672648597263
0.22407651632457018,0.22407651632457018
0.039916936647386776,0.039916936647386776
0.22407651632457018,0.22407651632457018
-0.05216285319120947,-0.05216285319120947
0.22407651632457018,0.22407651632457018
0.039916936647386776,0.039916936647386776
-0.05216285319120947,-0.05216285319120947
0.039916936647386776,0.039916936647386776
0.22407651632457018,0.22407651632457018
0.039916936647386776,0.039916936647386776
0.22407651632457018,0.22407651632457018
0.22407651632457018,0.22407651632457018
0.22407651632457018,0.22407651632457018
0.40823609600175226,0.40823609600175226
0.5003158858403381,0.5003158858403381
0.3161563061631547,0.3161563061631547
0.5003158858403381,0.5003158858403381
0.40823609600175226,0.40823609600175226
0.40823609600175226,0.40823609600175226
0.5003158858403381,0.5003158858403381
0.22407651632457018,0.22407651632457018
0.22407651632457018,0.22407651632457018
0.039916936647386776,0.039916936647386776
0.13199672648597263,0.13199672648597263
-0.05216285319120947,-0.05216285319120947
0.039916936647386776,0.039916936647386776
-0.14424264302979534,-0.14424264302979534
-0.05216285319120947,-0.05216285319120947
-0.05216285319120947,-0.05216285319120947
0.13199672648597263,0.13199672648597263
0.039916936647386776,0.039916936647386776
0.22407651632457018,0.22407651632457018
0.039916936647386776,0.039916936647386776
0.13199672648597263,0.13199672648597263
-0.05216285319120947,-0.05216285319120947
0.039916936647386776,0.039916936647386776
0.13199672648597263,0.13199672648597263
0.22407651632457018,0.22407651632457018
0.22407651632457018,0.22407651632457018
0.5003158858403381,0.5003158858403381
0.5003158858403381,0.5003158858403381
0.5003158858403381,0.5003158858403381
0.22407651632457018,0.22407651632457018
0.40823609600175226,0.40823609600175226
0.13199672648597263,0.13199672648597263
0.22407651632457018,0.22407651632457018
0.3161563061631547,0.3161563061631547
0.039916936647386776,0.039916936647386776
0.039916936647386776,0.039916936647386776
-0.05216285319120947,-0.05216285319120947
-0.05216285319120947,-0.05216285319120947
-0.14424264302979534,-0.14424264302979534
0.039916936647386776,0.039916936647386776
-0.05216285319120947,-0.05216285319120947
0.22407651632457018,0.22407651632457018
0.039916936647386776,0.039916936647386776
0.22407651632457018,0.22407651632457018
0.13199672648597263,0.13199672648597263
0.3161563061631547,0.3161563061631547
0.22407651632457018,0.22407651632457018
0.40823609600175226,0.40823609600175226
0.22407651632457018,0.22407651632457018
0.3161563061631547,0.3161563061631547
0.22407651632457018,0.22407651632457018
0.22407651632457018,0.22407651632457018
0.22407651632457018,0.22407651632457018
0.40823609600175226,0.40823609600175226
0.5003158858403381,0.5003158858403381
0.3161563061631547,0.3161563061631547
0.22407651632457018,0.22407651632457018
0.039916936647386776,0.039916936647386776
-0.05216285319120947,-0.05216285319120947
-0.05216285319120947,-0.05216285319120947
-0.23632243286839286,-0.23632243286839286
-0.23632243286839286,-0.23632243286839286
0.039916936647386776,0.039916936647386776
-0.05216285319120947,-0.05216285319120947
0.13199672648597263,0.13199672648597263
-0.05216285319120947,-0.05216285319120947
0.039916936647386776,0.039916936647386776
0.039916936647386776,0.039916936647386776
0.13199672648597263,0.13199672648597263
-0.05216285319120947,-0.05216285319120947
0.22407651632457018,0.22407651632457018
0.5923956756789344,0.5923956756789344
1.5131935740648474,1.5131935740648474
2.710230841966574,2.710230841966574
5.472624537124253,5.472624537124253
5.840943696478667,5.840943696478667
4.183507479383989,4.183507479383989
0.13199672648597263,0.13199672648597263
-1.3412799109314868,-1.3412799109314868
-1.5254394906086701,-1.5254394906086701
-1.1571203312543046,-1.1571203312543046
-1.0650405414157071,-1.0650405414157071
-1.1571203312543046,-1.1571203312543046
-1.0650405414157071,-1.0650405414157071
-1.1571203312543046,-1.1571203312543046
-0.880880961738525,-0.880880961738525
-1.0650405414157071,-1.0650405414157071
-0.880880961738525,-0.880880961738525
-0.880880961738525,-0.880880961738525
-0.880880961738525,-0.880880961738525
-0.7888011718999391,-0.7888011718999391
-0.6967213820613429,-0.6967213820613429
-0.6967213820613429,-0.6967213820613429
-0.604641592222757,-0.604641592222757
-0.880880961738525,-0.880880961738525
-0.6967213820613429,-0.6967213820613429
-0.880880961738525,-0.880880961738525
-0.880880961738525,-0.880880961738525
-1.0650405414157071,-1.0650405414157071
-0.880880961738525,-0.880880961738525
-1.1571203312543046,-1.1571203312543046
-1.0650405414157071,-1.0650405414157071
-1.2492001210928905,-1.2492001210928905
-1.1571203312543046,-1.1571203312543046
-1.2492001210928905,-1.2492001210928905
-0.9729607515771226,-0.9729607515771226
-0.880880961738525,-0.880880961738525
-0.6967213820613429,-0.6967213820613429
-0.880880961738525,-0.880880961738525
-0.6967213820613429,-0.6967213820613429
-0.604641592222757,-0.604641592222757
-0.6967213820613429,-0.6967213820613429
-0.5125618023841608,-0.5125618023841608
-0.32840222270697744,-0.32840222270697744
-0.05216285319120947,-0.05216285319120947
-0.14424264302979534,-0.14424264302979534
0.13199672648597263,0.13199672648597263
-0.14424264302979534,-0.14424264302979534
0.039916936647386776,0.039916936647386776
0.039916936647386776,0.039916936647386776
0.22407651632457018,0.22407651632457018
0.13199672648597263,0.13199672648597263
0.22407651632457018,0.22407651632457018
0.039916936647386776,0.039916936647386776
-0.23632243286839286,-0.23632243286839286
-0.23632243286839286,-0.23632243286839286
-0.05216285319120947,-0.05216285319120947
-0.05216285319120947,-0.05216285319120947
0.039916936647386776,0.039916936647386776
0.13199672648597263,0.13199672648597263
0.039916936647386776,0.039916936647386776
0.13199672648597263,0.13199672648597263
-0.05216285319120947,-0.05216285319120947
0.039916936647386776,0.039916936647386776
-0.05216285319120947,-0.05216285319120947
-0.05216285319120947,-0.05216285319120947
-0.23632243286839286,-0.23632243286839286
-0.14424264302979534,-0.14424264302979534
-0.23632243286839286,-0.23632243286839286
-0.05216285319120947,-0.05216285319120947
-0.14424264302979534,-0.14424264302979534
-0.23632243286839286,-0.23632243286839286
-0.32840222270697744,-0.32840222270697744
-0.05216285319120947,-0.05216285319120947
-0.05216285319120947,-0.05216285319120947
-0.05216285319120947,-0.05216285319120947
-0.23632243286839286,-0.23632243286839286
-0.05216285319120947,-0.05216285319120947
-0.32840222270697744,-0.32840222270697744
-0.05216285319120947,-0.05216285319120947
-0.23632243286839286,-0.23632243286839286
0.039916936647386776,0.039916936647386776
0.039916936647386776,0.039916936647386776
0.22407651632457018,0.22407651632457018
0.039916936647386776,0.039916936647386776
0.039916936647386776,0.039916936647386776
-0.05216285319120947,-0.05216285319120947
-0.05216285319120947,-0.05216285319120947
-0.05216285319120947,-0.05216285319120947
-0.23632243286839286,-0.23632243286839286
0.039916936647386776,0.039916936647386776
-0.05216285319120947,-0.05216285319120947
0.039916936647386776,0.039916936647386776
-0.23632243286839286,-0.23632243286839286
0.13199672648597263,0.13199672648597263
0.5923956756789344,0.5923956756789344
1.2369542045490678,1.2369542045490678
2.894390421643722,2.894390421643722
5.840943696478667,5.840943696478667
5.93302348631724,5.93302348631724
3.999347899706841,3.999347899706841
-0.05216285319120947,-0.05216285319120947
-1.3412799109314868,-1.3412799109314868
-1.5254394906086701,-1.5254394906086701
-0.880880961738525,-0.880880961738525
-0.7888011718999391,-0.7888011718999391
-0.604641592222757,-0.604641592222757
-0.604641592222757,-0.604641592222757
-0.604641592222757,-0.604641592222757
-0.7888011718999391,-0.7888011718999391
-0.6967213820613429,-0.6967213820613429
-0.880880961738525,-0.880880961738525
-0.880880961738525,-0.880880961738525
-0.7888011718999391,-0.7888011718999391
-0.880880961738525,-0.880880961738525
-0.880880961738525,-0.880880961738525
-0.6967213820613429,-0.6967213820613429
-0.880880961738525,-0.880880961738525
-0.880880961738525,-0.880880961738525
-0.880880961738525,-0.880880961738525
-0.9729607515771226,-0.9729607515771226
-1.0650405414157071,-1.0650405414157071
-1.2492001210928905,-1.2492001210928905
-1.2492001210928905,-1.2492001210928905
-1.3412799109314868,-1.3412799109314868
-1.2492001210928905,-1.2492001210928905
-1.5254394906086701,-1.5254394906086701
-1.5254394906086701,-1.5254394906086701
-1.2492001210928905,-1.2492001210928905
-0.880880961738525,-0.880880961738525
-0.7888011718999391,-0.7888011718999391
-0.604641592222757,-0.604641592222757
-0.6967213820613429,-0.6967213820613429
-0.420482012545575,-0.420482012545575
-0.32840222270697744,-0.32840222270697744
-0.05216285319120947,-0.05216285319120947
-0.05216285319120947,-0.05216285319120947
-0.05216285319120947,-0.05216285319120947
0.3161563061631547,0.3161563061631547
0.40823609600175226,0.40823609600175226
0.3161563061631547,0.3161563061631547
0.22407651632457018,0.22407651632457018
0.3161563061631547,0.3161563061631547
0.22407651632457018,0.22407651632457018
0.039916936647386776,0.039916936647386776
-0.05216285319120947,-0.05216285319120947
0.039916936647386776,0.039916936647386776
-0.23632243286839286,-0.23632243286839286
0.039916936647386776,0.039916936647386776
-0.05216285319120947,-0.05216285319120947
-0.05216285319120947,-0.05216285319120947
-0.05216285319120947,-0.05216285319120947
0.039916936647386776,0.039916936647386776
-0.05216285319120947,-0.05216285319120947
0.039916936647386776,0.039916936647386776
-0.05216285319120947,-0.05216285319120947
0.039916936647386776,0.039916936647386776
-0.23632243286839286,-0.23632243286839286
0.039916936647386776,0.039916936647386776
-0.05216285319120947,-0.05216285319120947
0.13199672648597263,0.13199672648597263
0.039916936647386776,0.039916936647386776
0.22407651632457018,0.22407651632457018
0.039916936647386776,0.039916936647386776
0.039916936647386776,0.039916936647386776
0.13199672648597263,0.13199672648597263
-0.05216285319120947,-0.05216285319120947
0.039916936647386776,0.039916936647386776
-0.05216285319120947,-0.05216285319120947
0.039916936647386776,0.039916936647386776
-0.05216285319120947,-0.05216285319120947
0.039916936647386776,0.039916936647386776
-0.05216285319120947,-0.05216285319120947
-0.05216285319120947,-0.05216285319120947
0.039916936647386776,0.039916936647386776
0.3161563061631547,0.3161563061631547
0.039916936647386776,0.039916936647386776
0.3161563061631547,0.3161563061631547
0.22407651632457018,0.22407651632457018
0.40823609600175226,0.40823609600175226
0.22407651632457018,0.22407651632457018
0.5003158858403381,0.5003158858403381
0.22407651632457018,0.22407651632457018
0.22407651632457018,0.22407651632457018
0.22407651632457018,0.22407651632457018
0.22407651632457018,0.22407651632457018
0.039916936647386776,0.039916936647386776
0.22407651632457018,0.22407651632457018
-0.05216285319120947,-0.05216285319120947
-0.05216285319120947,-0.05216285319120947
-0.05216285319120947,-0.05216285319120947
-0.14424264302979534,-0.14424264302979534
-0.05216285319120947,-0.05216285319120947
-0.14424264302979534,-0.14424264302979534
-0.05216285319120947,-0.05216285319120947
-0.14424264302979534,-0.14424264302979534
0.039916936647386776,0.039916936647386776
-0.05216285319120947,-0.05216285319120947
0.13199672648597263,0.13199672648597263
0.039916936647386776,0.039916936647386776
0.22407651632457018,0.22407651632457018
-0.05216285319120947,-0.05216285319120947
0.22407651632457018,0.22407651632457018
0.13199672648597263,0.13199672648597263
0.40823609600175226,0.40823609600175226
0.22407651632457018,0.22407651632457018
0.3161563061631547,0.3161563061631547
0.22407651632457018,0.22407651632457018
0.13199672648597263,0.13199672648597263
-0.05216285319120947,-0.05216285319120947
0.039916936647386776,0.039916936647386776
-0.14424264302979534,-0.14424264302979534
-0.05216285319120947,-0.05216285319120947
-0.14424264302979534,-0.14424264302979534
-0.05216285319120947,-0.05216285319120947
-0.32840222270697744,-0.32840222270697744
-0.14424264302979534,-0.14424264302979534
-0.14424264302979534,-0.14424264302979534
-0.05216285319120947,-0.05216285319120947
0.039916936647386776,0.039916936647386776
-0.05216285319120947,-0.05216285319120947
0.22407651632457018,0.22407651632457018
0.039916936647386776,0.039916936647386776
-0.05216285319120947,-0.05216285319120947
0.039916936647386776,0.039916936647386776
0.13199672648597263,0.13199672648597263
0.22407651632457018,0.22407651632457018
0.5923956756789344,0.5923956756789344
1.3290339943876655,1.3290339943876655
2.249831892773577,2.249831892773577
4.367667059061135,4.367667059061135
6.301342645671534,6.301342645671534
5.288464957447108,5.288464957447108
2.5260712622893116,2.5260712622893116
-0.9729607515771226,-0.9729607515771226
-1.5254394906086701,-1.5254394906086701
-1.3412799109314868,-1.3412799109314868
-1.0650405414157071,-1.0650405414157071
-1.0650405414157071,-1.0650405414157071
-0.880880961738525,-0.880880961738525
-0.9729607515771226,-0.9729607515771226
-0.880880961738525,-0.880880961738525
-0.880880961738525,-0.880880961738525
-0.880880961738525,-0.880880961738525
-0.6967213820613429,-0.6967213820613429
-0.6967213820613429,-0.6967213820613429
-0.6967213820613429,-0.6967213820613429
-0.880880961738525,-0.880880961738525
-0.604641592222757,-0.604641592222757
-0.6967213820613429,-0.6967213820613429
-0.604641592222757,-0.604641592222757
-0.6967213820613429,-0.6967213820613429
-0.604641592222757,-0.604641592222757
-0.880880961738525,-0.880880961738525
-0.604641592222757,-0.604641592222757
-0.7888011718999391,-0.7888011718999391
-0.6967213820613429,-0.6967213820613429
-0.880880961738525,-0.880880961738525
-0.880880961738525,-0.880880961738525
-0.9729607515771226,-0.9729607515771226
-1.0650405414157071,-1.0650405414157071
-0.9729607515771226,-0.9729607515771226
-0.880880961738525,-0.880880961738525
-0.880880961738525,-0.880880961738525
-0.7888011718999391,-0.7888011718999391
-0.6967213820613429,-0.6967213820613429
-0.604641592222757,-0.604641592222757
-0.420482012545575,-0.420482012545575
-0.5125618023841608,-0.5125618023841608
-0.23632243286839286,-0.23632243286839286
-0.05216285319120947,-0.05216285319120947
-0.05216285319120947,-0.05216285319120947
0.039916936647386776,0.039916936647386776
0.13199672648597263,0.13199672648597263
0.039916936647386776,0.039916936647386776
0.22407651632457018,0.22407651632457018
0.039916936647386776,0.039916936647386776
0.22407651632457018,0.22407651632457018
0.039916936647386776,0.039916936647386776
0.039916936647386776,0.039916936647386776
-0.05216285319120947,-0.05216285319120947
-0.05216285319120947,-0.05216285319120947
-0.05216285319120947,-0.05216285319120947
-0.14424264302979534,-0.14424264302979534
-0.23632243286839286,-0.23632243286839286
-0.05216285319120947,-0.05216285319120947
-0.23632243286839286,-0.23632243286839286
-0.05216285319120947,-0.05216285319120947
-0.05216285319120947,-0.05216285319120947
0.039916936647386776,0.039916936647386776
-0.05216285319120947,-0.05216285319120947
-0.05216285319120947,-0.05216285319120947
0.039916936647386776,0.039916936647386776
-0.14424264302979534,-0.14424264302979534
-0.23632243286839286,-0.23632243286839286
-0.05216285319120947,-0.05216285319120947
-0.05216285319120947,-0.05216285319120947
-0.05216285319120947,-0.05216285319120947
0.039916936647386776,0.039916936647386776
-0.05216285319120947,-0.05216285319120947
0.13199672648597263,0.13199672648597263
-0.05216285319120947,-0.05216285319120947
0.22407651632457018,0.22407651632457018
-0.23632243286839286,-0.23632243286839286
-0.05216285319120947,-0.05216285319120947
-0.32840222270697744,-0.32840222270697744
-0.23632243286839286,-0.23632243286839286
-0.32840222270697744,-0.32840222270697744
-0.32840222270697744,-0.32840222270697744
-0.32840222270697744,-0.32840222270697744
-0.14424264302979534,-0.14424264302979534
-0.23632243286839286,-0.23632243286839286
-0.05216285319120947,-0.05216285319120947
-0.05216285319120947,-0.05216285319120947
-0.14424264302979534,-0.14424264302979534
0.039916936647386776,0.039916936647386776
-0.05216285319120947,-0.05216285319120947
-0.05216285319120947,-0.05216285319120947
-0.05216285319120947,-0.05216285319120947
-0.14424264302979534,-0.14424264302979534
-0.23632243286839286,-0.23632243286839286
0.039916936647386776,0.039916936647386776
0.8686350451947024,0.8686350451947024
1.5131935740648474,1.5131935740648474
3.723108530191003,3.723108530191003
5.748863906640092,5.748863906640092
5.104305377769842,5.104305377769842
2.5260712622893116,2.5260712622893116
-1.0650405414157071,-1.0650405414157071
-1.6175192804472547,-1.6175192804472547
-1.3412799109314868,-1.3412799109314868
-1.1571203312543046,-1.1571203312543046
-1.1571203312543046,-1.1571203312543046
-0.880880961738525,-0.880880961738525
-1.0650405414157071,-1.0650405414157071
-0.7888011718999391,-0.7888011718999391
-0.880880961738525,-0.880880961738525
-0.880880961738525,-0.880880961738525
-0.880880961738525,-0.880880961738525
-0.6967213820613429,-0.6967213820613429
-0.6967213820613429,-0.6967213820613429
-0.880880961738525,-0.880880961738525
-0.604641592222757,-0.604641592222757
-0.7888011718999391,-0.7888011718999391
-0.6967213820613429,-0.6967213820613429
-0.7888011718999391,-0.7888011718999391
-0.6967213820613429,-0.6967213820613429
-0.880880961738525,-0.880880961738525
-0.880880961738525,-0.880880961738525
-1.0650405414157071,-1.0650405414157071
-1.1571203312543046,-1.1571203312543046
-1.2492001210928905,-1.2492001210928905
-1.1571203312543046,-1.1571203312543046
-1.2492001210928905,-1.2492001210928905
-1.0650405414157071,-1.0650405414157071
-1.0650405414157071,-1.0650405414157071
-0.880880961738525,-0.880880961738525
-0.9729607515771226,-0.9729607515771226
-0.6967213820613429,-0.6967213820613429
-0.604641592222757,-0.604641592222757
-0.604641592222757,-0.604641592222757
-0.420482012545575,-0.420482012545575
-0.05216285319120947,-0.05216285319120947
0.039916936647386776,0.039916936647386776
0.22407651632457018,0.22407651632457018
0.22407651632457018,0.22407651632457018
0.13199672648597263,0.13199672648597263
0.22407651632457018,0.22407651632457018
0.13199672648597263,0.13199672648597263
-0.05216285319120947,-0.05216285319120947
-0.14424264302979534,-0.14424264302979534
0.039916936647386776,0.039916936647386776
-0.05216285319120947,-0.05216285319120947
0.039916936647386776,0.039916936647386776
-0.05216285319120947,-0.05216285319120947
0.039916936647386776,0.039916936647386776
-0.32840222270697744,-0.32840222270697744
-0.05216285319120947,-0.05216285319120947
-0.05216285319120947,-0.05216285319120947
0.039916936647386776,0.039916936647386776
-0.05216285319120947,-0.05216285319120947
0.22407651632457018,0.22407651632457018
0.039916936647386776,0.039916936647386776
0.22407651632457018,0.22407651632457018
0.22407651632457018,0.22407651632457018
0.3161563061631547,0.3161563061631547
0.22407651632457018,0.22407651632457018
0.40823609600175226,0.40823609600175226
0.3161563061631547,0.3161563061631547
0.40823609600175226,0.40823609600175226
0.40823609600175226,0.40823609600175226
0.22407651632457018,0.22407651632457018
0.039916936647386776,0.039916936647386776
-0.05216285319120947,-0.05216285319120947
0.039916936647386776,0.039916936647386776
-0.14424264302979534,-0.14424264302979534
-0.05216285319120947,-0.05216285319120947
-0.32840222270697744,-0.32840222270697744
-0.23632243286839286,-0.23632243286839286
-0.420482012545575,-0.420482012545575
-0.14424264302979534,-0.14424264302979534
-0.420482012545575,-0.420482012545575
-0.23632243286839286,-0.23632243286839286
-0.32840222270697744,-0.32840222270697744
-0.05216285319120947,-0.05216285319120947
-0.14424264302979534,-0.14424264302979534
-0.05216285319120947,-0.05216285319120947
-0.05216285319120947,-0.05216285319120947
0.039916936647386776,0.039916936647386776
-0.05216285319120947,-0.05216285319120947
0.13199672648597263,0.13199672648597263
0.039916936647386776,0.039916936647386776
0.13199672648597263,0.13199672648597263
0.039916936647386776,0.039916936647386776
0.039916936647386776,0.039916936647386776
-0.05216285319120947,-0.05216285319120947
0.039916936647386776,0.039916936647386776
-0.14424264302979534,-0.14424264302979534
-0.23632243286839286,-0.23632243286839286
0.039916936647386776,0.039916936647386776
0.7765552553561178,0.7765552553561178
1.42111378422625,1.42111378422625
3.5389489505138543,3.5389489505138543
5.93302348631724,5.93302348631724
5.472624537124253,5.472624537124253
3.1706297911594437,3.1706297911594437
-0.604641592222757,-0.604641592222757
-1.3412799109314868,-1.3412799109314868
-1.0650405414157071,-1.0650405414157071
-0.6967213820613429,-0.6967213820613429
-0.880880961738525,-0.880880961738525
-0.604641592222757,-0.604641592222757
-0.604641592222757,-0.604641592222757
-0.604641592222757,-0.604641592222757
-0.7888011718999391,-0.7888011718999391
-0.6967213820613429,-0.6967213820613429
-0.880880961738525,-0.880880961738525
-0.6967213820613429,-0.6967213820613429
-0.604641592222757,-0.604641592222757
-0.5125618023841608,-0.5125618023841608
-0.6967213820613429,-0.6967213820613429
-0.604641592222757,-0.604641592222757
-0.6967213820613429,-0.6967213820613429
-0.7888011718999391,-0.7888011718999391
-0.6967213820613429,-0.6967213820613429
-0.880880961738525,-0.880880961738525
-0.7888011718999391,-0.7888011718999391
-0.880880961738525,-0.880880961738525
-0.7888011718999391,-0.7888011718999391
-0.880880961738525,-0.880880961738525
-0.6967213820613429,-0.6967213820613429
-0.880880961738525,-0.880880961738525
-0.6967213820613429,-0.6967213820613429
-0.7888011718999391,-0.7888011718999391
-0.604641592222757,-0.604641592222757
-0.604641592222757,-0.604641592222757
-0.604641592222757,-0.604641592222757
-0.5125618023841608,-0.5125618023841608
-0.23632243286839286,-0.23632243286839286
-0.32840222270697744,-0.32840222270697744
-0.23632243286839286,-0.23632243286839286
-0.23632243286839286,-0.23632243286839286
-0.23632243286839286,-0.23632243286839286
-0.14424264302979534,-0.14424264302979534
-0.05216285319120947,-0.05216285319120947
-0.32840222270697744,-0.32840222270697744
-0.05216285319120947,-0.05216285319120947
-0.23632243286839286,-0.23632243286839286
-0.05216285319120947,-0.05216285319120947
0.039916936647386776,0.039916936647386776
-0.14424264302979534,-0.14424264302979534
0.039916936647386776,0.039916936647386776
-0.05216285319120947,-0.05216285319120947
0.13199672648597263,0.13199672648597263
0.039916936647386776,0.039916936647386776
