ECG,PPG
-0.5036088604435411,-0.5036088604435411
-0.31590624938544726,-0.31590624938544726
-0.0596199919792037,-0.0596199919792037
0.05227964153619843,0.05227964153619843
0.27246924296973163,0.27246924296973163
0.31217556453971307,0.31217556453971307
0.3843688764851338,0.3843688764851338
0.31217556453971307,0.31217556453971307
0.3482722205124234,0.3482722205124234
0.2363725869970213,0.2363725869970213
0.016182985563488062,0.016182985563488062
-0.2076162814673162,-0.2076162814673162
-0.24371293744002656,-0.24371293744002656
-0.2076162814673162,-0.2076162814673162
0.05227964153619843,0.05227964153619843
0.7561644330040506,0.7561644330040506
1.088253667952986,1.088253667952986
1.2723466134138086,1.2723466134138086
1.5683391923900336,1.5683391923900336
2.2686143182606147,2.2686143182606147
2.4166106077487273,2.4166106077487273
1.8246254497962773,1.8246254497962773
0.8644544009221816,0.8644544009221816
0.6803614554613587,0.6803614554613587
0.5323651659732462,0.5323651659732462
0.5684618219459566,0.5684618219459566
0.4204655324578441,0.4204655324578441
-0.0199136704092223,-0.0199136704092223
-0.8356980953924765,-0.8356980953924765
-1.0197910408532993,-1.0197910408532993
-1.0558876968260098,-1.0558876968260098
-1.0558876968260098,-1.0558876968260098
-1.0197910408532993,-1.0197910408532993
-1.09198435279872,-1.09198435279872
-1.0558876968260098,-1.0558876968260098
-1.0558876968260098,-1.0558876968260098
-1.09198435279872,-1.09198435279872
-1.0558876968260098,-1.0558876968260098
-1.2038839863141222,-1.2038839863141222
-1.276077298259543,-1.276077298259543
-1.2399806422868327,-1.2399806422868327
-1.387976931774945,-1.387976931774945
-1.2399806422868327,-1.2399806422868327
-1.0197910408532993,-1.0197910408532993
-1.0558876968260098,-1.0558876968260098
-0.9078914073378973,-0.9078914073378973
-0.5397055164162515,-0.5397055164162515
-0.2076162814673162,-0.2076162814673162
-0.0596199919792037,-0.0596199919792037
-0.0199136704092223,-0.0199136704092223
-0.0596199919792037,-0.0596199919792037
-0.0596199919792037,-0.0596199919792037
0.016182985563488062,0.016182985563488062
-0.0199136704092223,-0.0199136704092223
-0.0199136704092223,-0.0199136704092223
-0.13181330392462443,-0.13181330392462443
-0.1679099598973348,-0.1679099598973348
-0.2076162814673162,-0.2076162814673162
-0.2076162814673162,-0.2076162814673162
-0.1679099598973348,-0.1679099598973348
-0.13181330392462443,-0.13181330392462443
-0.0199136704092223,-0.0199136704092223
-0.13181330392462443,-0.13181330392462443
0.016182985563488062,0.016182985563488062
0.3843688764851338,0.3843688764851338
1.3084432693865191,1.3084432693865191
1.5683391923900336,1.5683391923900336
2.0484247168270815,2.0484247168270815
2.5285102412641294,2.5285102412641294
3.0085957657011773,3.0085957657011773
3.084398743243869,3.084398743243869
2.2686143182606147,2.2686143182606147
1.384246246929211,1.384246246929211
1.3084432693865191,1.3084432693865191
1.196543635871117,1.196543635871117
0.9041607224921631,0.9041607224921631
0.9402573784648733,0.9402573784648733
0.5323651659732462,0.5323651659732462
-0.31590624938544726,-0.31590624938544726
-0.5397055164162515,-0.5397055164162515
-0.39170922692813903,-0.39170922692813903
-0.46390253887355976,-0.46390253887355976
-0.5758021723889619,-0.5758021723889619
-0.6479954843343826,-0.6479954843343826
-0.8717947513651869,-0.8717947513651869
-1.0197910408532993,-1.0197910408532993
-1.276077298259543,-1.276077298259543
-1.2399806422868327,-1.2399806422868327
-1.4240735877476554,-1.4240735877476554
-1.4998765652903472,-1.4998765652903472
-1.6117761988057493,-1.6117761988057493
-1.4998765652903472,-1.4998765652903472
-1.463779909317637,-1.463779909317637
-1.387976931774945,-1.387976931774945
-1.276077298259543,-1.276077298259543
-0.983694384880589,-0.983694384880589
-0.5758021723889619,-0.5758021723889619
-0.46390253887355976,-0.46390253887355976
-0.31590624938544726,-0.31590624938544726
-0.1679099598973348,-0.1679099598973348
-0.09571664795191406,-0.09571664795191406
-0.2076162814673162,-0.2076162814673162
0.12808261907889018,0.12808261907889018
0.16417927505160054,0.16417927505160054
-0.0199136704092223,-0.0199136704092223
0.016182985563488062,0.016182985563488062
-0.0596199919792037,-0.0596199919792037
-0.0199136704092223,-0.0199136704092223
0.016182985563488062,0.016182985563488062
0.05227964153619843,0.05227964153619843
0.0883762975089088,0.0883762975089088
0.016182985563488062,0.016182985563488062
-0.0199136704092223,-0.0199136704092223
0.0883762975089088,0.0883762975089088
0.4601718540278255,0.4601718540278255
1.1243503239256962,1.1243503239256962
1.4564395588746315,1.4564395588746315
1.8643317713662586,1.8643317713662586
2.2686143182606147,2.2686143182606147
2.824502820240354,2.824502820240354
2.9724991097284668,2.9724991097284668
2.196421006315194,2.196421006315194
1.384246246929211,1.384246246929211
1.2723466134138086,1.2723466134138086
1.0485473463830044,1.0485473463830044
1.1604469798984065,1.1604469798984065
1.0485473463830044,1.0485473463830044
0.4962685100005359,0.4962685100005359
-0.2798095934127369,-0.2798095934127369
-0.5036088604435411,-0.5036088604435411
-0.5758021723889619,-0.5758021723889619
-0.6479954843343826,-0.6479954843343826
-0.6118988283616723,-0.6118988283616723
-0.687701805904364,-0.687701805904364
-0.8717947513651869,-0.8717947513651869
-0.9078914073378973,-0.9078914073378973
-1.0558876968260098,-1.0558876968260098
-1.09198435279872,-1.09198435279872
-1.3518802758022348,-1.3518802758022348
-1.463779909317637,-1.463779909317637
-1.5359732212630577,-1.5359732212630577
-1.572069877235768,-1.572069877235768
-1.7200661667238804,-1.7200661667238804
-1.7200661667238804,-1.7200661667238804
-1.4998765652903472,-1.4998765652903472
-1.2399806422868327,-1.2399806422868327
-0.983694384880589,-0.983694384880589
-0.7237984618770744,-0.7237984618770744
-0.4278058829008494,-0.4278058829008494
-0.31590624938544726,-0.31590624938544726
-0.2076162814673162,-0.2076162814673162
-0.2798095934127369,-0.2798095934127369
-0.24371293744002656,-0.24371293744002656
-0.31590624938544726,-0.31590624938544726
-0.2798095934127369,-0.2798095934127369
-0.3556125709554287,-0.3556125709554287
-0.39170922692813903,-0.39170922692813903
-0.39170922692813903,-0.39170922692813903
-0.39170922692813903,-0.39170922692813903
-0.39170922692813903,-0.39170922692813903
-0.3556125709554287,-0.3556125709554287
-0.39170922692813903,-0.39170922692813903
-0.39170922692813903,-0.39170922692813903
0.016182985563488062,0.016182985563488062
0.8644544009221816,0.8644544009221816
1.3084432693865191,1.3084432693865191
1.7524321378508565,1.7524321378508565
2.084521372799792,2.084521372799792
2.5285102412641294,2.5285102412641294
2.7486998426976625,2.7486998426976625
2.012328060854371,2.012328060854371
1.088253667952986,1.088253667952986
0.7922610889767608,0.7922610889767608
0.5323651659732462,0.5323651659732462
0.5684618219459566,0.5684618219459566
0.5323651659732462,0.5323651659732462
0.16417927505160054,0.16417927505160054
-0.46390253887355976,-0.46390253887355976
-0.983694384880589,-0.983694384880589
-1.09198435279872,-1.09198435279872
-1.167787330341412,-1.167787330341412
-1.0197910408532993,-1.0197910408532993
-0.8717947513651869,-0.8717947513651869
-0.5397055164162515,-0.5397055164162515
-0.46390253887355976,-0.46390253887355976
-0.4278058829008494,-0.4278058829008494
-0.6479954843343826,-0.6479954843343826
-0.8356980953924765,-0.8356980953924765
-0.983694384880589,-0.983694384880589
-1.09198435279872,-1.09198435279872
-1.167787330341412,-1.167787330341412
-1.2038839863141222,-1.2038839863141222
-1.1316906743687014,-1.1316906743687014
-1.0558876968260098,-1.0558876968260098
-0.9439880633106076,-0.9439880633106076
-0.7598951178497848,-0.7598951178497848
-0.6479954843343826,-0.6479954843343826
-0.5758021723889619,-0.5758021723889619
-0.39170922692813903,-0.39170922692813903
-0.3556125709554287,-0.3556125709554287
-0.2798095934127369,-0.2798095934127369
-0.3556125709554287,-0.3556125709554287
-0.2076162814673162,-0.2076162814673162
-0.2076162814673162,-0.2076162814673162
-0.0199136704092223,-0.0199136704092223
0.016182985563488062,0.016182985563488062
-0.0199136704092223,-0.0199136704092223
-0.0199136704092223,-0.0199136704092223
0.16417927505160054,0.16417927505160054
0.2002759310243109,0.2002759310243109
0.16417927505160054,0.16417927505160054
0.2363725869970213,0.2363725869970213
0.27246924296973163,0.27246924296973163
0.6081681435159381,0.6081681435159381
1.2723466134138086,1.2723466134138086
1.5322425364173233,1.5322425364173233
1.8246254497962773,1.8246254497962773
2.196421006315194,2.196421006315194
2.56460689723684,2.56460689723684
2.6404098747795315,2.6404098747795315
1.6405325043354544,1.6405325043354544
0.7922610889767608,0.7922610889767608
0.6803614554613587,0.6803614554613587
0.6803614554613587,0.6803614554613587
0.7164581114340691,0.7164581114340691
0.6803614554613587,0.6803614554613587
0.2363725869970213,0.2363725869970213
-0.31590624938544726,-0.31590624938544726
-0.687701805904364,-0.687701805904364
-0.7237984618770744,-0.7237984618770744
-0.7237984618770744,-0.7237984618770744
-0.687701805904364,-0.687701805904364
-0.5758021723889619,-0.5758021723889619
-0.5397055164162515,-0.5397055164162515
-0.7598951178497848,-0.7598951178497848
-0.9439880633106076,-0.9439880633106076
-1.276077298259543,-1.276077298259543
-1.387976931774945,-1.387976931774945
-1.4240735877476554,-1.4240735877476554
-1.3518802758022348,-1.3518802758022348
-1.276077298259543,-1.276077298259543
-1.3518802758022348,-1.3518802758022348
-1.2399806422868327,-1.2399806422868327
-1.0558876968260098,-1.0558876968260098
-0.7959917738224951,-0.7959917738224951
-0.5397055164162515,-0.5397055164162515
-0.31590624938544726,-0.31590624938544726
-0.2076162814673162,-0.2076162814673162
-0.0199136704092223,-0.0199136704092223
0.05227964153619843,0.05227964153619843
0.16417927505160054,0.16417927505160054
0.0883762975089088,0.0883762975089088
0.0883762975089088,0.0883762975089088
-0.0596199919792037,-0.0596199919792037
-0.0596199919792037,-0.0596199919792037
-0.2076162814673162,-0.2076162814673162
-0.2076162814673162,-0.2076162814673162
-0.1679099598973348,-0.1679099598973348
-0.0596199919792037,-0.0596199919792037
-0.13181330392462443,-0.13181330392462443
-0.0596199919792037,-0.0596199919792037
-0.0199136704092223,-0.0199136704092223
0.05227964153619843,0.05227964153619843
0.3843688764851338,0.3843688764851338
1.1604469798984065,1.1604469798984065
1.680238825905436,1.680238825905436
1.8643317713662586,1.8643317713662586
2.3805139517760168,2.3805139517760168
2.676506530752242,2.676506530752242
2.896696132185775,2.896696132185775
2.196421006315194,2.196421006315194
1.3445399253592294,1.3445399253592294
0.9402573784648733,0.9402573784648733
0.6081681435159381,0.6081681435159381
0.4601718540278255,0.4601718540278255
0.6081681435159381,0.6081681435159381
0.6442647994886483,0.6442647994886483
-0.13181330392462443,-0.13181330392462443
-0.5758021723889619,-0.5758021723889619
-0.6479954843343826,-0.6479954843343826
-0.7598951178497848,-0.7598951178497848
-0.7237984618770744,-0.7237984618770744
-0.6118988283616723,-0.6118988283616723
-0.5758021723889619,-0.5758021723889619
-0.7237984618770744,-0.7237984618770744
-0.9078914073378973,-0.9078914073378973
-1.167787330341412,-1.167787330341412
-1.3518802758022348,-1.3518802758022348
-1.3157836198295243,-1.3157836198295243
-1.4240735877476554,-1.4240735877476554
-1.387976931774945,-1.387976931774945
-1.3518802758022348,-1.3518802758022348
-1.2399806422868327,-1.2399806422868327
-1.1316906743687014,-1.1316906743687014
-0.8717947513651869,-0.8717947513651869
-0.6479954843343826,-0.6479954843343826
-0.4278058829008494,-0.4278058829008494
-0.24371293744002656,-0.24371293744002656
0.05227964153619843,0.05227964153619843
0.0883762975089088,0.0883762975089088
-0.0199136704092223,-0.0199136704092223
-0.2798095934127369,-0.2798095934127369
-0.39170922692813903,-0.39170922692813903
-0.3556125709554287,-0.3556125709554287
-0.2076162814673162,-0.2076162814673162
-0.1679099598973348,-0.1679099598973348
-0.0596199919792037,-0.0596199919792037
-0.0199136704092223,-0.0199136704092223
-0.0596199919792037,-0.0596199919792037
0.05227964153619843,0.05227964153619843
0.016182985563488062,0.016182985563488062
0.9041607224921631,0.9041607224921631
2.120618028772502,2.120618028772502
3.304588344677402,3.304588344677402
4.264759393551499,4.264759393551499
5.7808189444053335,5.7808189444053335
4.856744551503948,4.856744551503948
1.8643317713662586,1.8643317713662586
0.2002759310243109,0.2002759310243109
-0.983694384880589,-0.983694384880589
-1.1316906743687014,-1.1316906743687014
-1.2399806422868327,-1.2399806422868327
-1.3157836198295243,-1.3157836198295243
-1.2399806422868327,-1.2399806422868327
-1.2038839863141222,-1.2038839863141222
-0.983694384880589,-0.983694384880589
-0.9078914073378973,-0.9078914073378973
-0.7598951178497848,-0.7598951178497848
-0.8356980953924765,-0.8356980953924765
-0.7959917738224951,-0.7959917738224951
-0.9078914073378973,-0.9078914073378973
-1.0558876968260098,-1.0558876968260098
-1.167787330341412,-1.167787330341412
-1.276077298259543,-1.276077298259543
-1.572069877235768,-1.572069877235768
-1.8319658002392825,-1.8319658002392825
-1.868062456211993,-1.868062456211993
-1.9438654337546848,-1.9438654337546848
-1.8319658002392825,-1.8319658002392825
-1.868062456211993,-1.868062456211993
-1.5359732212630577,-1.5359732212630577
-1.3518802758022348,-1.3518802758022348
-1.0558876968260098,-1.0558876968260098
-0.9078914073378973,-0.9078914073378973
-0.6118988283616723,-0.6118988283616723
-0.5397055164162515,-0.5397055164162515
-0.46390253887355976,-0.46390253887355976
-0.5036088604435411,-0.5036088604435411
-0.39170922692813903,-0.39170922692813903
-0.2798095934127369,-0.2798095934127369
-0.0596199919792037,-0.0596199919792037
-0.0199136704092223,-0.0199136704092223
0.05227964153619843,0.05227964153619843
-0.0199136704092223,-0.0199136704092223
0.05227964153619843,0.05227964153619843
-0.0199136704092223,-0.0199136704092223
-0.0596199919792037,-0.0596199919792037
-0.1679099598973348,-0.1679099598973348
-0.1679099598973348,-0.1679099598973348
-0.24371293744002656,-0.24371293744002656
-0.31590624938544726,-0.31590624938544726
-0.39170922692813903,-0.39170922692813903
-0.4278058829008494,-0.4278058829008494
-0.3556125709554287,-0.3556125709554287
-0.39170922692813903,-0.39170922692813903
0.2002759310243109,0.2002759310243109
0.8644544009221816,0.8644544009221816
1.4564395588746315,1.4564395588746315
2.120618028772502,2.120618028772502
2.492413585291419,2.492413585291419
2.824502820240354,2.824502820240354
2.9724991097284668,2.9724991097284668
2.120618028772502,2.120618028772502
1.2362499574410983,1.2362499574410983
0.8644544009221816,0.8644544009221816
0.6442647994886483,0.6442647994886483
0.3482722205124234,0.3482722205124234
0.3843688764851338,0.3843688764851338
0.05227964153619843,0.05227964153619843
-0.6479954843343826,-0.6479954843343826
-1.167787330341412,-1.167787330341412
-1.2399806422868327,-1.2399806422868327
-1.4240735877476554,-1.4240735877476554
-1.572069877235768,-1.572069877235768
-1.7200661667238804,-1.7200661667238804
-1.6478728547784598,-1.6478728547784598
-1.7200661667238804,-1.7200661667238804
-1.7958691442665722,-1.7958691442665722
-1.9077687777819743,-1.9077687777819743
-1.9438654337546848,-1.9438654337546848
-1.7200661667238804,-1.7200661667238804
-1.8319658002392825,-1.8319658002392825
-1.7200661667238804,-1.7200661667238804
-1.759772488293862,-1.759772488293862
-1.4998765652903472,-1.4998765652903472
-1.387976931774945,-1.387976931774945
-1.1316906743687014,-1.1316906743687014
-0.983694384880589,-0.983694384880589
-0.6118988283616723,-0.6118988283616723
-0.5397055164162515,-0.5397055164162515
-0.39170922692813903,-0.39170922692813903
-0.39170922692813903,-0.39170922692813903
-0.2076162814673162,-0.2076162814673162
-0.4278058829008494,-0.4278058829008494
-0.5397055164162515,-0.5397055164162515
-0.5397055164162515,-0.5397055164162515
-0.39170922692813903,-0.39170922692813903
-0.3556125709554287,-0.3556125709554287
-0.4278058829008494,-0.4278058829008494
-0.6118988283616723,-0.6118988283616723
-0.687701805904364,-0.687701805904364
-0.6118988283616723,-0.6118988283616723
-0.09571664795191406,-0.09571664795191406
0.6442647994886483,0.6442647994886483
0.7922610889767608,0.7922610889767608
1.088253667952986,1.088253667952986
1.0124506904102941,1.0124506904102941
1.5683391923900336,1.5683391923900336
1.0124506904102941,1.0124506904102941
0.27246924296973163,0.27246924296973163
-0.13181330392462443,-0.13181330392462443
-0.2076162814673162,-0.2076162814673162
-0.0596199919792037,-0.0596199919792037
0.12808261907889018,0.12808261907889018
0.16417927505160054,0.16417927505160054
-0.3556125709554287,-0.3556125709554287
-0.8356980953924765,-0.8356980953924765
-0.9078914073378973,-0.9078914073378973
-1.0558876968260098,-1.0558876968260098
-0.9078914073378973,-0.9078914073378973
-0.9078914073378973,-0.9078914073378973
-0.8717947513651869,-0.8717947513651869
-0.8356980953924765,-0.8356980953924765
-0.9078914073378973,-0.9078914073378973
-1.09198435279872,-1.09198435279872
-1.2399806422868327,-1.2399806422868327
-1.3518802758022348,-1.3518802758022348
-1.2399806422868327,-1.2399806422868327
-1.2399806422868327,-1.2399806422868327
-1.167787330341412,-1.167787330341412
-1.0558876968260098,-1.0558876968260098
-1.09198435279872,-1.09198435279872
-1.0197910408532993,-1.0197910408532993
-0.9078914073378973,-0.9078914073378973
-0.5758021723889619,-0.5758021723889619
-0.5397055164162515,-0.5397055164162515
-0.4278058829008494,-0.4278058829008494
-0.5036088604435411,-0.5036088604435411
-0.4278058829008494,-0.4278058829008494
-0.6479954843343826,-0.6479954843343826
-0.7237984618770744,-0.7237984618770744
-0.8717947513651869,-0.8717947513651869
-0.8356980953924765,-0.8356980953924765
-0.983694384880589,-0.983694384880589
-0.9078914073378973,-0.9078914073378973
-0.8717947513651869,-0.8717947513651869
-0.7237984618770744,-0.7237984618770744
-0.7598951178497848,-0.7598951178497848
-0.5758021723889619,-0.5758021723889619
-0.5036088604435411,-0.5036088604435411
-0.24371293744002656,-0.24371293744002656
0.3482722205124234,0.3482722205124234
1.2723466134138086,1.2723466134138086
1.788528793823567,1.788528793823567
2.3444172958033067,2.3444172958033067
3.376781656622823,3.376781656622823
4.636554950070415,4.636554950070415
5.040837496964771,5.040837496964771
2.6404098747795315,2.6404098747795315
0.7561644330040506,0.7561644330040506
-0.13181330392462443,-0.13181330392462443
-1.0197910408532993,-1.0197910408532993
-1.3518802758022348,-1.3518802758022348
-1.387976931774945,-1.387976931774945
-1.4998765652903472,-1.4998765652903472
-1.387976931774945,-1.387976931774945
-1.3157836198295243,-1.3157836198295243
-1.09198435279872,-1.09198435279872
-1.09198435279872,-1.09198435279872
-0.983694384880589,-0.983694384880589
-1.276077298259543,-1.276077298259543
-1.3518802758022348,-1.3518802758022348
-1.6478728547784598,-1.6478728547784598
-1.9077687777819743,-1.9077687777819743
-1.868062456211993,-1.868062456211993
-2.4239509581917327,-2.4239509581917327
-2.4961442701371532,-2.4961442701371532
-2.3481479806490406,-2.3481479806490406
-2.164055035188218,-2.164055035188218
-2.387854302219022,-2.387854302219022
-1.9438654337546848,-1.9438654337546848
-1.4998765652903472,-1.4998765652903472
-1.09198435279872,-1.09198435279872
-0.983694384880589,-0.983694384880589
-0.687701805904364,-0.687701805904364
-0.7237984618770744,-0.7237984618770744
-0.24371293744002656,-0.24371293744002656
-0.13181330392462443,-0.13181330392462443
0.016182985563488062,0.016182985563488062
-0.0199136704092223,-0.0199136704092223
0.16417927505160054,0.16417927505160054
0.12808261907889018,0.12808261907889018
0.16417927505160054,0.16417927505160054
-0.0596199919792037,-0.0596199919792037
0.016182985563488062,0.016182985563488062
0.05227964153619843,0.05227964153619843
-0.1679099598973348,-0.1679099598973348
-0.13181330392462443,-0.13181330392462443
-0.31590624938544726,-0.31590624938544726
-0.13181330392462443,-0.13181330392462443
-0.09571664795191406,-0.09571664795191406
-0.13181330392462443,-0.13181330392462443
-0.13181330392462443,-0.13181330392462443
-0.13181330392462443,-0.13181330392462443
-0.1679099598973348,-0.1679099598973348
0.016182985563488062,0.016182985563488062
0.16417927505160054,0.16417927505160054
0.2002759310243109,0.2002759310243109
0.12808261907889018,0.12808261907889018
0.16417927505160054,0.16417927505160054
0.05227964153619843,0.05227964153619843
0.16417927505160054,0.16417927505160054
0.12808261907889018,0.12808261907889018
0.2363725869970213,0.2363725869970213
-0.0199136704092223,-0.0199136704092223
0.0883762975089088,0.0883762975089088
0.12808261907889018,0.12808261907889018
0.27246924296973163,0.27246924296973163
0.31217556453971307,0.31217556453971307
0.16417927505160054,0.16417927505160054
0.05227964153619843,0.05227964153619843
0.31217556453971307,0.31217556453971307
0.5684618219459566,0.5684618219459566
1.2362499574410983,1.2362499574410983
1.8643317713662586,1.8643317713662586
2.2686143182606147,2.2686143182606147
2.7486998426976625,2.7486998426976625
3.084398743243869,3.084398743243869
3.192688711162,3.192688711162
2.6404098747795315,2.6404098747795315
1.8246254497962773,1.8246254497962773
1.196543635871117,1.196543635871117
0.8283577449494712,0.8283577449494712
0.6081681435159381,0.6081681435159381
0.5684618219459566,0.5684618219459566
0.016182985563488062,0.016182985563488062
-0.6479954843343826,-0.6479954843343826
-1.0558876968260098,-1.0558876968260098
-1.0558876968260098,-1.0558876968260098
-1.167787330341412,-1.167787330341412
-1.09198435279872,-1.09198435279872
-1.167787330341412,-1.167787330341412
-1.09198435279872,-1.09198435279872
-1.0558876968260098,-1.0558876968260098
-0.9439880633106076,-0.9439880633106076
-1.09198435279872,-1.09198435279872
-1.0558876968260098,-1.0558876968260098
-1.2399806422868327,-1.2399806422868327
-1.2038839863141222,-1.2038839863141222
-1.276077298259543,-1.276077298259543
-1.2399806422868327,-1.2399806422868327
-1.276077298259543,-1.276077298259543
-1.0558876968260098,-1.0558876968260098
-0.7959917738224951,-0.7959917738224951
-0.687701805904364,-0.687701805904364
-0.4278058829008494,-0.4278058829008494
-0.3556125709554287,-0.3556125709554287
-0.1679099598973348,-0.1679099598973348
-0.2076162814673162,-0.2076162814673162
-0.2076162814673162,-0.2076162814673162
-0.2076162814673162,-0.2076162814673162
-0.0199136704092223,-0.0199136704092223
-0.13181330392462443,-0.13181330392462443
-0.09571664795191406,-0.09571664795191406
-0.24371293744002656,-0.24371293744002656
-0.2798095934127369,-0.2798095934127369
-0.46390253887355976,-0.46390253887355976
-0.5036088604435411,-0.5036088604435411
-0.5758021723889619,-0.5758021723889619
-0.31590624938544726,-0.31590624938544726
0.3843688764851338,0.3843688764851338
0.9763540344375837,0.9763540344375837
1.1604469798984065,1.1604469798984065
1.196543635871117,1.196543635871117
1.7524321378508565,1.7524321378508565
1.5683391923900336,1.5683391923900336
0.9763540344375837,0.9763540344375837
0.4601718540278255,0.4601718540278255
0.4962685100005359,0.4962685100005359
0.12808261907889018,0.12808261907889018
0.4962685100005359,0.4962685100005359
0.6081681435159381,0.6081681435159381
0.27246924296973163,0.27246924296973163
-0.39170922692813903,-0.39170922692813903
-0.6118988283616723,-0.6118988283616723
-0.8356980953924765,-0.8356980953924765
-0.7959917738224951,-0.7959917738224951
-0.9439880633106076,-0.9439880633106076
-0.8717947513651869,-0.8717947513651869
-1.0197910408532993,-1.0197910408532993
-0.983694384880589,-0.983694384880589
-0.983694384880589,-0.983694384880589
-0.8356980953924765,-0.8356980953924765
-0.9078914073378973,-0.9078914073378973
-0.7959917738224951,-0.7959917738224951
-0.9078914073378973,-0.9078914073378973
-0.8356980953924765,-0.8356980953924765
-0.7598951178497848,-0.7598951178497848
-0.5397055164162515,-0.5397055164162515
-0.39170922692813903,-0.39170922692813903
-0.24371293744002656,-0.24371293744002656
-0.09571664795191406,-0.09571664795191406
0.12808261907889018,0.12808261907889018
0.2002759310243109,0.2002759310243109
-0.0199136704092223,-0.0199136704092223
-0.1679099598973348,-0.1679099598973348
-0.24371293744002656,-0.24371293744002656
-0.6118988283616723,-0.6118988283616723
-0.7959917738224951,-0.7959917738224951
-0.5036088604435411,-0.5036088604435411
-0.39170922692813903,-0.39170922692813903
-0.3556125709554287,-0.3556125709554287
-0.39170922692813903,-0.39170922692813903
-0.2076162814673162,-0.2076162814673162
-0.09571664795191406,-0.09571664795191406
-0.0596199919792037,-0.0596199919792037
-0.09571664795191406,-0.09571664795191406
0.7561644330040506,0.7561644330040506
1.8643317713662586,1.8643317713662586
3.0446924216738878,3.0446924216738878
3.8604768466571424,3.8604768466571424
5.188833786452884,5.188833786452884
5.632822654917221,5.632822654917221
3.7485772131417403,3.7485772131417403
1.5683391923900336,1.5683391923900336
0.6442647994886483,0.6442647994886483
-0.2798095934127369,-0.2798095934127369
-0.6118988283616723,-0.6118988283616723
-0.7598951178497848,-0.7598951178497848
-0.7237984618770744,-0.7237984618770744
-0.7237984618770744,-0.7237984618770744
-0.5758021723889619,-0.5758021723889619
-0.4278058829008494,-0.4278058829008494
-0.31590624938544726,-0.31590624938544726
-0.2076162814673162,-0.2076162814673162
-0.2798095934127369,-0.2798095934127369
-0.4278058829008494,-0.4278058829008494
-0.5758021723889619,-0.5758021723889619
-0.8717947513651869,-0.8717947513651869
-1.09198435279872,-1.09198435279872
-1.276077298259543,-1.276077298259543
-1.4998765652903472,-1.4998765652903472
-1.572069877235768,-1.572069877235768
-1.463779909317637,-1.463779909317637
-1.387976931774945,-1.387976931774945
-1.09198435279872,-1.09198435279872
-0.8717947513651869,-0.8717947513651869
-0.5758021723889619,-0.5758021723889619
-0.2798095934127369,-0.2798095934127369
-0.09571664795191406,-0.09571664795191406
0.0883762975089088,0.0883762975089088
0.12808261907889018,0.12808261907889018
0.27246924296973163,0.27246924296973163
0.16417927505160054,0.16417927505160054
0.16417927505160054,0.16417927505160054
0.2002759310243109,0.2002759310243109
0.4204655324578441,0.4204655324578441
0.4204655324578441,0.4204655324578441
0.4962685100005359,0.4962685100005359
0.4962685100005359,0.4962685100005359
0.4962685100005359,0.4962685100005359
0.5684618219459566,0.5684618219459566
0.6442647994886483,0.6442647994886483
0.6803614554613587,0.6803614554613587
0.7922610889767608,0.7922610889767608
1.2362499574410983,1.2362499574410983
1.7163354818781462,1.7163354818781462
1.8643317713662586,1.8643317713662586
2.2686143182606147,2.2686143182606147
2.56460689723684,2.56460689723684
2.712603186724952,2.712603186724952
2.4166106077487273,2.4166106077487273
1.7163354818781462,1.7163354818781462
1.3445399253592294,1.3445399253592294
1.1604469798984065,1.1604469798984065
1.088253667952986,1.088253667952986
1.1243503239256962,1.1243503239256962
1.196543635871117,1.196543635871117
0.6442647994886483,0.6442647994886483
0.2002759310243109,0.2002759310243109
-0.0199136704092223,-0.0199136704092223
-0.0596199919792037,-0.0596199919792037
-0.24371293744002656,-0.24371293744002656
-0.39170922692813903,-0.39170922692813903
-0.5758021723889619,-0.5758021723889619
-0.687701805904364,-0.687701805904364
-0.7598951178497848,-0.7598951178497848
-0.7959917738224951,-0.7959917738224951
-0.9078914073378973,-0.9078914073378973
-0.9078914073378973,-0.9078914073378973
-0.8356980953924765,-0.8356980953924765
-0.7598951178497848,-0.7598951178497848
-0.6118988283616723,-0.6118988283616723
-0.5036088604435411,-0.5036088604435411
-0.4278058829008494,-0.4278058829008494
-0.4278058829008494,-0.4278058829008494
-0.3556125709554287,-0.3556125709554287
-0.1679099598973348,-0.1679099598973348
0.016182985563488062,0.016182985563488062
0.05227964153619843,0.05227964153619843
0.16417927505160054,0.16417927505160054
0.3482722205124234,0.3482722205124234
0.4962685100005359,0.4962685100005359
0.4962685100005359,0.4962685100005359
0.4601718540278255,0.4601718540278255
0.3482722205124234,0.3482722205124234
0.4204655324578441,0.4204655324578441
0.3843688764851338,0.3843688764851338
0.4601718540278255,0.4601718540278255
0.4962685100005359,0.4962685100005359
0.5684618219459566,0.5684618219459566
0.3843688764851338,0.3843688764851338
0.27246924296973163,0.27246924296973163
0.4601718540278255,0.4601718540278255
0.7922610889767608,0.7922610889767608
0.8644544009221816,0.8644544009221816
1.3445399253592294,1.3445399253592294
1.8246254497962773,1.8246254497962773
2.308320639830596,2.308320639830596
2.3444172958033067,2.3444172958033067
1.4564395588746315,1.4564395588746315
0.6442647994886483,0.6442647994886483
0.27246924296973163,0.27246924296973163
-0.0596199919792037,-0.0596199919792037
-0.2076162814673162,-0.2076162814673162
-0.1679099598973348,-0.1679099598973348
-0.6479954843343826,-0.6479954843343826
-1.167787330341412,-1.167787330341412
-1.3518802758022348,-1.3518802758022348
-1.2038839863141222,-1.2038839863141222
-1.09198435279872,-1.09198435279872
-0.9078914073378973,-0.9078914073378973
-0.7237984618770744,-0.7237984618770744
-0.3556125709554287,-0.3556125709554287
-0.09571664795191406,-0.09571664795191406
0.16417927505160054,0.16417927505160054
0.31217556453971307,0.31217556453971307
0.4601718540278255,0.4601718540278255
0.3482722205124234,0.3482722205124234
0.2002759310243109,0.2002759310243109
0.016182985563488062,0.016182985563488062
-0.0596199919792037,-0.0596199919792037
-0.0596199919792037,-0.0596199919792037
0.05227964153619843,0.05227964153619843
0.31217556453971307,0.31217556453971307
0.4601718540278255,0.4601718540278255
0.7164581114340691,0.7164581114340691
0.8283577449494712,0.8283577449494712
1.0124506904102941,1.0124506904102941
1.1604469798984065,1.1604469798984065
1.3445399253592294,1.3445399253592294
1.492536214847342,1.492536214847342
1.680238825905436,1.680238825905436
1.7163354818781462,1.7163354818781462
1.604435848362744,1.604435848362744
1.4564395588746315,1.4564395588746315
1.3084432693865191,1.3084432693865191
1.088253667952986,1.088253667952986
1.3445399253592294,1.3445399253592294
1.9726217392843899,1.9726217392843899
2.1603243503424836,2.1603243503424836
2.4527072637214378,2.4527072637214378
3.0085957657011773,3.0085957657011773
3.820770525087161,3.820770525087161
4.080666448090676,4.080666448090676
3.8965735026298525,3.8965735026298525
3.192688711162,3.192688711162
3.0085957657011773,3.0085957657011773
1.8643317713662586,1.8643317713662586
0.6442647994886483,0.6442647994886483
-0.24371293744002656,-0.24371293744002656
-0.8356980953924765,-0.8356980953924765
-1.3157836198295243,-1.3157836198295243
-1.387976931774945,-1.387976931774945
-1.387976931774945,-1.387976931774945
-1.2399806422868327,-1.2399806422868327
-1.2038839863141222,-1.2038839863141222
-1.0558876968260098,-1.0558876968260098
-0.983694384880589,-0.983694384880589
-0.7959917738224951,-0.7959917738224951
-0.7598951178497848,-0.7598951178497848
-0.983694384880589,-0.983694384880589
-1.0197910408532993,-1.0197910408532993
-0.9439880633106076,-0.9439880633106076
-0.8717947513651869,-0.8717947513651869
-0.8356980953924765,-0.8356980953924765
-0.8717947513651869,-0.8717947513651869
-0.7237984618770744,-0.7237984618770744
-0.5758021723889619,-0.5758021723889619
-0.31590624938544726,-0.31590624938544726
-0.24371293744002656,-0.24371293744002656
-0.09571664795191406,-0.09571664795191406
0.05227964153619843,0.05227964153619843
0.05227964153619843,0.05227964153619843
0.12808261907889018,0.12808261907889018
-0.13181330392462443,-0.13181330392462443
-0.1679099598973348,-0.1679099598973348
-0.0596199919792037,-0.0596199919792037
0.12808261907889018,0.12808261907889018
0.12808261907889018,0.12808261907889018
0.3482722205124234,0.3482722205124234
0.7164581114340691,0.7164581114340691
0.9402573784648733,0.9402573784648733
1.1243503239256962,1.1243503239256962
1.680238825905436,1.680238825905436
1.5322425364173233,1.5322425364173233
1.8246254497962773,1.8246254497962773
2.120618028772502,2.120618028772502
2.4166106077487273,2.4166106077487273
2.084521372799792,2.084521372799792
1.3084432693865191,1.3084432693865191
0.2363725869970213,0.2363725869970213
-0.1679099598973348,-0.1679099598973348
-0.39170922692813903,-0.39170922692813903
-0.31590624938544726,-0.31590624938544726
-0.2076162814673162,-0.2076162814673162
-0.7237984618770744,-0.7237984618770744
-1.3157836198295243,-1.3157836198295243
-1.4998765652903472,-1.4998765652903472
-1.572069877235768,-1.572069877235768
-1.6478728547784598,-1.6478728547784598
-1.4240735877476554,-1.4240735877476554
-1.3518802758022348,-1.3518802758022348
-1.3157836198295243,-1.3157836198295243
-0.8717947513651869,-0.8717947513651869
-0.5397055164162515,-0.5397055164162515
-0.5758021723889619,-0.5758021723889619
-0.46390253887355976,-0.46390253887355976
-0.6118988283616723,-0.6118988283616723
-0.7237984618770744,-0.7237984618770744
-0.46390253887355976,-0.46390253887355976
-0.13181330392462443,-0.13181330392462443
0.0883762975089088,0.0883762975089088
0.5684618219459566,0.5684618219459566
1.1243503239256962,1.1243503239256962
1.8246254497962773,1.8246254497962773
2.4166106077487273,2.4166106077487273
3.1204953992165794,3.1204953992165794
4.152859760036097,4.152859760036097
5.484826365429108,5.484826365429108
6.260904468842382,6.260904468842382
6.888986282767542,6.888986282767542
7.517068096692702,7.517068096692702
7.5928710742353935,7.5928710742353935
7.5928710742353935,7.5928710742353935
7.5928710742353935,7.5928710742353935
7.5928710742353935,7.5928710742353935
7.148882205771057,7.148882205771057
6.556897047818606,6.556897047818606
5.705015966862642,5.705015966862642
5.1527371304801735,5.1527371304801735
4.892841207476659,4.892841207476659
4.928937863449369,4.928937863449369
4.820647895531238,4.820647895531238
4.708748262015836,4.708748262015836
4.560751972527723,4.560751972527723
4.448852339012321,4.448852339012321
3.820770525087161,3.820770525087161
2.4527072637214378,2.4527072637214378
0.8283577449494712,0.8283577449494712
0.2002759310243109,0.2002759310243109
-0.687701805904364,-0.687701805904364
-1.3157836198295243,-1.3157836198295243
-1.868062456211993,-1.868062456211993
-2.535850591707135,-2.535850591707135
-3.5321182965539406,-3.5321182965539406
-3.8281108755301654,-3.8281108755301654
-4.048300476963698,-4.048300476963698
-4.196296766451811,-4.196296766451811
-4.344293055939923,-4.344293055939923
-4.456192689455325,-4.456192689455325
-4.344293055939923,-4.344293055939923
-4.420096033482615,-4.420096033482615
-4.492289345428036,-4.492289345428036
-4.528386001400746,-4.528386001400746
-4.604188978943438,-4.604188978943438
-4.788281924404261,-4.788281924404261
-4.864084901946953,-4.864084901946953
-5.048177847407776,-5.048177847407776
-5.120371159353196,-5.120371159353196
-4.972374869865083,-4.972374869865083
-4.6402856349161485,-4.6402856349161485
-4.380389711912634,-4.380389711912634
-4.0122038209909885,-4.0122038209909885
-3.4960216405812305,-3.4960216405812305
-2.8282335050860885,-2.8282335050860885
-2.1279583792155075,-2.1279583792155075
-1.3518802758022348,-1.3518802758022348
-0.5758021723889619,-0.5758021723889619
0.0883762975089088,0.0883762975089088
0.7164581114340691,0.7164581114340691
1.3084432693865191,1.3084432693865191
1.8643317713662586,1.8643317713662586
2.308320639830596,2.308320639830596
2.56460689723684,2.56460689723684
2.788406164267644,2.788406164267644
3.304588344677402,3.304588344677402
3.7485772131417403,3.7485772131417403
4.5246553165550125,4.5246553165550125
5.409023387886417,5.409023387886417
6.112908179354269,6.112908179354269
6.224807812869671,6.224807812869671
6.444997414303204,6.444997414303204
6.372804102357784,6.372804102357784
6.592993703791317,6.592993703791317
6.001008545838867,6.001008545838867
5.224930442425594,5.224930442425594
4.96864418501935,4.96864418501935
5.004740840992061,5.004740840992061
4.192566081606078,4.192566081606078
3.524777946110935,3.524777946110935
2.788406164267644,2.788406164267644
2.012328060854371,2.012328060854371
1.3445399253592294,1.3445399253592294
1.196543635871117,1.196543635871117
1.1243503239256962,1.1243503239256962
1.0124506904102941,1.0124506904102941
0.8644544009221816,0.8644544009221816
0.6442647994886483,0.6442647994886483
0.3482722205124234,0.3482722205124234
0.16417927505160054,0.16417927505160054
0.05227964153619843,0.05227964153619843
-0.24371293744002656,-0.24371293744002656
-0.46390253887355976,-0.46390253887355976
-0.9439880633106076,-0.9439880633106076
-1.4240735877476554,-1.4240735877476554
-1.8319658002392825,-1.8319658002392825
-1.979962089727395,-1.979962089727395
-2.052155401672816,-2.052155401672816
-2.2001516911609285,-2.2001516911609285
-2.4239509581917327,-2.4239509581917327
-2.535850591707135,-2.535850591707135
-2.756040193140668,-2.756040193140668
-2.7921368491133784,-2.7921368491133784
-2.976229794574201,-2.976229794574201
-2.8282335050860885,-2.8282335050860885
-2.6080439036525553,-2.6080439036525553
-2.2001516911609285,-2.2001516911609285
-1.68396951075117,-1.68396951075117
-0.8717947513651869,-0.8717947513651869
-0.1679099598973348,-0.1679099598973348
0.4601718540278255,0.4601718540278255
1.2362499574410983,1.2362499574410983
2.120618028772502,2.120618028772502
2.6404098747795315,2.6404098747795315
2.9364024537557567,2.9364024537557567
3.1204953992165794,3.1204953992165794
2.788406164267644,2.788406164267644
2.1603243503424836,2.1603243503424836
1.6405325043354544,1.6405325043354544
1.088253667952986,1.088253667952986
0.7561644330040506,0.7561644330040506
1.0485473463830044,1.0485473463830044
1.5683391923900336,1.5683391923900336
2.084521372799792,2.084521372799792
2.3805139517760168,2.3805139517760168
2.5285102412641294,2.5285102412641294
2.1603243503424836,2.1603243503424836
1.7524321378508565,1.7524321378508565
1.088253667952986,1.088253667952986
0.12808261907889018,0.12808261907889018
-1.2399806422868327,-1.2399806422868327
-2.644140559625266,-2.644140559625266
-4.08800679853368,-4.08800679853368
-5.452460394302132,-5.452460394302132
-6.3404381312308065,-6.3404381312308065
-6.56062773266434,-6.56062773266434
-6.304341475258096,-6.304341475258096
-5.564360027817534,-5.564360027817534
-4.5680923229707275,-4.5680923229707275
-3.6043116084993616,-3.6043116084993616
-2.976229794574201,-2.976229794574201
-2.683846881195247,-2.683846881195247
-2.4600476141644427,-2.4600476141644427
-2.4239509581917327,-2.4239509581917327
-2.2001516911609285,-2.2001516911609285
-1.979962089727395,-1.979962089727395
-1.4998765652903472,-1.4998765652903472
-0.7598951178497848,-0.7598951178497848
-0.09571664795191406,-0.09571664795191406
0.4204655324578441,0.4204655324578441
1.088253667952986,1.088253667952986
1.4203429029019212,1.4203429029019212
1.8246254497962773,1.8246254497962773
1.492536214847342,1.492536214847342
0.9763540344375837,0.9763540344375837
0.5323651659732462,0.5323651659732462
0.3843688764851338,0.3843688764851338
0.16417927505160054,0.16417927505160054
-0.0199136704092223,-0.0199136704092223
0.12808261907889018,0.12808261907889018
-0.1679099598973348,-0.1679099598973348
-0.6118988283616723,-0.6118988283616723
-0.687701805904364,-0.687701805904364
-0.6118988283616723,-0.6118988283616723
-0.5036088604435411,-0.5036088604435411
-0.24371293744002656,-0.24371293744002656
-0.2076162814673162,-0.2076162814673162
-0.2076162814673162,-0.2076162814673162
-0.2076162814673162,-0.2076162814673162
-0.2076162814673162,-0.2076162814673162
-0.2798095934127369,-0.2798095934127369
-0.5397055164162515,-0.5397055164162515
-0.6118988283616723,-0.6118988283616723
-0.39170922692813903,-0.39170922692813903
-0.39170922692813903,-0.39170922692813903
-0.5036088604435411,-0.5036088604435411
-0.5397055164162515,-0.5397055164162515
-0.46390253887355976,-0.46390253887355976
-0.4278058829008494,-0.4278058829008494
-0.24371293744002656,-0.24371293744002656
-0.0199136704092223,-0.0199136704092223
0.16417927505160054,0.16417927505160054
0.31217556453971307,0.31217556453971307
0.3843688764851338,0.3843688764851338
0.31217556453971307,0.31217556453971307
0.2363725869970213,0.2363725869970213
0.12808261907889018,0.12808261907889018
0.016182985563488062,0.016182985563488062
-0.0596199919792037,-0.0596199919792037
-0.1679099598973348,-0.1679099598973348
-0.24371293744002656,-0.24371293744002656
-0.2798095934127369,-0.2798095934127369
-0.2076162814673162,-0.2076162814673162
-0.4278058829008494,-0.4278058829008494
-0.5397055164162515,-0.5397055164162515
-0.5397055164162515,-0.5397055164162515
-0.6118988283616723,-0.6118988283616723
-0.6479954843343826,-0.6479954843343826
-0.5397055164162515,-0.5397055164162515
-0.46390253887355976,-0.46390253887355976
-0.39170922692813903,-0.39170922692813903
-0.5397055164162515,-0.5397055164162515
-0.5036088604435411,-0.5036088604435411
-0.687701805904364,-0.687701805904364
-0.7237984618770744,-0.7237984618770744
-0.6479954843343826,-0.6479954843343826
-0.6479954843343826,-0.6479954843343826
-0.6118988283616723,-0.6118988283616723
-0.3556125709554287,-0.3556125709554287
-0.24371293744002656,-0.24371293744002656
-0.2798095934127369,-0.2798095934127369
-0.2798095934127369,-0.2798095934127369
-0.1679099598973348,-0.1679099598973348
-0.24371293744002656,-0.24371293744002656
-0.31590624938544726,-0.31590624938544726
-0.24371293744002656,-0.24371293744002656
-0.13181330392462443,-0.13181330392462443
0.016182985563488062,0.016182985563488062
0.12808261907889018,0.12808261907889018
0.4204655324578441,0.4204655324578441
0.8644544009221816,0.8644544009221816
1.492536214847342,1.492536214847342
1.8246254497962773,1.8246254497962773
2.308320639830596,2.308320639830596
2.5285102412641294,2.5285102412641294
2.7486998426976625,2.7486998426976625
2.492413585291419,2.492413585291419
1.8246254497962773,1.8246254497962773
1.0485473463830044,1.0485473463830044
0.7922610889767608,0.7922610889767608
0.3482722205124234,0.3482722205124234
0.16417927505160054,0.16417927505160054
0.31217556453971307,0.31217556453971307
0.0883762975089088,0.0883762975089088
-0.4278058829008494,-0.4278058829008494
-0.687701805904364,-0.687701805904364
-0.8356980953924765,-0.8356980953924765
-0.9078914073378973,-0.9078914073378973
-1.0197910408532993,-1.0197910408532993
-0.983694384880589,-0.983694384880589
-0.9439880633106076,-0.9439880633106076
-1.0197910408532993,-1.0197910408532993
-0.9439880633106076,-0.9439880633106076
-1.167787330341412,-1.167787330341412
-1.1316906743687014,-1.1316906743687014
-0.8717947513651869,-0.8717947513651869
-0.7959917738224951,-0.7959917738224951
-0.9078914073378973,-0.9078914073378973
-0.9078914073378973,-0.9078914073378973
-1.0197910408532993,-1.0197910408532993
-0.7959917738224951,-0.7959917738224951
-0.7237984618770744,-0.7237984618770744
-0.5397055164162515,-0.5397055164162515
-0.2798095934127369,-0.2798095934127369
0.05227964153619843,0.05227964153619843
0.2363725869970213,0.2363725869970213
0.31217556453971307,0.31217556453971307
0.2002759310243109,0.2002759310243109
0.27246924296973163,0.27246924296973163
0.31217556453971307,0.31217556453971307
0.2363725869970213,0.2363725869970213
0.31217556453971307,0.31217556453971307
0.31217556453971307,0.31217556453971307
0.3482722205124234,0.3482722205124234
0.3843688764851338,0.3843688764851338
0.4601718540278255,0.4601718540278255
0.27246924296973163,0.27246924296973163
0.27246924296973163,0.27246924296973163
0.31217556453971307,0.31217556453971307
0.31217556453971307,0.31217556453971307
0.31217556453971307,0.31217556453971307
0.3482722205124234,0.3482722205124234
0.31217556453971307,0.31217556453971307
0.9402573784648733,0.9402573784648733
1.196543635871117,1.196543635871117
1.1604469798984065,1.1604469798984065
1.384246246929211,1.384246246929211
1.9365250833116794,1.9365250833116794
2.196421006315194,2.196421006315194
1.788528793823567,1.788528793823567
0.9041607224921631,0.9041607224921631
0.7561644330040506,0.7561644330040506
0.4601718540278255,0.4601718540278255
0.4962685100005359,0.4962685100005359
0.6803614554613587,0.6803614554613587
0.7922610889767608,0.7922610889767608
0.2363725869970213,0.2363725869970213
-0.0596199919792037,-0.0596199919792037
-0.2076162814673162,-0.2076162814673162
-0.2076162814673162,-0.2076162814673162
-0.24371293744002656,-0.24371293744002656
-0.39170922692813903,-0.39170922692813903
-0.5036088604435411,-0.5036088604435411
-0.6118988283616723,-0.6118988283616723
-0.7237984618770744,-0.7237984618770744
-0.8717947513651869,-0.8717947513651869
-0.9078914073378973,-0.9078914073378973
-0.9439880633106076,-0.9439880633106076
-0.9078914073378973,-0.9078914073378973
-0.9078914073378973,-0.9078914073378973
-0.8356980953924765,-0.8356980953924765
-0.8717947513651869,-0.8717947513651869
-0.687701805904364,-0.687701805904364
-0.5758021723889619,-0.5758021723889619
-0.31590624938544726,-0.31590624938544726
-0.1679099598973348,-0.1679099598973348
0.05227964153619843,0.05227964153619843
0.12808261907889018,0.12808261907889018
0.3843688764851338,0.3843688764851338
0.4601718540278255,0.4601718540278255
0.27246924296973163,0.27246924296973163
0.31217556453971307,0.31217556453971307
0.27246924296973163,0.27246924296973163
0.31217556453971307,0.31217556453971307
0.31217556453971307,0.31217556453971307
0.2002759310243109,0.2002759310243109
0.2363725869970213,0.2363725869970213
0.31217556453971307,0.31217556453971307
0.31217556453971307,0.31217556453971307
0.27246924296973163,0.27246924296973163
0.16417927505160054,0.16417927505160054
0.12808261907889018,0.12808261907889018
-0.0596199919792037,-0.0596199919792037
-0.09571664795191406,-0.09571664795191406
0.27246924296973163,0.27246924296973163
0.9763540344375837,0.9763540344375837
1.492536214847342,1.492536214847342
1.9726217392843899,1.9726217392843899
2.9724991097284668,2.9724991097284668
3.9687668145752735,3.9687668145752735
4.820647895531238,4.820647895531238
4.928937863449369,4.928937863449369
2.824502820240354,2.824502820240354
1.2723466134138086,1.2723466134138086
0.4204655324578441,0.4204655324578441
-0.13181330392462443,-0.13181330392462443
-0.6118988283616723,-0.6118988283616723
-1.1316906743687014,-1.1316906743687014
-1.3157836198295243,-1.3157836198295243
-1.09198435279872,-1.09198435279872
-1.0558876968260098,-1.0558876968260098
-1.3157836198295243,-1.3157836198295243
-1.4240735877476554,-1.4240735877476554
-1.572069877235768,-1.572069877235768
-1.759772488293862,-1.759772488293862
-2.0160587457001053,-2.0160587457001053
-2.164055035188218,-2.164055035188218
-2.4239509581917327,-2.4239509581917327
-2.6080439036525553,-2.6080439036525553
-2.644140559625266,-2.644140559625266
-2.164055035188218,-2.164055035188218
-2.0918617232427974,-2.0918617232427974
-2.0918617232427974,-2.0918617232427974
-1.979962089727395,-1.979962089727395
-2.052155401672816,-2.052155401672816
-1.868062456211993,-1.868062456211993
-1.4998765652903472,-1.4998765652903472
-1.276077298259543,-1.276077298259543
-0.9439880633106076,-0.9439880633106076
-0.6479954843343826,-0.6479954843343826
-0.39170922692813903,-0.39170922692813903
-0.5036088604435411,-0.5036088604435411
-0.5397055164162515,-0.5397055164162515
-0.5036088604435411,-0.5036088604435411
-0.39170922692813903,-0.39170922692813903
-0.31590624938544726,-0.31590624938544726
-0.4278058829008494,-0.4278058829008494
-0.39170922692813903,-0.39170922692813903
-0.3556125709554287,-0.3556125709554287
-0.39170922692813903,-0.39170922692813903
-0.1679099598973348,-0.1679099598973348
0.12808261907889018,0.12808261907889018
-0.0199136704092223,-0.0199136704092223
0.2363725869970213,0.2363725869970213
0.16417927505160054,0.16417927505160054
0.016182985563488062,0.016182985563488062
-0.0596199919792037,-0.0596199919792037
0.05227964153619843,0.05227964153619843
0.0883762975089088,0.0883762975089088
-0.0199136704092223,-0.0199136704092223
-0.09571664795191406,-0.09571664795191406
0.0883762975089088,0.0883762975089088
0.16417927505160054,0.16417927505160054
0.12808261907889018,0.12808261907889018
0.2363725869970213,0.2363725869970213
0.05227964153619843,0.05227964153619843
0.3843688764851338,0.3843688764851338
0.6803614554613587,0.6803614554613587
0.7922610889767608,0.7922610889767608
0.6442647994886483,0.6442647994886483
0.7164581114340691,0.7164581114340691
0.6081681435159381,0.6081681435159381
0.6803614554613587,0.6803614554613587
0.6442647994886483,0.6442647994886483
0.5323651659732462,0.5323651659732462
0.6081681435159381,0.6081681435159381
0.4601718540278255,0.4601718540278255
0.2363725869970213,0.2363725869970213
0.3482722205124234,0.3482722205124234
0.7561644330040506,0.7561644330040506
1.4564395588746315,1.4564395588746315
1.8643317713662586,1.8643317713662586
2.1603243503424836,2.1603243503424836
3.0446924216738878,3.0446924216738878
3.6005809236536273,3.6005809236536273
3.6366775796263378,3.6366775796263378
3.084398743243869,3.084398743243869
2.1603243503424836,2.1603243503424836
2.0484247168270815,2.0484247168270815
1.7163354818781462,1.7163354818781462
1.3084432693865191,1.3084432693865191
1.0485473463830044,1.0485473463830044
0.4601718540278255,0.4601718540278255
-0.24371293744002656,-0.24371293744002656
-0.7598951178497848,-0.7598951178497848
-0.983694384880589,-0.983694384880589
-1.0558876968260098,-1.0558876968260098
-1.2399806422868327,-1.2399806422868327
-1.4240735877476554,-1.4240735877476554
-1.167787330341412,-1.167787330341412
-1.0558876968260098,-1.0558876968260098
-0.8356980953924765,-0.8356980953924765
-0.8717947513651869,-0.8717947513651869
-0.7237984618770744,-0.7237984618770744
-0.8717947513651869,-0.8717947513651869
-0.8717947513651869,-0.8717947513651869
-0.9439880633106076,-0.9439880633106076
-1.0558876968260098,-1.0558876968260098
-0.983694384880589,-0.983694384880589
-0.7237984618770744,-0.7237984618770744
-0.6479954843343826,-0.6479954843343826
-0.7237984618770744,-0.7237984618770744
-0.6118988283616723,-0.6118988283616723
-0.4278058829008494,-0.4278058829008494
-0.24371293744002656,-0.24371293744002656
-0.0199136704092223,-0.0199136704092223
0.16417927505160054,0.16417927505160054
0.2363725869970213,0.2363725869970213
0.3482722205124234,0.3482722205124234
0.5684618219459566,0.5684618219459566
0.6442647994886483,0.6442647994886483
0.4601718540278255,0.4601718540278255
0.4962685100005359,0.4962685100005359
0.6442647994886483,0.6442647994886483
0.7164581114340691,0.7164581114340691
0.7561644330040506,0.7561644330040506
0.7922610889767608,0.7922610889767608
0.6803614554613587,0.6803614554613587
0.6803614554613587,0.6803614554613587
0.5323651659732462,0.5323651659732462
0.4204655324578441,0.4204655324578441
0.2002759310243109,0.2002759310243109
0.16417927505160054,0.16417927505160054
-0.0199136704092223,-0.0199136704092223
-0.09571664795191406,-0.09571664795191406
-0.13181330392462443,-0.13181330392462443
-0.09571664795191406,-0.09571664795191406
-0.2076162814673162,-0.2076162814673162
-0.2076162814673162,-0.2076162814673162
-0.4278058829008494,-0.4278058829008494
-0.5758021723889619,-0.5758021723889619
-0.3556125709554287,-0.3556125709554287
0.2002759310243109,0.2002759310243109
0.7561644330040506,0.7561644330040506
1.2723466134138086,1.2723466134138086
1.900428427338969,1.900428427338969
2.308320639830596,2.308320639830596
2.56460689723684,2.56460689723684
2.120618028772502,2.120618028772502
1.196543635871117,1.196543635871117
0.7164581114340691,0.7164581114340691
0.5323651659732462,0.5323651659732462
0.3843688764851338,0.3843688764851338
0.31217556453971307,0.31217556453971307
0.0883762975089088,0.0883762975089088
-0.46390253887355976,-0.46390253887355976
-1.0558876968260098,-1.0558876968260098
-1.2038839863141222,-1.2038839863141222
-1.276077298259543,-1.276077298259543
-1.2399806422868327,-1.2399806422868327
-1.387976931774945,-1.387976931774945
-1.463779909317637,-1.463779909317637
-1.572069877235768,-1.572069877235768
-1.5359732212630577,-1.5359732212630577
-1.5359732212630577,-1.5359732212630577
-1.387976931774945,-1.387976931774945
-1.3518802758022348,-1.3518802758022348
-1.3157836198295243,-1.3157836198295243
-1.3518802758022348,-1.3518802758022348
-1.3157836198295243,-1.3157836198295243
-1.463779909317637,-1.463779909317637
-1.572069877235768,-1.572069877235768
-1.3157836198295243,-1.3157836198295243
-1.0197910408532993,-1.0197910408532993
-0.7237984618770744,-0.7237984618770744
-0.5758021723889619,-0.5758021723889619
-0.31590624938544726,-0.31590624938544726
-0.1679099598973348,-0.1679099598973348
-0.0596199919792037,-0.0596199919792037
-0.09571664795191406,-0.09571664795191406
0.05227964153619843,0.05227964153619843
-0.0199136704092223,-0.0199136704092223
0.0883762975089088,0.0883762975089088
0.0883762975089088,0.0883762975089088
0.16417927505160054,0.16417927505160054
-0.0199136704092223,-0.0199136704092223
-0.09571664795191406,-0.09571664795191406
-0.31590624938544726,-0.31590624938544726
-0.3556125709554287,-0.3556125709554287
-0.31590624938544726,-0.31590624938544726
-0.2798095934127369,-0.2798095934127369
-0.2076162814673162,-0.2076162814673162
-0.24371293744002656,-0.24371293744002656
-0.1679099598973348,-0.1679099598973348
-0.09571664795191406,-0.09571664795191406
-0.13181330392462443,-0.13181330392462443
-0.2076162814673162,-0.2076162814673162
-0.0596199919792037,-0.0596199919792037
0.4601718540278255,0.4601718540278255
1.0124506904102941,1.0124506904102941
1.2362499574410983,1.2362499574410983
1.788528793823567,1.788528793823567
1.900428427338969,1.900428427338969
2.196421006315194,2.196421006315194
1.788528793823567,1.788528793823567
1.088253667952986,1.088253667952986
0.5323651659732462,0.5323651659732462
0.4601718540278255,0.4601718540278255
0.4204655324578441,0.4204655324578441
0.6442647994886483,0.6442647994886483
0.7922610889767608,0.7922610889767608
0.4204655324578441,0.4204655324578441
-0.13181330392462443,-0.13181330392462443
-0.2076162814673162,-0.2076162814673162
-0.24371293744002656,-0.24371293744002656
-0.2076162814673162,-0.2076162814673162
-0.4278058829008494,-0.4278058829008494
-0.5397055164162515,-0.5397055164162515
-0.687701805904364,-0.687701805904364
-0.7959917738224951,-0.7959917738224951
-0.8356980953924765,-0.8356980953924765
-0.7959917738224951,-0.7959917738224951
-0.7598951178497848,-0.7598951178497848
-0.9078914073378973,-0.9078914073378973
-0.8717947513651869,-0.8717947513651869
-0.9078914073378973,-0.9078914073378973
-0.983694384880589,-0.983694384880589
-1.1316906743687014,-1.1316906743687014
-0.983694384880589,-0.983694384880589
-0.7237984618770744,-0.7237984618770744
-0.4278058829008494,-0.4278058829008494
-0.1679099598973348,-0.1679099598973348
0.016182985563488062,0.016182985563488062
0.0883762975089088,0.0883762975089088
-0.0199136704092223,-0.0199136704092223
-0.0199136704092223,-0.0199136704092223
0.016182985563488062,0.016182985563488062
-0.13181330392462443,-0.13181330392462443
-0.1679099598973348,-0.1679099598973348
-0.2076162814673162,-0.2076162814673162
-0.2076162814673162,-0.2076162814673162
-0.2076162814673162,-0.2076162814673162
-0.24371293744002656,-0.24371293744002656
-0.2076162814673162,-0.2076162814673162
-0.0596199919792037,-0.0596199919792037
-0.0199136704092223,-0.0199136704092223
0.0883762975089088,0.0883762975089088
0.2002759310243109,0.2002759310243109
0.16417927505160054,0.16417927505160054
0.05227964153619843,0.05227964153619843
-0.0596199919792037,-0.0596199919792037
-0.0596199919792037,-0.0596199919792037
0.016182985563488062,0.016182985563488062
0.05227964153619843,0.05227964153619843
-0.0199136704092223,-0.0199136704092223
-0.0199136704092223,-0.0199136704092223
-0.13181330392462443,-0.13181330392462443
-0.2076162814673162,-0.2076162814673162
-0.2076162814673162,-0.2076162814673162
-0.1679099598973348,-0.1679099598973348
-0.24371293744002656,-0.24371293744002656
-0.24371293744002656,-0.24371293744002656
-0.2076162814673162,-0.2076162814673162
-0.2076162814673162,-0.2076162814673162
-0.2798095934127369,-0.2798095934127369
-0.1679099598973348,-0.1679099598973348
0.2002759310243109,0.2002759310243109
1.0124506904102941,1.0124506904102941
1.604435848362744,1.604435848362744
1.9726217392843899,1.9726217392843899
2.492413585291419,2.492413585291419
2.8605994762130647,2.8605994762130647
3.0085957657011773,3.0085957657011773
2.3444172958033067,2.3444172958033067
1.4564395588746315,1.4564395588746315
1.0124506904102941,1.0124506904102941
0.7164581114340691,0.7164581114340691
0.3843688764851338,0.3843688764851338
0.31217556453971307,0.31217556453971307
0.2002759310243109,0.2002759310243109
-0.31590624938544726,-0.31590624938544726
-0.9078914073378973,-0.9078914073378973
-1.276077298259543,-1.276077298259543
-1.387976931774945,-1.387976931774945
-1.2038839863141222,-1.2038839863141222
-1.276077298259543,-1.276077298259543
-1.2038839863141222,-1.2038839863141222
-1.167787330341412,-1.167787330341412
-1.09198435279872,-1.09198435279872
-1.0558876968260098,-1.0558876968260098
-1.0197910408532993,-1.0197910408532993
-1.0558876968260098,-1.0558876968260098
-0.983694384880589,-0.983694384880589
-1.1316906743687014,-1.1316906743687014
-1.09198435279872,-1.09198435279872
-1.1316906743687014,-1.1316906743687014
-1.167787330341412,-1.167787330341412
-0.9439880633106076,-0.9439880633106076
-0.7237984618770744,-0.7237984618770744
-0.5036088604435411,-0.5036088604435411
-0.4278058829008494,-0.4278058829008494
-0.2076162814673162,-0.2076162814673162
-0.1679099598973348,-0.1679099598973348
-0.0596199919792037,-0.0596199919792037
0.0883762975089088,0.0883762975089088
0.2002759310243109,0.2002759310243109
0.12808261907889018,0.12808261907889018
0.05227964153619843,0.05227964153619843
-0.0199136704092223,-0.0199136704092223
-0.09571664795191406,-0.09571664795191406
-0.31590624938544726,-0.31590624938544726
-0.2798095934127369,-0.2798095934127369
-0.31590624938544726,-0.31590624938544726
-0.2076162814673162,-0.2076162814673162
-0.1679099598973348,-0.1679099598973348
-0.2076162814673162,-0.2076162814673162
-0.0596199919792037,-0.0596199919792037
0.4962685100005359,0.4962685100005359
1.5322425364173233,1.5322425364173233
2.56460689723684,2.56460689723684
3.672774235599048,3.672774235599048
2.084521372799792,2.084521372799792
-0.5397055164162515,-0.5397055164162515
-1.9077687777819743,-1.9077687777819743
-2.683846881195247,-2.683846881195247
-2.8282335050860885,-2.8282335050860885
-2.9401331386014906,-2.9401331386014906
-2.2001516911609285,-2.2001516911609285
-1.7200661667238804,-1.7200661667238804
-1.572069877235768,-1.572069877235768
-1.759772488293862,-1.759772488293862
-1.4998765652903472,-1.4998765652903472
-0.8717947513651869,-0.8717947513651869
-0.3556125709554287,-0.3556125709554287
-0.2076162814673162,-0.2076162814673162
-0.31590624938544726,-0.31590624938544726
-0.31590624938544726,-0.31590624938544726
-0.1679099598973348,-0.1679099598973348
-0.0199136704092223,-0.0199136704092223
-0.1679099598973348,-0.1679099598973348
-0.1679099598973348,-0.1679099598973348
-0.13181330392462443,-0.13181330392462443
0.0883762975089088,0.0883762975089088
0.27246924296973163,0.27246924296973163
0.4962685100005359,0.4962685100005359
0.7561644330040506,0.7561644330040506
1.0485473463830044,1.0485473463830044
1.3445399253592294,1.3445399253592294
1.5322425364173233,1.5322425364173233
1.492536214847342,1.492536214847342
1.4564395588746315,1.4564395588746315
1.3445399253592294,1.3445399253592294
1.196543635871117,1.196543635871117
1.0124506904102941,1.0124506904102941
0.7922610889767608,0.7922610889767608
0.7164581114340691,0.7164581114340691
0.6442647994886483,0.6442647994886483
0.3482722205124234,0.3482722205124234
0.05227964153619843,0.05227964153619843
-0.0199136704092223,-0.0199136704092223
-0.2076162814673162,-0.2076162814673162
-0.2798095934127369,-0.2798095934127369
-0.4278058829008494,-0.4278058829008494
-0.5036088604435411,-0.5036088604435411
-0.6118988283616723,-0.6118988283616723
-0.6479954843343826,-0.6479954843343826
-0.7959917738224951,-0.7959917738224951
-0.7237984618770744,-0.7237984618770744
-0.6479954843343826,-0.6479954843343826
-0.5397055164162515,-0.5397055164162515
-0.4278058829008494,-0.4278058829008494
-0.2798095934127369,-0.2798095934127369
-0.13181330392462443,-0.13181330392462443
-0.0199136704092223,-0.0199136704092223
0.016182985563488062,0.016182985563488062
0.05227964153619843,0.05227964153619843
-0.09571664795191406,-0.09571664795191406
-0.2798095934127369,-0.2798095934127369
-0.24371293744002656,-0.24371293744002656
-0.39170922692813903,-0.39170922692813903
-0.39170922692813903,-0.39170922692813903
-0.46390253887355976,-0.46390253887355976
-0.4278058829008494,-0.4278058829008494
-0.5397055164162515,-0.5397055164162515
-0.687701805904364,-0.687701805904364
-0.7237984618770744,-0.7237984618770744
-0.5397055164162515,-0.5397055164162515
-0.687701805904364,-0.687701805904364
-0.6118988283616723,-0.6118988283616723
-0.5758021723889619,-0.5758021723889619
-0.46390253887355976,-0.46390253887355976
-0.4278058829008494,-0.4278058829008494
-0.5036088604435411,-0.5036088604435411
-0.7237984618770744,-0.7237984618770744
-0.6118988283616723,-0.6118988283616723
-0.3556125709554287,-0.3556125709554287
0.05227964153619843,0.05227964153619843
0.6442647994886483,0.6442647994886483
0.9402573784648733,0.9402573784648733
1.5683391923900336,1.5683391923900336
1.9365250833116794,1.9365250833116794
2.3444172958033067,2.3444172958033067
1.7524321378508565,1.7524321378508565
1.0124506904102941,1.0124506904102941
0.7561644330040506,0.7561644330040506
0.7922610889767608,0.7922610889767608
0.16417927505160054,0.16417927505160054
0.16417927505160054,0.16417927505160054
0.2002759310243109,0.2002759310243109
-0.24371293744002656,-0.24371293744002656
-1.0558876968260098,-1.0558876968260098
-1.2399806422868327,-1.2399806422868327
-1.2038839863141222,-1.2038839863141222
-1.167787330341412,-1.167787330341412
-1.463779909317637,-1.463779909317637
-1.572069877235768,-1.572069877235768
-1.6478728547784598,-1.6478728547784598
-1.6478728547784598,-1.6478728547784598
-1.572069877235768,-1.572069877235768
-1.7200661667238804,-1.7200661667238804
-1.6117761988057493,-1.6117761988057493
-1.6478728547784598,-1.6478728547784598
-1.7200661667238804,-1.7200661667238804
-1.6478728547784598,-1.6478728547784598
-1.6117761988057493,-1.6117761988057493
-1.6117761988057493,-1.6117761988057493
-1.8319658002392825,-1.8319658002392825
-1.6117761988057493,-1.6117761988057493
-1.4998765652903472,-1.4998765652903472
-1.2399806422868327,-1.2399806422868327
-0.8356980953924765,-0.8356980953924765
-0.7598951178497848,-0.7598951178497848
-0.5036088604435411,-0.5036088604435411
-0.31590624938544726,-0.31590624938544726
-0.1679099598973348,-0.1679099598973348
-0.1679099598973348,-0.1679099598973348
-0.0596199919792037,-0.0596199919792037
-0.09571664795191406,-0.09571664795191406
-0.0596199919792037,-0.0596199919792037
-0.13181330392462443,-0.13181330392462443
0.0883762975089088,0.0883762975089088
0.12808261907889018,0.12808261907889018
-0.0596199919792037,-0.0596199919792037
-0.0199136704092223,-0.0199136704092223
-0.2076162814673162,-0.2076162814673162
-0.1679099598973348,-0.1679099598973348
-0.24371293744002656,-0.24371293744002656
-0.13181330392462443,-0.13181330392462443
-0.5036088604435411,-0.5036088604435411
-0.13181330392462443,-0.13181330392462443
-0.2076162814673162,-0.2076162814673162
-0.13181330392462443,-0.13181330392462443
-0.31590624938544726,-0.31590624938544726
-0.1679099598973348,-0.1679099598973348
-0.39170922692813903,-0.39170922692813903
-0.2798095934127369,-0.2798095934127369
-0.2076162814673162,-0.2076162814673162
-0.1679099598973348,-0.1679099598973348
0.016182985563488062,0.016182985563488062
0.16417927505160054,0.16417927505160054
0.0883762975089088,0.0883762975089088
-0.0199136704092223,-0.0199136704092223
0.27246924296973163,0.27246924296973163
0.5684618219459566,0.5684618219459566
1.0124506904102941,1.0124506904102941
1.5683391923900336,1.5683391923900336
1.9726217392843899,1.9726217392843899
2.8605994762130647,2.8605994762130647
3.1204953992165794,3.1204953992165794
3.6366775796263378,3.6366775796263378
3.376781656622823,3.376781656622823
2.5285102412641294,2.5285102412641294
1.8246254497962773,1.8246254497962773
1.492536214847342,1.492536214847342
1.3084432693865191,1.3084432693865191
0.9763540344375837,0.9763540344375837
0.6803614554613587,0.6803614554613587
-0.0199136704092223,-0.0199136704092223
-0.6479954843343826,-0.6479954843343826
-0.9439880633106076,-0.9439880633106076
-1.0197910408532993,-1.0197910408532993
-1.0558876968260098,-1.0558876968260098
-0.983694384880589,-0.983694384880589
-1.0558876968260098,-1.0558876968260098
-0.983694384880589,-0.983694384880589
-0.9439880633106076,-0.9439880633106076
-0.7237984618770744,-0.7237984618770744
-0.6118988283616723,-0.6118988283616723
-0.4278058829008494,-0.4278058829008494
-0.5758021723889619,-0.5758021723889619
-0.6479954843343826,-0.6479954843343826
-0.687701805904364,-0.687701805904364
-0.5397055164162515,-0.5397055164162515
-0.6118988283616723,-0.6118988283616723
-0.5758021723889619,-0.5758021723889619
-0.5397055164162515,-0.5397055164162515
-0.5036088604435411,-0.5036088604435411
-0.39170922692813903,-0.39170922692813903
-0.24371293744002656,-0.24371293744002656
-0.2076162814673162,-0.2076162814673162
-0.1679099598973348,-0.1679099598973348
-0.2076162814673162,-0.2076162814673162
-0.2798095934127369,-0.2798095934127369
-0.3556125709554287,-0.3556125709554287
-0.39170922692813903,-0.39170922692813903
-0.4278058829008494,-0.4278058829008494
-0.5036088604435411,-0.5036088604435411
-0.24371293744002656,-0.24371293744002656
-0.2076162814673162,-0.2076162814673162
-0.24371293744002656,-0.24371293744002656
-0.31590624938544726,-0.31590624938544726
-0.31590624938544726,-0.31590624938544726
-0.39170922692813903,-0.39170922692813903
-0.39170922692813903,-0.39170922692813903
-0.5036088604435411,-0.5036088604435411
-0.39170922692813903,-0.39170922692813903
-0.4278058829008494,-0.4278058829008494
0.16417927505160054,0.16417927505160054
0.4962685100005359,0.4962685100005359
0.4962685100005359,0.4962685100005359
0.7164581114340691,0.7164581114340691
1.088253667952986,1.088253667952986
1.492536214847342,1.492536214847342
1.2362499574410983,1.2362499574410983
0.5323651659732462,0.5323651659732462
0.27246924296973163,0.27246924296973163
0.31217556453971307,0.31217556453971307
0.4962685100005359,0.4962685100005359
0.7164581114340691,0.7164581114340691
1.0124506904102941,1.0124506904102941
0.6081681435159381,0.6081681435159381
0.0883762975089088,0.0883762975089088
-0.0199136704092223,-0.0199136704092223
0.016182985563488062,0.016182985563488062
0.05227964153619843,0.05227964153619843
-0.2798095934127369,-0.2798095934127369
-0.5036088604435411,-0.5036088604435411
-0.39170922692813903,-0.39170922692813903
-0.5036088604435411,-0.5036088604435411
-0.7959917738224951,-0.7959917738224951
-0.9439880633106076,-0.9439880633106076
-1.167787330341412,-1.167787330341412
-1.3157836198295243,-1.3157836198295243
-1.3518802758022348,-1.3518802758022348
-1.167787330341412,-1.167787330341412
-1.0558876968260098,-1.0558876968260098
-1.167787330341412,-1.167787330341412
-1.276077298259543,-1.276077298259543
-1.167787330341412,-1.167787330341412
-1.09198435279872,-1.09198435279872
-1.0197910408532993,-1.0197910408532993
-0.983694384880589,-0.983694384880589
-1.3157836198295243,-1.3157836198295243
-1.463779909317637,-1.463779909317637
-1.6117761988057493,-1.6117761988057493
-1.8319658002392825,-1.8319658002392825
-2.2398580127309096,-2.2398580127309096
-2.571947247679845,-2.571947247679845
-2.9401331386014906,-2.9401331386014906
-3.2000290616050053,-3.2000290616050053
-3.384122007065828,-3.384122007065828
-3.4202186630385385,-3.4202186630385385
-3.45992498460852,-3.45992498460852
-3.236125717577716,-3.236125717577716
-2.9401331386014906,-2.9401331386014906
-2.3120513246763306,-2.3120513246763306
-1.68396951075117,-1.68396951075117
-0.9078914073378973,-0.9078914073378973
-0.2798095934127369,-0.2798095934127369
0.2363725869970213,0.2363725869970213
0.6081681435159381,0.6081681435159381
1.1243503239256962,1.1243503239256962
1.6405325043354544,1.6405325043354544
2.4527072637214378,2.4527072637214378
3.192688711162,3.192688711162
4.228662737578788,4.228662737578788
4.892841207476659,4.892841207476659
3.268491688704692,3.268491688704692
0.31217556453971307,0.31217556453971307
-1.276077298259543,-1.276077298259543
-2.1279583792155075,-2.1279583792155075
-2.8282335050860885,-2.8282335050860885
-3.2000290616050053,-3.2000290616050053
-3.236125717577716,-3.236125717577716
-2.976229794574201,-2.976229794574201
-2.86793982665607,-2.86793982665607
-3.236125717577716,-3.236125717577716
-3.4960216405812305,-3.4960216405812305
-2.86793982665607,-2.86793982665607
-2.0160587457001053,-2.0160587457001053
-1.463779909317637,-1.463779909317637
-1.0558876968260098,-1.0558876968260098
-0.8356980953924765,-0.8356980953924765
-0.9439880633106076,-0.9439880633106076
-0.9078914073378973,-0.9078914073378973
-0.7598951178497848,-0.7598951178497848
-0.4278058829008494,-0.4278058829008494
-0.09571664795191406,-0.09571664795191406
0.27246924296973163,0.27246924296973163
0.4204655324578441,0.4204655324578441
0.7561644330040506,0.7561644330040506
1.196543635871117,1.196543635871117
1.5683391923900336,1.5683391923900336
1.7524321378508565,1.7524321378508565
1.8643317713662586,1.8643317713662586
1.900428427338969,1.900428427338969
1.680238825905436,1.680238825905436
1.4564395588746315,1.4564395588746315
1.3084432693865191,1.3084432693865191
1.196543635871117,1.196543635871117
1.0485473463830044,1.0485473463830044
1.0124506904102941,1.0124506904102941
0.8283577449494712,0.8283577449494712
0.7164581114340691,0.7164581114340691
0.4962685100005359,0.4962685100005359
0.3482722205124234,0.3482722205124234
-0.0596199919792037,-0.0596199919792037
-0.24371293744002656,-0.24371293744002656
-0.39170922692813903,-0.39170922692813903
-0.4278058829008494,-0.4278058829008494
-0.5036088604435411,-0.5036088604435411
-0.1679099598973348,-0.1679099598973348
0.3482722205124234,0.3482722205124234
0.6803614554613587,0.6803614554613587
0.5323651659732462,0.5323651659732462
0.31217556453971307,0.31217556453971307
0.16417927505160054,0.16417927505160054
0.3843688764851338,0.3843688764851338
0.6803614554613587,0.6803614554613587
0.7561644330040506,0.7561644330040506
0.6803614554613587,0.6803614554613587
0.3482722205124234,0.3482722205124234
0.27246924296973163,0.27246924296973163
0.6442647994886483,0.6442647994886483
1.0124506904102941,1.0124506904102941
1.3084432693865191,1.3084432693865191
1.900428427338969,1.900428427338969
2.120618028772502,2.120618028772502
2.6404098747795315,2.6404098747795315
2.308320639830596,2.308320639830596
1.6405325043354544,1.6405325043354544
0.9041607224921631,0.9041607224921631
0.5684618219459566,0.5684618219459566
0.31217556453971307,0.31217556453971307
0.16417927505160054,0.16417927505160054
0.12808261907889018,0.12808261907889018
-0.1679099598973348,-0.1679099598973348
-0.687701805904364,-0.687701805904364
-0.8717947513651869,-0.8717947513651869
-1.09198435279872,-1.09198435279872
-1.1316906743687014,-1.1316906743687014
-1.09198435279872,-1.09198435279872
-1.2399806422868327,-1.2399806422868327
-1.387976931774945,-1.387976931774945
-1.6478728547784598,-1.6478728547784598
-1.9438654337546848,-1.9438654337546848
-2.1279583792155075,-2.1279583792155075
-1.9077687777819743,-1.9077687777819743
-1.6117761988057493,-1.6117761988057493
-1.572069877235768,-1.572069877235768
-1.6117761988057493,-1.6117761988057493
-1.572069877235768,-1.572069877235768
-1.4998765652903472,-1.4998765652903472
-1.276077298259543,-1.276077298259543
-1.167787330341412,-1.167787330341412
-0.9439880633106076,-0.9439880633106076
-0.7598951178497848,-0.7598951178497848
-0.6479954843343826,-0.6479954843343826
-0.5036088604435411,-0.5036088604435411
-0.24371293744002656,-0.24371293744002656
-0.1679099598973348,-0.1679099598973348
-0.24371293744002656,-0.24371293744002656
-0.31590624938544726,-0.31590624938544726
-0.2076162814673162,-0.2076162814673162
-0.0596199919792037,-0.0596199919792037
0.016182985563488062,0.016182985563488062
0.0883762975089088,0.0883762975089088
0.0883762975089088,0.0883762975089088
0.16417927505160054,0.16417927505160054
0.2002759310243109,0.2002759310243109
0.2363725869970213,0.2363725869970213
0.2002759310243109,0.2002759310243109
0.7561644330040506,0.7561644330040506
1.3084432693865191,1.3084432693865191
1.4203429029019212,1.4203429029019212
1.384246246929211,1.384246246929211
1.2723466134138086,1.2723466134138086
1.4564395588746315,1.4564395588746315
1.0124506904102941,1.0124506904102941
0.12808261907889018,0.12808261907889018
-0.1679099598973348,-0.1679099598973348
-0.2798095934127369,-0.2798095934127369
-0.13181330392462443,-0.13181330392462443
0.12808261907889018,0.12808261907889018
0.2002759310243109,0.2002759310243109
-0.31590624938544726,-0.31590624938544726
-0.7598951178497848,-0.7598951178497848
-0.9439880633106076,-0.9439880633106076
-1.0197910408532993,-1.0197910408532993
-0.9078914073378973,-0.9078914073378973
-0.8356980953924765,-0.8356980953924765
-0.7598951178497848,-0.7598951178497848
-0.687701805904364,-0.687701805904364
-0.6118988283616723,-0.6118988283616723
-0.7237984618770744,-0.7237984618770744
-0.8356980953924765,-0.8356980953924765
-1.0197910408532993,-1.0197910408532993
-1.2038839863141222,-1.2038839863141222
-1.276077298259543,-1.276077298259543
-1.2399806422868327,-1.2399806422868327
-1.276077298259543,-1.276077298259543
-1.2038839863141222,-1.2038839863141222
-1.0558876968260098,-1.0558876968260098
-0.7237984618770744,-0.7237984618770744
-0.5036088604435411,-0.5036088604435411
-0.2798095934127369,-0.2798095934127369
-0.13181330392462443,-0.13181330392462443
0.016182985563488062,0.016182985563488062
0.05227964153619843,0.05227964153619843
0.12808261907889018,0.12808261907889018
0.016182985563488062,0.016182985563488062
-0.1679099598973348,-0.1679099598973348
-0.31590624938544726,-0.31590624938544726
-0.46390253887355976,-0.46390253887355976
-0.7959917738224951,-0.7959917738224951
-0.9078914073378973,-0.9078914073378973
-0.9078914073378973,-0.9078914073378973
-0.9078914073378973,-0.9078914073378973
-0.7598951178497848,-0.7598951178497848
-0.7237984618770744,-0.7237984618770744
-0.4278058829008494,-0.4278058829008494
0.3482722205124234,0.3482722205124234
1.0485473463830044,1.0485473463830044
1.2362499574410983,1.2362499574410983
1.788528793823567,1.788528793823567
2.120618028772502,2.120618028772502
2.56460689723684,2.56460689723684
2.308320639830596,2.308320639830596
1.680238825905436,1.680238825905436
1.5322425364173233,1.5322425364173233
1.788528793823567,1.788528793823567
1.2723466134138086,1.2723466134138086
0.9041607224921631,0.9041607224921631
0.4204655324578441,0.4204655324578441
-0.09571664795191406,-0.09571664795191406
-0.7598951178497848,-0.7598951178497848
-0.8356980953924765,-0.8356980953924765
-0.7237984618770744,-0.7237984618770744
-0.6479954843343826,-0.6479954843343826
-0.8356980953924765,-0.8356980953924765
-0.9439880633106076,-0.9439880633106076
-1.1316906743687014,-1.1316906743687014
-1.167787330341412,-1.167787330341412
-1.3518802758022348,-1.3518802758022348
-1.463779909317637,-1.463779909317637
-1.4240735877476554,-1.4240735877476554
-1.68396951075117,-1.68396951075117
-1.759772488293862,-1.759772488293862
-1.7958691442665722,-1.7958691442665722
-1.9077687777819743,-1.9077687777819743
-1.8319658002392825,-1.8319658002392825
-1.759772488293862,-1.759772488293862
-1.5359732212630577,-1.5359732212630577
-1.4240735877476554,-1.4240735877476554
-1.2038839863141222,-1.2038839863141222
-0.7959917738224951,-0.7959917738224951
-0.7959917738224951,-0.7959917738224951
-0.6118988283616723,-0.6118988283616723
-0.5758021723889619,-0.5758021723889619
-0.5397055164162515,-0.5397055164162515
-0.6118988283616723,-0.6118988283616723
-0.4278058829008494,-0.4278058829008494
-0.39170922692813903,-0.39170922692813903
-0.31590624938544726,-0.31590624938544726
-0.5036088604435411,-0.5036088604435411
-0.39170922692813903,-0.39170922692813903
-0.3556125709554287,-0.3556125709554287
-0.24371293744002656,-0.24371293744002656
-0.2076162814673162,-0.2076162814673162
-0.39170922692813903,-0.39170922692813903
0.16417927505160054,0.16417927505160054
0.7561644330040506,0.7561644330040506
1.0124506904102941,1.0124506904102941
1.3084432693865191,1.3084432693865191
1.492536214847342,1.492536214847342
1.9365250833116794,1.9365250833116794
2.1603243503424836,2.1603243503424836
1.3445399253592294,1.3445399253592294
0.5323651659732462,0.5323651659732462
0.4962685100005359,0.4962685100005359
0.3843688764851338,0.3843688764851338
0.3482722205124234,0.3482722205124234
0.4601718540278255,0.4601718540278255
0.016182985563488062,0.016182985563488062
-0.5397055164162515,-0.5397055164162515
-0.8717947513651869,-0.8717947513651869
-0.9078914073378973,-0.9078914073378973
-0.8717947513651869,-0.8717947513651869
-1.0558876968260098,-1.0558876968260098
-0.983694384880589,-0.983694384880589
-1.0558876968260098,-1.0558876968260098
-1.3518802758022348,-1.3518802758022348
-1.6117761988057493,-1.6117761988057493
-1.572069877235768,-1.572069877235768
-1.759772488293862,-1.759772488293862
-1.979962089727395,-1.979962089727395
-2.052155401672816,-2.052155401672816
-1.9438654337546848,-1.9438654337546848
-1.7200661667238804,-1.7200661667238804
-1.6478728547784598,-1.6478728547784598
-1.4998765652903472,-1.4998765652903472
-1.276077298259543,-1.276077298259543
-1.0197910408532993,-1.0197910408532993
-0.7598951178497848,-0.7598951178497848
-0.31590624938544726,-0.31590624938544726
-0.09571664795191406,-0.09571664795191406
0.4962685100005359,0.4962685100005359
0.6442647994886483,0.6442647994886483
0.2363725869970213,0.2363725869970213
0.27246924296973163,0.27246924296973163
-0.46390253887355976,-0.46390253887355976
-0.5758021723889619,-0.5758021723889619
-0.7237984618770744,-0.7237984618770744
-0.5397055164162515,-0.5397055164162515
-0.6118988283616723,-0.6118988283616723
-0.8356980953924765,-0.8356980953924765
-0.8717947513651869,-0.8717947513651869
-0.9078914073378973,-0.9078914073378973
-0.9439880633106076,-0.9439880633106076
-0.39170922692813903,-0.39170922692813903
0.31217556453971307,0.31217556453971307
0.8644544009221816,0.8644544009221816
1.4564395588746315,1.4564395588746315
2.120618028772502,2.120618028772502
2.6404098747795315,2.6404098747795315
2.9364024537557567,2.9364024537557567
2.3805139517760168,2.3805139517760168
1.4564395588746315,1.4564395588746315
0.9402573784648733,0.9402573784648733
0.5684618219459566,0.5684618219459566
0.7164581114340691,0.7164581114340691
1.0124506904102941,1.0124506904102941
0.8283577449494712,0.8283577449494712
0.05227964153619843,0.05227964153619843
-0.39170922692813903,-0.39170922692813903
-0.46390253887355976,-0.46390253887355976
-0.24371293744002656,-0.24371293744002656
-0.5036088604435411,-0.5036088604435411
-0.39170922692813903,-0.39170922692813903
-0.4278058829008494,-0.4278058829008494
-0.39170922692813903,-0.39170922692813903
-0.6479954843343826,-0.6479954843343826
-0.7598951178497848,-0.7598951178497848
-1.167787330341412,-1.167787330341412
-1.5359732212630577,-1.5359732212630577
-1.7958691442665722,-1.7958691442665722
-1.8319658002392825,-1.8319658002392825
-1.759772488293862,-1.759772488293862
-1.8319658002392825,-1.8319658002392825
-1.759772488293862,-1.759772488293862
-1.6117761988057493,-1.6117761988057493
-1.4240735877476554,-1.4240735877476554
-1.1316906743687014,-1.1316906743687014
-0.7237984618770744,-0.7237984618770744
-0.39170922692813903,-0.39170922692813903
-0.09571664795191406,-0.09571664795191406
-0.0199136704092223,-0.0199136704092223
0.16417927505160054,0.16417927505160054
0.2002759310243109,0.2002759310243109
0.2363725869970213,0.2363725869970213
0.12808261907889018,0.12808261907889018
0.16417927505160054,0.16417927505160054
0.12808261907889018,0.12808261907889018
0.31217556453971307,0.31217556453971307
0.4601718540278255,0.4601718540278255
0.6442647994886483,0.6442647994886483
0.8644544009221816,0.8644544009221816
1.7163354818781462,1.7163354818781462
2.308320639830596,2.308320639830596
2.788406164267644,2.788406164267644
3.376781656622823,3.376781656622823
4.192566081606078,4.192566081606078
4.820647895531238,4.820647895531238
4.672651606043125,4.672651606043125
3.8965735026298525,3.8965735026298525
3.6005809236536273,3.6005809236536273
3.084398743243869,3.084398743243869
2.7486998426976625,2.7486998426976625
2.308320639830596,2.308320639830596
1.604435848362744,1.604435848362744
0.5684618219459566,0.5684618219459566
-0.2798095934127369,-0.2798095934127369
-0.687701805904364,-0.687701805904364
-0.9078914073378973,-0.9078914073378973
-1.0558876968260098,-1.0558876968260098
-1.3157836198295243,-1.3157836198295243
-1.2399806422868327,-1.2399806422868327
-1.0558876968260098,-1.0558876968260098
-0.8356980953924765,-0.8356980953924765
-0.9078914073378973,-0.9078914073378973
-0.8356980953924765,-0.8356980953924765
-0.983694384880589,-0.983694384880589
-1.0558876968260098,-1.0558876968260098
-1.167787330341412,-1.167787330341412
-1.0558876968260098,-1.0558876968260098
-1.0558876968260098,-1.0558876968260098
-1.0558876968260098,-1.0558876968260098
-1.0558876968260098,-1.0558876968260098
-0.9439880633106076,-0.9439880633106076
-0.8717947513651869,-0.8717947513651869
-0.7237984618770744,-0.7237984618770744
-0.5397055164162515,-0.5397055164162515
-0.31590624938544726,-0.31590624938544726
-0.2076162814673162,-0.2076162814673162
-0.31590624938544726,-0.31590624938544726
-0.2076162814673162,-0.2076162814673162
-0.2798095934127369,-0.2798095934127369
0.12808261907889018,0.12808261907889018
0.27246924296973163,0.27246924296973163
0.4601718540278255,0.4601718540278255
0.5323651659732462,0.5323651659732462
0.7164581114340691,0.7164581114340691
0.6803614554613587,0.6803614554613587
0.7164581114340691,0.7164581114340691
0.4962685100005359,0.4962685100005359
0.4601718540278255,0.4601718540278255
0.3482722205124234,0.3482722205124234
0.31217556453971307,0.31217556453971307
0.05227964153619843,0.05227964153619843
-0.0199136704092223,-0.0199136704092223
0.016182985563488062,0.016182985563488062
-0.0199136704092223,-0.0199136704092223
0.016182985563488062,0.016182985563488062
0.4962685100005359,0.4962685100005359
1.1243503239256962,1.1243503239256962
1.680238825905436,1.680238825905436
2.2325176622879046,2.2325176622879046
2.4166106077487273,2.4166106077487273
2.788406164267644,2.788406164267644
2.60070355320955,2.60070355320955
1.9365250833116794,1.9365250833116794
1.196543635871117,1.196543635871117
1.0124506904102941,1.0124506904102941
0.7561644330040506,0.7561644330040506
0.6442647994886483,0.6442647994886483
0.4962685100005359,0.4962685100005359
0.12808261907889018,0.12808261907889018
-0.2798095934127369,-0.2798095934127369
-0.5397055164162515,-0.5397055164162515
-0.7598951178497848,-0.7598951178497848
-0.7237984618770744,-0.7237984618770744
-0.7959917738224951,-0.7959917738224951
-0.7598951178497848,-0.7598951178497848
-0.7237984618770744,-0.7237984618770744
-0.7598951178497848,-0.7598951178497848
-0.7237984618770744,-0.7237984618770744
-0.7959917738224951,-0.7959917738224951
-0.9439880633106076,-0.9439880633106076
-1.0558876968260098,-1.0558876968260098
-1.2038839863141222,-1.2038839863141222
-1.2399806422868327,-1.2399806422868327
-1.3157836198295243,-1.3157836198295243
-1.1316906743687014,-1.1316906743687014
-0.9439880633106076,-0.9439880633106076
-0.7598951178497848,-0.7598951178497848
-0.5397055164162515,-0.5397055164162515
-0.4278058829008494,-0.4278058829008494
-0.31590624938544726,-0.31590624938544726
-0.3556125709554287,-0.3556125709554287
-0.0199136704092223,-0.0199136704092223
0.12808261907889018,0.12808261907889018
0.2002759310243109,0.2002759310243109
0.16417927505160054,0.16417927505160054
0.2002759310243109,0.2002759310243109
0.12808261907889018,0.12808261907889018
0.16417927505160054,0.16417927505160054
0.12808261907889018,0.12808261907889018
0.12808261907889018,0.12808261907889018
-0.0199136704092223,-0.0199136704092223
0.016182985563488062,0.016182985563488062
-0.1679099598973348,-0.1679099598973348
-0.2076162814673162,-0.2076162814673162
-0.31590624938544726,-0.31590624938544726
-0.2798095934127369,-0.2798095934127369
-0.3556125709554287,-0.3556125709554287
-0.3556125709554287,-0.3556125709554287
-0.31590624938544726,-0.31590624938544726
-0.09571664795191406,-0.09571664795191406
-0.0199136704092223,-0.0199136704092223
-0.09571664795191406,-0.09571664795191406
0.4601718540278255,0.4601718540278255
0.9763540344375837,0.9763540344375837
1.8246254497962773,1.8246254497962773
2.60070355320955,2.60070355320955
3.524777946110935,3.524777946110935
3.6366775796263378,3.6366775796263378
0.7561644330040506,0.7561644330040506
-1.2038839863141222,-1.2038839863141222
-1.8319658002392825,-1.8319658002392825
-2.3481479806490406,-2.3481479806490406
-2.6080439036525553,-2.6080439036525553
-2.1279583792155075,-2.1279583792155075
-1.5359732212630577,-1.5359732212630577
-1.68396951075117,-1.68396951075117
-1.8319658002392825,-1.8319658002392825
-1.276077298259543,-1.276077298259543
-0.6479954843343826,-0.6479954843343826
-0.2798095934127369,-0.2798095934127369
-0.1679099598973348,-0.1679099598973348
-0.2076162814673162,-0.2076162814673162
-0.2076162814673162,-0.2076162814673162
-0.2798095934127369,-0.2798095934127369
-0.2076162814673162,-0.2076162814673162
-0.1679099598973348,-0.1679099598973348
-0.7237984618770744,-0.7237984618770744
-0.7598951178497848,-0.7598951178497848
-0.6479954843343826,-0.6479954843343826
-0.4278058829008494,-0.4278058829008494
-0.1679099598973348,-0.1679099598973348
0.12808261907889018,0.12808261907889018
0.27246924296973163,0.27246924296973163
0.7164581114340691,0.7164581114340691
0.9402573784648733,0.9402573784648733
1.196543635871117,1.196543635871117
1.196543635871117,1.196543635871117
1.3084432693865191,1.3084432693865191
1.196543635871117,1.196543635871117
1.196543635871117,1.196543635871117
0.9763540344375837,0.9763540344375837
0.9402573784648733,0.9402573784648733
0.8283577449494712,0.8283577449494712
0.6803614554613587,0.6803614554613587
0.4962685100005359,0.4962685100005359
0.4601718540278255,0.4601718540278255
0.3482722205124234,0.3482722205124234
0.27246924296973163,0.27246924296973163
0.4204655324578441,0.4204655324578441
0.3843688764851338,0.3843688764851338
0.4601718540278255,0.4601718540278255
0.3482722205124234,0.3482722205124234
0.6081681435159381,0.6081681435159381
0.6442647994886483,0.6442647994886483
0.7164581114340691,0.7164581114340691
0.6803614554613587,0.6803614554613587
0.7561644330040506,0.7561644330040506
0.6803614554613587,0.6803614554613587
0.7164581114340691,0.7164581114340691
0.6803614554613587,0.6803614554613587
0.7561644330040506,0.7561644330040506
0.8644544009221816,0.8644544009221816
1.4203429029019212,1.4203429029019212
1.6405325043354544,1.6405325043354544
2.3444172958033067,2.3444172958033067
2.5285102412641294,2.5285102412641294
3.416487978192804,3.416487978192804
3.5644842676809168,3.5644842676809168
2.60070355320955,2.60070355320955
1.5683391923900336,1.5683391923900336
1.492536214847342,1.492536214847342
1.1243503239256962,1.1243503239256962
1.0124506904102941,1.0124506904102941
0.9763540344375837,0.9763540344375837
0.8283577449494712,0.8283577449494712
0.31217556453971307,0.31217556453971307
-0.0596199919792037,-0.0596199919792037
-0.24371293744002656,-0.24371293744002656
-0.31590624938544726,-0.31590624938544726
-0.2076162814673162,-0.2076162814673162
-0.2798095934127369,-0.2798095934127369
-0.3556125709554287,-0.3556125709554287
-0.5036088604435411,-0.5036088604435411
-0.31590624938544726,-0.31590624938544726
-0.2798095934127369,-0.2798095934127369
-0.3556125709554287,-0.3556125709554287
-0.4278058829008494,-0.4278058829008494
-0.31590624938544726,-0.31590624938544726
-0.3556125709554287,-0.3556125709554287
-0.39170922692813903,-0.39170922692813903
-0.2076162814673162,-0.2076162814673162
-0.1679099598973348,-0.1679099598973348
-0.1679099598973348,-0.1679099598973348
-0.0199136704092223,-0.0199136704092223
0.05227964153619843,0.05227964153619843
0.12808261907889018,0.12808261907889018
0.016182985563488062,0.016182985563488062
0.016182985563488062,0.016182985563488062
-0.0596199919792037,-0.0596199919792037
-0.2798095934127369,-0.2798095934127369
-0.46390253887355976,-0.46390253887355976
-0.687701805904364,-0.687701805904364
-0.9078914073378973,-0.9078914073378973
-1.1316906743687014,-1.1316906743687014
-1.387976931774945,-1.387976931774945
-1.2399806422868327,-1.2399806422868327
-0.6479954843343826,-0.6479954843343826
-0.2076162814673162,-0.2076162814673162
0.016182985563488062,0.016182985563488062
0.16417927505160054,0.16417927505160054
0.4601718540278255,0.4601718540278255
0.6081681435159381,0.6081681435159381
-0.09571664795191406,-0.09571664795191406
-0.9439880633106076,-0.9439880633106076
-1.0197910408532993,-1.0197910408532993
-1.1316906743687014,-1.1316906743687014
-0.8717947513651869,-0.8717947513651869
-0.687701805904364,-0.687701805904364
-0.9078914073378973,-0.9078914073378973
-1.09198435279872,-1.09198435279872
-1.0558876968260098,-1.0558876968260098
-1.2038839863141222,-1.2038839863141222
-1.2399806422868327,-1.2399806422868327
-1.2399806422868327,-1.2399806422868327
-1.1316906743687014,-1.1316906743687014
-1.0197910408532993,-1.0197910408532993
-0.8717947513651869,-0.8717947513651869
-0.8356980953924765,-0.8356980953924765
-0.7598951178497848,-0.7598951178497848
-0.687701805904364,-0.687701805904364
-0.7237984618770744,-0.7237984618770744
-0.687701805904364,-0.687701805904364
-0.7237984618770744,-0.7237984618770744
-0.5397055164162515,-0.5397055164162515
-0.4278058829008494,-0.4278058829008494
-0.2076162814673162,-0.2076162814673162
0.016182985563488062,0.016182985563488062
0.2363725869970213,0.2363725869970213
0.3482722205124234,0.3482722205124234
0.4601718540278255,0.4601718540278255
0.3843688764851338,0.3843688764851338
0.3843688764851338,0.3843688764851338
0.31217556453971307,0.31217556453971307
0.3843688764851338,0.3843688764851338
0.3482722205124234,0.3482722205124234
0.4204655324578441,0.4204655324578441
0.5323651659732462,0.5323651659732462
0.4601718540278255,0.4601718540278255
0.31217556453971307,0.31217556453971307
0.2363725869970213,0.2363725869970213
0.27246924296973163,0.27246924296973163
0.0883762975089088,0.0883762975089088
0.16417927505160054,0.16417927505160054
0.5684618219459566,0.5684618219459566
1.4564395588746315,1.4564395588746315
1.5322425364173233,1.5322425364173233
1.900428427338969,1.900428427338969
2.1603243503424836,2.1603243503424836
2.676506530752242,2.676506530752242
2.4166106077487273,2.4166106077487273
1.6405325043354544,1.6405325043354544
0.7561644330040506,0.7561644330040506
0.7922610889767608,0.7922610889767608
0.5323651659732462,0.5323651659732462
0.7164581114340691,0.7164581114340691
0.8283577449494712,0.8283577449494712
0.16417927505160054,0.16417927505160054
-0.5036088604435411,-0.5036088604435411
-0.8717947513651869,-0.8717947513651869
-1.0197910408532993,-1.0197910408532993
-1.09198435279872,-1.09198435279872
-1.0558876968260098,-1.0558876968260098
-1.09198435279872,-1.09198435279872
-1.0558876968260098,-1.0558876968260098
-1.0197910408532993,-1.0197910408532993
-1.1316906743687014,-1.1316906743687014
-1.2038839863141222,-1.2038839863141222
-1.09198435279872,-1.09198435279872
-1.2038839863141222,-1.2038839863141222
-1.0558876968260098,-1.0558876968260098
-1.0197910408532993,-1.0197910408532993
-1.09198435279872,-1.09198435279872
-0.7598951178497848,-0.7598951178497848
-0.46390253887355976,-0.46390253887355976
-0.2076162814673162,-0.2076162814673162
-0.1679099598973348,-0.1679099598973348
0.0883762975089088,0.0883762975089088
0.16417927505160054,0.16417927505160054
0.2002759310243109,0.2002759310243109
0.3482722205124234,0.3482722205124234
0.4601718540278255,0.4601718540278255
0.4962685100005359,0.4962685100005359
0.31217556453971307,0.31217556453971307
0.4601718540278255,0.4601718540278255
0.2363725869970213,0.2363725869970213
0.16417927505160054,0.16417927505160054
0.2363725869970213,0.2363725869970213
0.27246924296973163,0.27246924296973163
0.2363725869970213,0.2363725869970213
0.16417927505160054,0.16417927505160054
0.3843688764851338,0.3843688764851338
0.27246924296973163,0.27246924296973163
0.2363725869970213,0.2363725869970213
0.31217556453971307,0.31217556453971307
0.3482722205124234,0.3482722205124234
0.16417927505160054,0.16417927505160054
0.016182985563488062,0.016182985563488062
-0.0199136704092223,-0.0199136704092223
-0.09571664795191406,-0.09571664795191406
-0.13181330392462443,-0.13181330392462443
0.05227964153619843,0.05227964153619843
0.5323651659732462,0.5323651659732462
1.0485473463830044,1.0485473463830044
1.4203429029019212,1.4203429029019212
2.4527072637214378,2.4527072637214378
2.8605994762130647,2.8605994762130647
3.376781656622823,3.376781656622823
3.0446924216738878,3.0446924216738878
2.308320639830596,2.308320639830596
1.5683391923900336,1.5683391923900336
1.3445399253592294,1.3445399253592294
1.1604469798984065,1.1604469798984065
0.7922610889767608,0.7922610889767608
0.4204655324578441,0.4204655324578441
-0.2798095934127369,-0.2798095934127369
-0.8717947513651869,-0.8717947513651869
-0.983694384880589,-0.983694384880589
-0.8717947513651869,-0.8717947513651869
-0.9078914073378973,-0.9078914073378973
-0.7598951178497848,-0.7598951178497848
-0.983694384880589,-0.983694384880589
-0.8717947513651869,-0.8717947513651869
-0.8356980953924765,-0.8356980953924765
-0.7598951178497848,-0.7598951178497848
-0.9078914073378973,-0.9078914073378973
-0.8717947513651869,-0.8717947513651869
-1.0197910408532993,-1.0197910408532993
-1.167787330341412,-1.167787330341412
-1.2038839863141222,-1.2038839863141222
-1.0558876968260098,-1.0558876968260098
-1.0197910408532993,-1.0197910408532993
-0.7959917738224951,-0.7959917738224951
-0.7598951178497848,-0.7598951178497848
-0.5397055164162515,-0.5397055164162515
-0.3556125709554287,-0.3556125709554287
-0.0596199919792037,-0.0596199919792037
0.16417927505160054,0.16417927505160054
0.4204655324578441,0.4204655324578441
0.6081681435159381,0.6081681435159381
0.7164581114340691,0.7164581114340691
0.8283577449494712,0.8283577449494712
0.8644544009221816,0.8644544009221816
0.8283577449494712,0.8283577449494712
0.6081681435159381,0.6081681435159381
0.4962685100005359,0.4962685100005359
0.4601718540278255,0.4601718540278255
0.4962685100005359,0.4962685100005359
0.3843688764851338,0.3843688764851338
0.4962685100005359,0.4962685100005359
0.8283577449494712,0.8283577449494712
1.5683391923900336,1.5683391923900336
1.7524321378508565,1.7524321378508565
2.120618028772502,2.120618028772502
2.3805139517760168,2.3805139517760168
2.896696132185775,2.896696132185775
2.308320639830596,2.308320639830596
1.604435848362744,1.604435848362744
1.3445399253592294,1.3445399253592294
1.2723466134138086,1.2723466134138086
1.2362499574410983,1.2362499574410983
1.3445399253592294,1.3445399253592294
1.196543635871117,1.196543635871117
0.6803614554613587,0.6803614554613587
0.16417927505160054,0.16417927505160054
-0.0596199919792037,-0.0596199919792037
-0.24371293744002656,-0.24371293744002656
-0.39170922692813903,-0.39170922692813903
-0.4278058829008494,-0.4278058829008494
-0.5758021723889619,-0.5758021723889619
-0.6479954843343826,-0.6479954843343826
-0.5397055164162515,-0.5397055164162515
-0.4278058829008494,-0.4278058829008494
-0.5036088604435411,-0.5036088604435411
-0.46390253887355976,-0.46390253887355976
-0.46390253887355976,-0.46390253887355976
-0.31590624938544726,-0.31590624938544726
-0.31590624938544726,-0.31590624938544726
-0.2076162814673162,-0.2076162814673162
-0.2076162814673162,-0.2076162814673162
0.05227964153619843,0.05227964153619843
0.16417927505160054,0.16417927505160054
0.31217556453971307,0.31217556453971307
0.4601718540278255,0.4601718540278255
0.6081681435159381,0.6081681435159381
0.5684618219459566,0.5684618219459566
0.5684618219459566,0.5684618219459566
0.4601718540278255,0.4601718540278255
0.31217556453971307,0.31217556453971307
0.16417927505160054,0.16417927505160054
0.16417927505160054,0.16417927505160054
0.2002759310243109,0.2002759310243109
0.27246924296973163,0.27246924296973163
0.31217556453971307,0.31217556453971307
0.3843688764851338,0.3843688764851338
0.4601718540278255,0.4601718540278255
0.3482722205124234,0.3482722205124234
0.8283577449494712,0.8283577449494712
1.492536214847342,1.492536214847342
2.012328060854371,2.012328060854371
2.084521372799792,2.084521372799792
2.56460689723684,2.56460689723684
3.0446924216738878,3.0446924216738878
3.6005809236536273,3.6005809236536273
3.6366775796263378,3.6366775796263378
3.0085957657011773,3.0085957657011773
2.676506530752242,2.676506530752242
1.8643317713662586,1.8643317713662586
0.7561644330040506,0.7561644330040506
0.0883762975089088,0.0883762975089088
-0.46390253887355976,-0.46390253887355976
-0.6479954843343826,-0.6479954843343826
-0.7237984618770744,-0.7237984618770744
-0.687701805904364,-0.687701805904364
-0.6479954843343826,-0.6479954843343826
-0.7959917738224951,-0.7959917738224951
-0.983694384880589,-0.983694384880589
-1.09198435279872,-1.09198435279872
-1.167787330341412,-1.167787330341412
-1.2399806422868327,-1.2399806422868327
-1.276077298259543,-1.276077298259543
-1.3518802758022348,-1.3518802758022348
-1.387976931774945,-1.387976931774945
-1.4998765652903472,-1.4998765652903472
-1.463779909317637,-1.463779909317637
-1.572069877235768,-1.572069877235768
-1.4240735877476554,-1.4240735877476554
-1.276077298259543,-1.276077298259543
-1.09198435279872,-1.09198435279872
-0.8356980953924765,-0.8356980953924765
-0.39170922692813903,-0.39170922692813903
-0.13181330392462443,-0.13181330392462443
0.16417927505160054,0.16417927505160054
0.31217556453971307,0.31217556453971307
0.3482722205124234,0.3482722205124234
0.31217556453971307,0.31217556453971307
0.3843688764851338,0.3843688764851338
0.31217556453971307,0.31217556453971307
0.3482722205124234,0.3482722205124234
0.3843688764851338,0.3843688764851338
0.3482722205124234,0.3482722205124234
0.4601718540278255,0.4601718540278255
0.31217556453971307,0.31217556453971307
0.31217556453971307,0.31217556453971307
0.27246924296973163,0.27246924296973163
0.31217556453971307,0.31217556453971307
0.2002759310243109,0.2002759310243109
0.2002759310243109,0.2002759310243109
0.16417927505160054,0.16417927505160054
0.2002759310243109,0.2002759310243109
0.2363725869970213,0.2363725869970213
0.3843688764851338,0.3843688764851338
0.3482722205124234,0.3482722205124234
0.31217556453971307,0.31217556453971307
0.27246924296973163,0.27246924296973163
0.3482722205124234,0.3482722205124234
0.31217556453971307,0.31217556453971307
0.31217556453971307,0.31217556453971307
0.2363725869970213,0.2363725869970213
0.27246924296973163,0.27246924296973163
0.2363725869970213,0.2363725869970213
0.16417927505160054,0.16417927505160054
0.16417927505160054,0.16417927505160054
0.31217556453971307,0.31217556453971307
0.7164581114340691,0.7164581114340691
1.4203429029019212,1.4203429029019212
1.8643317713662586,1.8643317713662586
2.084521372799792,2.084521372799792
2.3444172958033067,2.3444172958033067
2.676506530752242,2.676506530752242
2.824502820240354,2.824502820240354
2.196421006315194,2.196421006315194
1.3445399253592294,1.3445399253592294
1.1604469798984065,1.1604469798984065
0.8644544009221816,0.8644544009221816
0.6081681435159381,0.6081681435159381
0.6442647994886483,0.6442647994886483
0.31217556453971307,0.31217556453971307
-0.2798095934127369,-0.2798095934127369
-0.7237984618770744,-0.7237984618770744
-0.7237984618770744,-0.7237984618770744
-0.7598951178497848,-0.7598951178497848
-0.7598951178497848,-0.7598951178497848
-0.8356980953924765,-0.8356980953924765
-0.7237984618770744,-0.7237984618770744
-0.7237984618770744,-0.7237984618770744
-0.7237984618770744,-0.7237984618770744
-0.7237984618770744,-0.7237984618770744
-0.5758021723889619,-0.5758021723889619
-0.5397055164162515,-0.5397055164162515
-0.8356980953924765,-0.8356980953924765
-0.9078914073378973,-0.9078914073378973
-1.0197910408532993,-1.0197910408532993
-1.0197910408532993,-1.0197910408532993
-0.9439880633106076,-0.9439880633106076
-0.7959917738224951,-0.7959917738224951
-0.687701805904364,-0.687701805904364
-0.5397055164162515,-0.5397055164162515
-0.3556125709554287,-0.3556125709554287
-0.09571664795191406,-0.09571664795191406
-0.0199136704092223,-0.0199136704092223
0.05227964153619843,0.05227964153619843
0.05227964153619843,0.05227964153619843
0.12808261907889018,0.12808261907889018
0.16417927505160054,0.16417927505160054
0.27246924296973163,0.27246924296973163
0.31217556453971307,0.31217556453971307
0.3843688764851338,0.3843688764851338
0.2363725869970213,0.2363725869970213
0.2002759310243109,0.2002759310243109
0.12808261907889018,0.12808261907889018
0.0883762975089088,0.0883762975089088
-0.0199136704092223,-0.0199136704092223
-0.0199136704092223,-0.0199136704092223
-0.0596199919792037,-0.0596199919792037
-0.0199136704092223,-0.0199136704092223
0.016182985563488062,0.016182985563488062
0.05227964153619843,0.05227964153619843
0.0883762975089088,0.0883762975089088
-0.0199136704092223,-0.0199136704092223
0.016182985563488062,0.016182985563488062
-0.0199136704092223,-0.0199136704092223
0.016182985563488062,0.016182985563488062
0.3482722205124234,0.3482722205124234
1.0124506904102941,1.0124506904102941
1.4564395588746315,1.4564395588746315
1.6405325043354544,1.6405325043354544
1.8643317713662586,1.8643317713662586
2.1603243503424836,2.1603243503424836
2.308320639830596,2.308320639830596
1.604435848362744,1.604435848362744
0.7164581114340691,0.7164581114340691
0.5323651659732462,0.5323651659732462
0.5684618219459566,0.5684618219459566
0.5323651659732462,0.5323651659732462
0.5684618219459566,0.5684618219459566
0.4204655324578441,0.4204655324578441
-0.13181330392462443,-0.13181330392462443
-0.5397055164162515,-0.5397055164162515
-0.687701805904364,-0.687701805904364
-0.7237984618770744,-0.7237984618770744
-0.687701805904364,-0.687701805904364
-0.6118988283616723,-0.6118988283616723
-0.5397055164162515,-0.5397055164162515
-0.687701805904364,-0.687701805904364
-0.7237984618770744,-0.7237984618770744
-0.8717947513651869,-0.8717947513651869
-0.9078914073378973,-0.9078914073378973
-1.0558876968260098,-1.0558876968260098
-1.0558876968260098,-1.0558876968260098
-1.0197910408532993,-1.0197910408532993
-0.983694384880589,-0.983694384880589
-1.0558876968260098,-1.0558876968260098
-0.983694384880589,-0.983694384880589
-0.7959917738224951,-0.7959917738224951
-0.5397055164162515,-0.5397055164162515
-0.31590624938544726,-0.31590624938544726
-0.09571664795191406,-0.09571664795191406
0.05227964153619843,0.05227964153619843
0.16417927505160054,0.16417927505160054
0.12808261907889018,0.12808261907889018
0.16417927505160054,0.16417927505160054
0.16417927505160054,0.16417927505160054
0.16417927505160054,0.16417927505160054
0.05227964153619843,0.05227964153619843
-0.13181330392462443,-0.13181330392462443
-0.3556125709554287,-0.3556125709554287
-0.39170922692813903,-0.39170922692813903
-0.13181330392462443,-0.13181330392462443
0.05227964153619843,0.05227964153619843
0.6081681435159381,0.6081681435159381
1.2362499574410983,1.2362499574410983
1.3445399253592294,1.3445399253592294
1.6405325043354544,1.6405325043354544
1.8643317713662586,1.8643317713662586
2.1603243503424836,2.1603243503424836
1.604435848362744,1.604435848362744
0.7561644330040506,0.7561644330040506
0.4962685100005359,0.4962685100005359
0.3482722205124234,0.3482722205124234
0.5323651659732462,0.5323651659732462
0.6442647994886483,0.6442647994886483
0.6803614554613587,0.6803614554613587
-0.09571664795191406,-0.09571664795191406
-0.5758021723889619,-0.5758021723889619
-0.9439880633106076,-0.9439880633106076
-1.0197910408532993,-1.0197910408532993
-1.0558876968260098,-1.0558876968260098
-1.0197910408532993,-1.0197910408532993
-0.9439880633106076,-0.9439880633106076
-0.7598951178497848,-0.7598951178497848
-0.7237984618770744,-0.7237984618770744
-0.7959917738224951,-0.7959917738224951
-0.7598951178497848,-0.7598951178497848
-0.8717947513651869,-0.8717947513651869
-0.8717947513651869,-0.8717947513651869
-0.7237984618770744,-0.7237984618770744
-0.687701805904364,-0.687701805904364
-0.8717947513651869,-0.8717947513651869
-0.7959917738224951,-0.7959917738224951
-0.6118988283616723,-0.6118988283616723
-0.4278058829008494,-0.4278058829008494
-0.31590624938544726,-0.31590624938544726
-0.2076162814673162,-0.2076162814673162
-0.0596199919792037,-0.0596199919792037
-0.13181330392462443,-0.13181330392462443
-0.2076162814673162,-0.2076162814673162
-0.31590624938544726,-0.31590624938544726
-0.46390253887355976,-0.46390253887355976
-0.4278058829008494,-0.4278058829008494
-0.24371293744002656,-0.24371293744002656
-0.0596199919792037,-0.0596199919792037
-0.0199136704092223,-0.0199136704092223
-0.0199136704092223,-0.0199136704092223
0.016182985563488062,0.016182985563488062
0.31217556453971307,0.31217556453971307
0.9041607224921631,0.9041607224921631
1.5322425364173233,1.5322425364173233
1.7163354818781462,1.7163354818781462
1.9726217392843899,1.9726217392843899
2.2686143182606147,2.2686143182606147
2.7486998426976625,2.7486998426976625
2.3444172958033067,2.3444172958033067
1.4203429029019212,1.4203429029019212
1.196543635871117,1.196543635871117
0.9402573784648733,0.9402573784648733
0.9763540344375837,0.9763540344375837
0.7561644330040506,0.7561644330040506
0.5323651659732462,0.5323651659732462
-0.13181330392462443,-0.13181330392462443
-0.687701805904364,-0.687701805904364
-0.8356980953924765,-0.8356980953924765
-1.0197910408532993,-1.0197910408532993
-1.0197910408532993,-1.0197910408532993
-1.0558876968260098,-1.0558876968260098
-0.9439880633106076,-0.9439880633106076
-1.09198435279872,-1.09198435279872
-1.1316906743687014,-1.1316906743687014
-1.3518802758022348,-1.3518802758022348
-1.276077298259543,-1.276077298259543
-1.3157836198295243,-1.3157836198295243
-1.463779909317637,-1.463779909317637
-1.572069877235768,-1.572069877235768
-1.6478728547784598,-1.6478728547784598
-1.4240735877476554,-1.4240735877476554
-1.2038839863141222,-1.2038839863141222
-1.09198435279872,-1.09198435279872
-0.8717947513651869,-0.8717947513651869
-0.5397055164162515,-0.5397055164162515
-0.2076162814673162,-0.2076162814673162
0.016182985563488062,0.016182985563488062
0.2363725869970213,0.2363725869970213
0.05227964153619843,0.05227964153619843
0.2002759310243109,0.2002759310243109
0.2002759310243109,0.2002759310243109
0.12808261907889018,0.12808261907889018
-0.09571664795191406,-0.09571664795191406
-0.2076162814673162,-0.2076162814673162
-0.13181330392462443,-0.13181330392462443
-0.2076162814673162,-0.2076162814673162
-0.1679099598973348,-0.1679099598973348
-0.2076162814673162,-0.2076162814673162
-0.2076162814673162,-0.2076162814673162
-0.13181330392462443,-0.13181330392462443
-0.2798095934127369,-0.2798095934127369
-0.09571664795191406,-0.09571664795191406
-0.0199136704092223,-0.0199136704092223
-0.09571664795191406,-0.09571664795191406
0.0883762975089088,0.0883762975089088
-0.0596199919792037,-0.0596199919792037
0.16417927505160054,0.16417927505160054
0.016182985563488062,0.016182985563488062
0.12808261907889018,0.12808261907889018
-0.0199136704092223,-0.0199136704092223
0.4962685100005359,0.4962685100005359
1.088253667952986,1.088253667952986
1.680238825905436,1.680238825905436
1.8643317713662586,1.8643317713662586
2.5285102412641294,2.5285102412641294
2.896696132185775,2.896696132185775
3.268491688704692,3.268491688704692
2.9364024537557567,2.9364024537557567
1.9726217392843899,1.9726217392843899
1.5322425364173233,1.5322425364173233
1.3084432693865191,1.3084432693865191
1.0485473463830044,1.0485473463830044
0.9402573784648733,0.9402573784648733
0.4601718540278255,0.4601718540278255
-0.13181330392462443,-0.13181330392462443
-0.687701805904364,-0.687701805904364
-0.7959917738224951,-0.7959917738224951
-0.8717947513651869,-0.8717947513651869
-0.8356980953924765,-0.8356980953924765
-0.9078914073378973,-0.9078914073378973
-0.8717947513651869,-0.8717947513651869
-1.0197910408532993,-1.0197910408532993
-1.1316906743687014,-1.1316906743687014
-1.2038839863141222,-1.2038839863141222
-1.2399806422868327,-1.2399806422868327
-1.2038839863141222,-1.2038839863141222
-1.2038839863141222,-1.2038839863141222
-1.167787330341412,-1.167787330341412
-1.2399806422868327,-1.2399806422868327
-1.2038839863141222,-1.2038839863141222
-1.2399806422868327,-1.2399806422868327
-0.983694384880589,-0.983694384880589
-0.7959917738224951,-0.7959917738224951
-0.5758021723889619,-0.5758021723889619
-0.46390253887355976,-0.46390253887355976
-0.2076162814673162,-0.2076162814673162
-0.0596199919792037,-0.0596199919792037
0.12808261907889018,0.12808261907889018
0.16417927505160054,0.16417927505160054
0.12808261907889018,0.12808261907889018
-0.0199136704092223,-0.0199136704092223
0.016182985563488062,0.016182985563488062
0.16417927505160054,0.16417927505160054
0.16417927505160054,0.16417927505160054
0.12808261907889018,0.12808261907889018
0.0883762975089088,0.0883762975089088
0.016182985563488062,0.016182985563488062
0.12808261907889018,0.12808261907889018
0.4601718540278255,0.4601718540278255
0.9041607224921631,0.9041607224921631
1.788528793823567,1.788528793823567
2.6404098747795315,2.6404098747795315
3.7485772131417403,3.7485772131417403
2.56460689723684,2.56460689723684
0.05227964153619843,0.05227964153619843
-0.8356980953924765,-0.8356980953924765
-1.4998765652903472,-1.4998765652903472
-2.052155401672816,-2.052155401672816
-2.0918617232427974,-2.0918617232427974
-1.463779909317637,-1.463779909317637
-0.5758021723889619,-0.5758021723889619
-0.39170922692813903,-0.39170922692813903
-0.2798095934127369,-0.2798095934127369
-0.2798095934127369,-0.2798095934127369
-0.24371293744002656,-0.24371293744002656
-0.3556125709554287,-0.3556125709554287
-0.39170922692813903,-0.39170922692813903
-0.31590624938544726,-0.31590624938544726
-0.3556125709554287,-0.3556125709554287
-0.39170922692813903,-0.39170922692813903
-0.46390253887355976,-0.46390253887355976
-0.39170922692813903,-0.39170922692813903
-0.31590624938544726,-0.31590624938544726
-0.1679099598973348,-0.1679099598973348
0.016182985563488062,0.016182985563488062
0.27246924296973163,0.27246924296973163
0.4962685100005359,0.4962685100005359
0.7922610889767608,0.7922610889767608
1.0485473463830044,1.0485473463830044
1.3084432693865191,1.3084432693865191
1.2723466134138086,1.2723466134138086
1.196543635871117,1.196543635871117
1.0124506904102941,1.0124506904102941
0.8283577449494712,0.8283577449494712
0.5684618219459566,0.5684618219459566
0.4204655324578441,0.4204655324578441
0.2363725869970213,0.2363725869970213
0.0883762975089088,0.0883762975089088
-0.13181330392462443,-0.13181330392462443
-0.2076162814673162,-0.2076162814673162
-0.31590624938544726,-0.31590624938544726
-0.2798095934127369,-0.2798095934127369
-0.24371293744002656,-0.24371293744002656
-0.2076162814673162,-0.2076162814673162
-0.2076162814673162,-0.2076162814673162
-0.24371293744002656,-0.24371293744002656
-0.0596199919792037,-0.0596199919792037
-0.09571664795191406,-0.09571664795191406
-0.0199136704092223,-0.0199136704092223
-0.0199136704092223,-0.0199136704092223
-0.0199136704092223,-0.0199136704092223
-0.0199136704092223,-0.0199136704092223
0.016182985563488062,0.016182985563488062
-0.0199136704092223,-0.0199136704092223
0.016182985563488062,0.016182985563488062
-0.0596199919792037,-0.0596199919792037
-0.0199136704092223,-0.0199136704092223
-0.09571664795191406,-0.09571664795191406
-0.09571664795191406,-0.09571664795191406
-0.2076162814673162,-0.2076162814673162
-0.1679099598973348,-0.1679099598973348
-0.13181330392462443,-0.13181330392462443
-0.0596199919792037,-0.0596199919792037
0.2002759310243109,0.2002759310243109
0.9041607224921631,0.9041607224921631
1.4203429029019212,1.4203429029019212
1.7163354818781462,1.7163354818781462
2.2325176622879046,2.2325176622879046
2.4527072637214378,2.4527072637214378
2.676506530752242,2.676506530752242
2.0484247168270815,2.0484247168270815
1.196543635871117,1.196543635871117
0.7561644330040506,0.7561644330040506
0.4962685100005359,0.4962685100005359
0.31217556453971307,0.31217556453971307
0.2363725869970213,0.2363725869970213
-0.0199136704092223,-0.0199136704092223
-0.5036088604435411,-0.5036088604435411
-1.0197910408532993,-1.0197910408532993
-1.0558876968260098,-1.0558876968260098
-1.0558876968260098,-1.0558876968260098
-1.0197910408532993,-1.0197910408532993
-1.0558876968260098,-1.0558876968260098
-0.983694384880589,-0.983694384880589
-1.1316906743687014,-1.1316906743687014
-1.0558876968260098,-1.0558876968260098
-1.09198435279872,-1.09198435279872
-1.09198435279872,-1.09198435279872
-1.167787330341412,-1.167787330341412
-1.2038839863141222,-1.2038839863141222
-1.2399806422868327,-1.2399806422868327
-1.2399806422868327,-1.2399806422868327
-1.2399806422868327,-1.2399806422868327
-1.276077298259543,-1.276077298259543
-1.167787330341412,-1.167787330341412
-1.0558876968260098,-1.0558876968260098
-0.9078914073378973,-0.9078914073378973
-0.7598951178497848,-0.7598951178497848
-0.5397055164162515,-0.5397055164162515
-0.24371293744002656,-0.24371293744002656
-0.0199136704092223,-0.0199136704092223
-0.0199136704092223,-0.0199136704092223
-0.0199136704092223,-0.0199136704092223
-0.0199136704092223,-0.0199136704092223
0.0883762975089088,0.0883762975089088
0.016182985563488062,0.016182985563488062
0.0883762975089088,0.0883762975089088
0.05227964153619843,0.05227964153619843
0.0883762975089088,0.0883762975089088
0.016182985563488062,0.016182985563488062
-0.0199136704092223,-0.0199136704092223
-0.0596199919792037,-0.0596199919792037
-0.13181330392462443,-0.13181330392462443
-0.24371293744002656,-0.24371293744002656
-0.2798095934127369,-0.2798095934127369
-0.3556125709554287,-0.3556125709554287
-0.2076162814673162,-0.2076162814673162
-0.1679099598973348,-0.1679099598973348
-0.13181330392462443,-0.13181330392462443
0.16417927505160054,0.16417927505160054
0.8644544009221816,0.8644544009221816
1.2362499574410983,1.2362499574410983
1.5683391923900336,1.5683391923900336
1.8246254497962773,1.8246254497962773
2.012328060854371,2.012328060854371
2.120618028772502,2.120618028772502
1.384246246929211,1.384246246929211
0.5684618219459566,0.5684618219459566
0.4962685100005359,0.4962685100005359
0.4601718540278255,0.4601718540278255
0.3843688764851338,0.3843688764851338
0.4204655324578441,0.4204655324578441
0.016182985563488062,0.016182985563488062
-0.4278058829008494,-0.4278058829008494
-0.687701805904364,-0.687701805904364
-0.6479954843343826,-0.6479954843343826
-0.7959917738224951,-0.7959917738224951
-0.8717947513651869,-0.8717947513651869
-0.8356980953924765,-0.8356980953924765
-0.7598951178497848,-0.7598951178497848
-0.8356980953924765,-0.8356980953924765
-0.8717947513651869,-0.8717947513651869
-0.9439880633106076,-0.9439880633106076
-1.0558876968260098,-1.0558876968260098
-1.167787330341412,-1.167787330341412
-1.2038839863141222,-1.2038839863141222
-1.2399806422868327,-1.2399806422868327
-1.2399806422868327,-1.2399806422868327
-1.2038839863141222,-1.2038839863141222
-1.0558876968260098,-1.0558876968260098
-0.8717947513651869,-0.8717947513651869
-0.6479954843343826,-0.6479954843343826
-0.46390253887355976,-0.46390253887355976
-0.4278058829008494,-0.4278058829008494
-0.3556125709554287,-0.3556125709554287
-0.13181330392462443,-0.13181330392462443
0.0883762975089088,0.0883762975089088
0.016182985563488062,0.016182985563488062
0.05227964153619843,0.05227964153619843
0.016182985563488062,0.016182985563488062
0.016182985563488062,0.016182985563488062
-0.0596199919792037,-0.0596199919792037
-0.0596199919792037,-0.0596199919792037
-0.1679099598973348,-0.1679099598973348
-0.0596199919792037,-0.0596199919792037
-0.1679099598973348,-0.1679099598973348
-0.2076162814673162,-0.2076162814673162
0.0883762975089088,0.0883762975089088
0.7922610889767608,0.7922610889767608
1.196543635871117,1.196543635871117
1.1243503239256962,1.1243503239256962
1.3084432693865191,1.3084432693865191
1.7163354818781462,1.7163354818781462
2.012328060854371,2.012328060854371
1.4203429029019212,1.4203429029019212
0.5684618219459566,0.5684618219459566
0.31217556453971307,0.31217556453971307
0.12808261907889018,0.12808261907889018
0.2363725869970213,0.2363725869970213
0.4601718540278255,0.4601718540278255
0.31217556453971307,0.31217556453971307
-0.2076162814673162,-0.2076162814673162
-0.5758021723889619,-0.5758021723889619
-0.687701805904364,-0.687701805904364
-0.7237984618770744,-0.7237984618770744
-0.8356980953924765,-0.8356980953924765
-0.8717947513651869,-0.8717947513651869
-0.7959917738224951,-0.7959917738224951
-1.0197910408532993,-1.0197910408532993
-1.09198435279872,-1.09198435279872
-1.167787330341412,-1.167787330341412
-1.2038839863141222,-1.2038839863141222
-1.3157836198295243,-1.3157836198295243
-1.276077298259543,-1.276077298259543
-1.276077298259543,-1.276077298259543
-1.2399806422868327,-1.2399806422868327
-1.1316906743687014,-1.1316906743687014
-0.8717947513651869,-0.8717947513651869
-0.7237984618770744,-0.7237984618770744
-0.5397055164162515,-0.5397055164162515
-0.2798095934127369,-0.2798095934127369
-0.13181330392462443,-0.13181330392462443
-0.0199136704092223,-0.0199136704092223
-0.0199136704092223,-0.0199136704092223
0.0883762975089088,0.0883762975089088
0.05227964153619843,0.05227964153619843
-0.0596199919792037,-0.0596199919792037
-0.2076162814673162,-0.2076162814673162
-0.2076162814673162,-0.2076162814673162
-0.1679099598973348,-0.1679099598973348
-0.1679099598973348,-0.1679099598973348
-0.2798095934127369,-0.2798095934127369
-0.31590624938544726,-0.31590624938544726
-0.39170922692813903,-0.39170922692813903
-0.24371293744002656,-0.24371293744002656
-0.2076162814673162,-0.2076162814673162
-0.09571664795191406,-0.09571664795191406
-0.0199136704092223,-0.0199136704092223
-0.0199136704092223,-0.0199136704092223
-0.0199136704092223,-0.0199136704092223
-0.0199136704092223,-0.0199136704092223
0.05227964153619843,0.05227964153619843
-0.0199136704092223,-0.0199136704092223
-0.09571664795191406,-0.09571664795191406
-0.1679099598973348,-0.1679099598973348
-0.24371293744002656,-0.24371293744002656
-0.4278058829008494,-0.4278058829008494
-0.4278058829008494,-0.4278058829008494
-0.39170922692813903,-0.39170922692813903
-0.3556125709554287,-0.3556125709554287
-0.39170922692813903,-0.39170922692813903
-0.3556125709554287,-0.3556125709554287
-0.39170922692813903,-0.39170922692813903
-0.13181330392462443,-0.13181330392462443
0.27246924296973163,0.27246924296973163
1.1243503239256962,1.1243503239256962
1.5683391923900336,1.5683391923900336
1.788528793823567,1.788528793823567
2.120618028772502,2.120618028772502
2.3805139517760168,2.3805139517760168
2.4527072637214378,2.4527072637214378
1.6405325043354544,1.6405325043354544
0.7561644330040506,0.7561644330040506
0.5684618219459566,0.5684618219459566
0.3482722205124234,0.3482722205124234
0.2002759310243109,0.2002759310243109
0.3482722205124234,0.3482722205124234
0.2002759310243109,0.2002759310243109
-0.31590624938544726,-0.31590624938544726
-0.7598951178497848,-0.7598951178497848
-0.9078914073378973,-0.9078914073378973
-1.0558876968260098,-1.0558876968260098
-1.09198435279872,-1.09198435279872
-1.167787330341412,-1.167787330341412
-1.1316906743687014,-1.1316906743687014
-1.2038839863141222,-1.2038839863141222
-1.2399806422868327,-1.2399806422868327
-1.3157836198295243,-1.3157836198295243
-1.09198435279872,-1.09198435279872
-1.4240735877476554,-1.4240735877476554
-1.463779909317637,-1.463779909317637
-1.3157836198295243,-1.3157836198295243
-1.4998765652903472,-1.4998765652903472
-1.387976931774945,-1.387976931774945
-1.2399806422868327,-1.2399806422868327
-1.167787330341412,-1.167787330341412
-0.9078914073378973,-0.9078914073378973
-0.7598951178497848,-0.7598951178497848
-0.5397055164162515,-0.5397055164162515
-0.24371293744002656,-0.24371293744002656
-0.0596199919792037,-0.0596199919792037
-0.13181330392462443,-0.13181330392462443
-0.1679099598973348,-0.1679099598973348
0.12808261907889018,0.12808261907889018
0.16417927505160054,0.16417927505160054
0.12808261907889018,0.12808261907889018
-0.0199136704092223,-0.0199136704092223
