ECG,PPG
-0.6983558536821122,-0.6983558536821122
-0.6983558536821122,-0.6983558536821122
-0.6983558536821122,-0.6983558536821122
-0.498498060075941,-0.498498060075941
-0.5694153416781379,-0.5694153416781379
-0.3695575480719675,-0.3695575480719675
-0.498498060075941,-0.498498060075941
-0.30508729206997337,-0.30508729206997337
-0.3695575480719675,-0.3695575480719675
-0.30508729206997337,-0.30508729206997337
-0.3695575480719675,-0.3695575480719675
-0.43402780407394764,-0.43402780407394764
-0.040759242461809654,-0.040759242461809654
1.6741495671911633,1.6741495671911633
3.7887739640564644,3.7887739640564644
4.117572269666622,4.117572269666622
0.8876124439668608,0.8876124439668608
-0.9626839032902766,-0.9626839032902766
-1.2914822089004345,-1.2914822089004345
-1.6202805145105923,-1.6202805145105923
-1.1625416968964601,-1.1625416968964601
-0.6338855976801312,-0.6338855976801312
-0.3695575480719675,-0.3695575480719675
-0.30508729206997337,-0.30508729206997337
-0.10522949846380301,-0.10522949846380301
-0.16969975446578317,-0.16969975446578317
-0.040759242461809654,-0.040759242461809654
0.09462829514236812,0.09462829514236812
0.28803906314834815,0.28803906314834815
0.28803906314834815,0.28803906314834815
0.4234266007525259,0.4234266007525259
0.22356880714635483,0.22356880714635483
0.28803906314834815,0.28803906314834815
-0.040759242461809654,-0.040759242461809654
-0.040759242461809654,-0.040759242461809654
-0.10522949846380301,-0.10522949846380301
-0.040759242461809654,-0.040759242461809654
-0.040759242461809654,-0.040759242461809654
0.09462829514236812,0.09462829514236812
0.09462829514236812,0.09462829514236812
0.28803906314834815,0.28803906314834815
0.48789685675451927,0.48789685675451927
0.8166951623646771,0.8166951623646771
0.9520826999688542,0.9520826999688542
1.3453512615810053,1.3453512615810053
1.480738799185183,1.480738799185183
1.8740073607973342,1.8740073607973342
2.0093948984015113,2.0093948984015113
2.138335410405498,2.138335410405498
2.202805666407492,2.202805666407492
2.0738651544035056,2.0738651544035056
1.7450668487933476,1.7450668487933476
1.280881005579012,1.280881005579012
0.5523671127565126,0.5523671127565126
-0.040759242461809654,-0.040759242461809654
-0.498498060075941,-0.498498060075941
-0.8337433912863024,-0.8337433912863024
-1.02715415929227,-1.02715415929227
-1.2270119528984404,-1.2270119528984404
-1.0916244152942634,-1.0916244152942634
-1.2914822089004345,-1.2914822089004345
-0.8982136472882957,-0.8982136472882957
-0.8982136472882957,-0.8982136472882957
-0.7628261096841055,-0.7628261096841055
-0.8337433912863024,-0.8337433912863024
-0.6338855976801312,-0.6338855976801312
-0.5694153416781379,-0.5694153416781379
-0.3695575480719675,-0.3695575480719675
-0.3695575480719675,-0.3695575480719675
-0.23417001046777652,-0.23417001046777652
-0.16969975446578317,-0.16969975446578317
-0.23417001046777652,-0.23417001046777652
-0.498498060075941,-0.498498060075941
-0.6338855976801312,-0.6338855976801312
-0.7628261096841055,-0.7628261096841055
0.5523671127565126,0.5523671127565126
2.802379047226004,2.802379047226004
3.7243037080544847,3.7243037080544847
1.6741495671911633,1.6741495671911633
-1.6202805145105923,-1.6202805145105923
-1.8846085641187564,-1.8846085641187564
-1.3559524649024277,-1.3559524649024277
-0.8982136472882957,-0.8982136472882957
-0.9626839032902766,-0.9626839032902766
-0.498498060075941,-0.498498060075941
-0.5694153416781379,-0.5694153416781379
-0.43402780407394764,-0.43402780407394764
-0.5694153416781379,-0.5694153416781379
-0.43402780407394764,-0.43402780407394764
-0.6983558536821122,-0.6983558536821122
-0.6983558536821122,-0.6983558536821122
-0.6983558536821122,-0.6983558536821122
-0.3695575480719675,-0.3695575480719675
-0.3695575480719675,-0.3695575480719675
-0.3695575480719675,-0.3695575480719675
-0.3695575480719675,-0.3695575480719675
-0.23417001046777652,-0.23417001046777652
-0.10522949846380301,-0.10522949846380301
0.09462829514236812,0.09462829514236812
0.15909855114436147,0.15909855114436147
0.35895634475053184,0.35895634475053184
0.5523671127565126,0.5523671127565126
0.8166951623646771,0.8166951623646771
0.9520826999688542,0.9520826999688542
1.0810232119728416,1.0810232119728416
1.2164107495770187,1.2164107495770187
1.0810232119728416,1.0810232119728416
1.480738799185183,1.480738799185183
1.416268543183189,1.416268543183189
1.480738799185183,1.480738799185183
1.280881005579012,1.280881005579012
1.1519404935750253,1.1519404935750253
0.6232843943586963,0.6232843943586963
0.35895634475053184,0.35895634475053184
-0.040759242461809654,-0.040759242461809654
-0.23417001046777652,-0.23417001046777652
-0.43402780407394764,-0.43402780407394764
-0.3695575480719675,-0.3695575480719675
-0.43402780407394764,-0.43402780407394764
-0.498498060075941,-0.498498060075941
-0.43402780407394764,-0.43402780407394764
-0.6983558536821122,-0.6983558536821122
-0.8337433912863024,-0.8337433912863024
-0.6338855976801312,-0.6338855976801312
-0.5694153416781379,-0.5694153416781379
-0.7628261096841055,-0.7628261096841055
-0.6983558536821122,-0.6983558536821122
-0.9626839032902766,-0.9626839032902766
-1.1625416968964601,-1.1625416968964601
-1.02715415929227,-1.02715415929227
-0.9626839032902766,-0.9626839032902766
-1.0916244152942634,-1.0916244152942634
-0.8982136472882957,-0.8982136472882957
-0.8337433912863024,-0.8337433912863024
-0.7628261096841055,-0.7628261096841055
-0.6983558536821122,-0.6983558536821122
-0.498498060075941,-0.498498060075941
-0.3695575480719675,-0.3695575480719675
-0.30508729206997337,-0.30508729206997337
-0.23417001046777652,-0.23417001046777652
-0.040759242461809654,-0.040759242461809654
-0.3695575480719675,-0.3695575480719675
-0.30508729206997337,-0.30508729206997337
-0.43402780407394764,-0.43402780407394764
-0.498498060075941,-0.498498060075941
-0.6983558536821122,-0.6983558536821122
-0.7628261096841055,-0.7628261096841055
-0.6338855976801312,-0.6338855976801312
-0.7628261096841055,-0.7628261096841055
-0.6338855976801312,-0.6338855976801312
-0.498498060075941,-0.498498060075941
-0.5694153416781379,-0.5694153416781379
-0.498498060075941,-0.498498060075941
-0.5694153416781379,-0.5694153416781379
-0.6983558536821122,-0.6983558536821122
-0.6983558536821122,-0.6983558536821122
-0.6983558536821122,-0.6983558536821122
-0.3695575480719675,-0.3695575480719675
-0.30508729206997337,-0.30508729206997337
-0.16969975446578317,-0.16969975446578317
-0.16969975446578317,-0.16969975446578317
-0.040759242461809654,-0.040759242461809654
-0.10522949846380301,-0.10522949846380301
-0.10522949846380301,-0.10522949846380301
-0.23417001046777652,-0.23417001046777652
-0.040759242461809654,-0.040759242461809654
-0.30508729206997337,-0.30508729206997337
-0.30508729206997337,-0.30508729206997337
-0.498498060075941,-0.498498060075941
-0.5694153416781379,-0.5694153416781379
-0.43402780407394764,-0.43402780407394764
-0.498498060075941,-0.498498060075941
-0.30508729206997337,-0.30508729206997337
-0.3695575480719675,-0.3695575480719675
-0.23417001046777652,-0.23417001046777652
-0.3695575480719675,-0.3695575480719675
-0.23417001046777652,-0.23417001046777652
-0.10522949846380301,-0.10522949846380301
0.09462829514236812,0.09462829514236812
0.35895634475053184,0.35895634475053184
0.48789685675451927,0.48789685675451927
0.28803906314834815,0.28803906314834815
0.35895634475053184,0.35895634475053184
-0.040759242461809654,-0.040759242461809654
0.6232843943586963,0.6232843943586963
2.731461765623821,2.731461765623821
4.2529598072708135,4.2529598072708135
2.995789815231985,2.995789815231985
0.48789685675451927,0.48789685675451927
-0.3695575480719675,-0.3695575480719675
-0.8337433912863024,-0.8337433912863024
-1.2270119528984404,-1.2270119528984404
-0.6983558536821122,-0.6983558536821122
-0.498498060075941,-0.498498060075941
-0.3695575480719675,-0.3695575480719675
-0.3695575480719675,-0.3695575480719675
-0.23417001046777652,-0.23417001046777652
-0.040759242461809654,-0.040759242461809654
-0.040759242461809654,-0.040759242461809654
0.15909855114436147,0.15909855114436147
0.22356880714635483,0.22356880714635483
0.28803906314834815,0.28803906314834815
0.09462829514236812,0.09462829514236812
0.22356880714635483,0.22356880714635483
-0.040759242461809654,-0.040759242461809654
0.030158039140387206,0.030158039140387206
-0.040759242461809654,-0.040759242461809654
0.09462829514236812,0.09462829514236812
0.28803906314834815,0.28803906314834815
0.35895634475053184,0.35895634475053184
0.4234266007525259,0.4234266007525259
0.5523671127565126,0.5523671127565126
0.5523671127565126,0.5523671127565126
0.7522249063626838,0.7522249063626838
0.8166951623646771,0.8166951623646771
1.0810232119728416,1.0810232119728416
1.2164107495770187,1.2164107495770187
1.480738799185183,1.480738799185183
1.5452090551871764,1.5452090551871764
1.8095371047953401,1.8095371047953401
1.8095371047953401,1.8095371047953401
1.8740073607973342,1.8740073607973342
1.6096793111891705,1.6096793111891705
1.280881005579012,1.280881005579012
0.8876124439668608,0.8876124439668608
0.5523671127565126,0.5523671127565126
0.22356880714635483,0.22356880714635483
-0.040759242461809654,-0.040759242461809654
-0.30508729206997337,-0.30508729206997337
-0.498498060075941,-0.498498060075941
-0.6983558536821122,-0.6983558536821122
-0.7628261096841055,-0.7628261096841055
-0.6338855976801312,-0.6338855976801312
-0.6338855976801312,-0.6338855976801312
-0.3695575480719675,-0.3695575480719675
-0.43402780407394764,-0.43402780407394764
-0.16969975446578317,-0.16969975446578317
-0.23417001046777652,-0.23417001046777652
-0.040759242461809654,-0.040759242461809654
-0.16969975446578317,-0.16969975446578317
-0.16969975446578317,-0.16969975446578317
-0.3695575480719675,-0.3695575480719675
-0.10522949846380301,-0.10522949846380301
-0.040759242461809654,-0.040759242461809654
-0.16969975446578317,-0.16969975446578317
-0.3695575480719675,-0.3695575480719675
-0.30508729206997337,-0.30508729206997337
-0.43402780407394764,-0.43402780407394764
-0.43402780407394764,-0.43402780407394764
-0.5694153416781379,-0.5694153416781379
-0.6338855976801312,-0.6338855976801312
-0.498498060075941,-0.498498060075941
-0.43402780407394764,-0.43402780407394764
-0.498498060075941,-0.498498060075941
-0.5694153416781379,-0.5694153416781379
-0.3695575480719675,-0.3695575480719675
-0.3695575480719675,-0.3695575480719675
-0.30508729206997337,-0.30508729206997337
-0.43402780407394764,-0.43402780407394764
-0.3695575480719675,-0.3695575480719675
-0.5694153416781379,-0.5694153416781379
-0.43402780407394764,-0.43402780407394764
-0.498498060075941,-0.498498060075941
-0.30508729206997337,-0.30508729206997337
-0.43402780407394764,-0.43402780407394764
-0.3695575480719675,-0.3695575480719675
-0.498498060075941,-0.498498060075941
-0.5694153416781379,-0.5694153416781379
-0.6983558536821122,-0.6983558536821122
-0.5694153416781379,-0.5694153416781379
-0.6338855976801312,-0.6338855976801312
-0.30508729206997337,-0.30508729206997337
-0.16969975446578317,-0.16969975446578317
-0.30508729206997337,-0.30508729206997337
-0.16969975446578317,-0.16969975446578317
-0.3695575480719675,-0.3695575480719675
-0.3695575480719675,-0.3695575480719675
-0.23417001046777652,-0.23417001046777652
-0.16969975446578317,-0.16969975446578317
-0.30508729206997337,-0.30508729206997337
-0.498498060075941,-0.498498060075941
-0.5694153416781379,-0.5694153416781379
1.8740073607973342,1.8740073607973342
4.117572269666622,4.117572269666622
4.581758112880959,4.581758112880959
1.5452090551871764,1.5452090551871764
-0.6338855976801312,-0.6338855976801312
-0.9626839032902766,-0.9626839032902766
-0.9626839032902766,-0.9626839032902766
-0.6338855976801312,-0.6338855976801312
-0.30508729206997337,-0.30508729206997337
-0.10522949846380301,-0.10522949846380301
-0.040759242461809654,-0.040759242461809654
-0.3695575480719675,-0.3695575480719675
-0.30508729206997337,-0.30508729206997337
-0.23417001046777652,-0.23417001046777652
-0.040759242461809654,-0.040759242461809654
-0.16969975446578317,-0.16969975446578317
-0.040759242461809654,-0.040759242461809654
-0.10522949846380301,-0.10522949846380301
-0.040759242461809654,-0.040759242461809654
-0.040759242461809654,-0.040759242461809654
0.09462829514236812,0.09462829514236812
0.15909855114436147,0.15909855114436147
0.030158039140387206,0.030158039140387206
0.28803906314834815,0.28803906314834815
0.35895634475053184,0.35895634475053184
0.6877546503606897,0.6877546503606897
0.8166951623646771,0.8166951623646771
0.9520826999688542,0.9520826999688542
0.8166951623646771,0.8166951623646771
1.1519404935750253,1.1519404935750253
1.3453512615810053,1.3453512615810053
1.7450668487933476,1.7450668487933476
1.7450668487933476,1.7450668487933476
1.8740073607973342,1.8740073607973342
1.8095371047953401,1.8095371047953401
1.9384776167993283,1.9384776167993283
1.8740073607973342,1.8740073607973342
1.8740073607973342,1.8740073607973342
1.480738799185183,1.480738799185183
1.2164107495770187,1.2164107495770187
0.6232843943586963,0.6232843943586963
0.09462829514236812,0.09462829514236812
-0.30508729206997337,-0.30508729206997337
-0.3695575480719675,-0.3695575480719675
-0.30508729206997337,-0.30508729206997337
-0.3695575480719675,-0.3695575480719675
-0.5694153416781379,-0.5694153416781379
-0.6338855976801312,-0.6338855976801312
-0.498498060075941,-0.498498060075941
-0.6338855976801312,-0.6338855976801312
-0.5694153416781379,-0.5694153416781379
-0.6983558536821122,-0.6983558536821122
-0.6338855976801312,-0.6338855976801312
-0.8337433912863024,-0.8337433912863024
-0.8337433912863024,-0.8337433912863024
-0.8982136472882957,-0.8982136472882957
-0.7628261096841055,-0.7628261096841055
-0.8337433912863024,-0.8337433912863024
-0.7628261096841055,-0.7628261096841055
-0.8337433912863024,-0.8337433912863024
-0.6338855976801312,-0.6338855976801312
-0.5694153416781379,-0.5694153416781379
-0.3695575480719675,-0.3695575480719675
-0.6983558536821122,-0.6983558536821122
-0.6983558536821122,-0.6983558536821122
-0.6983558536821122,-0.6983558536821122
-0.7628261096841055,-0.7628261096841055
-0.6983558536821122,-0.6983558536821122
-0.498498060075941,-0.498498060075941
-0.43402780407394764,-0.43402780407394764
-0.5694153416781379,-0.5694153416781379
-0.6338855976801312,-0.6338855976801312
-0.6983558536821122,-0.6983558536821122
-0.6338855976801312,-0.6338855976801312
-0.7628261096841055,-0.7628261096841055
-0.6983558536821122,-0.6983558536821122
-0.8982136472882957,-0.8982136472882957
-0.7628261096841055,-0.7628261096841055
-0.8982136472882957,-0.8982136472882957
-0.43402780407394764,-0.43402780407394764
-0.6338855976801312,-0.6338855976801312
-0.498498060075941,-0.498498060075941
-0.6338855976801312,-0.6338855976801312
-0.43402780407394764,-0.43402780407394764
-0.498498060075941,-0.498498060075941
-0.30508729206997337,-0.30508729206997337
-0.3695575480719675,-0.3695575480719675
-0.3695575480719675,-0.3695575480719675
-0.43402780407394764,-0.43402780407394764
-0.43402780407394764,-0.43402780407394764
-0.5694153416781379,-0.5694153416781379
-0.43402780407394764,-0.43402780407394764
-0.6983558536821122,-0.6983558536821122
-0.6983558536821122,-0.6983558536821122
-0.7628261096841055,-0.7628261096841055
-0.7628261096841055,-0.7628261096841055
-0.6983558536821122,-0.6983558536821122
-0.8337433912863024,-0.8337433912863024
-0.6983558536821122,-0.6983558536821122
-0.43402780407394764,-0.43402780407394764
-0.23417001046777652,-0.23417001046777652
-0.16969975446578317,-0.16969975446578317
-0.040759242461809654,-0.040759242461809654
-0.040759242461809654,-0.040759242461809654
0.09462829514236812,0.09462829514236812
-0.10522949846380301,-0.10522949846380301
-0.040759242461809654,-0.040759242461809654
-0.6338855976801312,-0.6338855976801312
0.030158039140387206,0.030158039140387206
2.0093948984015113,2.0093948984015113
4.18848955126882,4.18848955126882
4.381900319274787,4.381900319274787
0.8166951623646771,0.8166951623646771
-1.4268697465046247,-1.4268697465046247
-1.4913400025066048,-1.4913400025066048
-1.2914822089004345,-1.2914822089004345
-0.5694153416781379,-0.5694153416781379
-0.23417001046777652,-0.23417001046777652
0.030158039140387206,0.030158039140387206
0.09462829514236812,0.09462829514236812
0.15909855114436147,0.15909855114436147
-0.040759242461809654,-0.040759242461809654
-0.16969975446578317,-0.16969975446578317
-0.040759242461809654,-0.040759242461809654
-0.10522949846380301,-0.10522949846380301
0.030158039140387206,0.030158039140387206
-0.040759242461809654,-0.040759242461809654
-0.040759242461809654,-0.040759242461809654
-0.10522949846380301,-0.10522949846380301
-0.040759242461809654,-0.040759242461809654
-0.10522949846380301,-0.10522949846380301
0.15909855114436147,0.15909855114436147
0.28803906314834815,0.28803906314834815
0.4234266007525259,0.4234266007525259
0.48789685675451927,0.48789685675451927
0.7522249063626838,0.7522249063626838
0.8166951623646771,0.8166951623646771
1.0165529559708475,1.0165529559708475
1.0810232119728416,1.0810232119728416
1.2164107495770187,1.2164107495770187
1.2164107495770187,1.2164107495770187
1.1519404935750253,1.1519404935750253
1.2164107495770187,1.2164107495770187
1.6741495671911633,1.6741495671911633
1.8740073607973342,1.8740073607973342
2.138335410405498,2.138335410405498
2.202805666407492,2.202805666407492
2.0093948984015113,2.0093948984015113
1.6741495671911633,1.6741495671911633
1.1519404935750253,1.1519404935750253
0.6232843943586963,0.6232843943586963
0.22356880714635483,0.22356880714635483
-0.040759242461809654,-0.040759242461809654
-0.3695575480719675,-0.3695575480719675
-0.498498060075941,-0.498498060075941
-0.6983558536821122,-0.6983558536821122
-0.6338855976801312,-0.6338855976801312
-0.6983558536821122,-0.6983558536821122
-0.6338855976801312,-0.6338855976801312
-0.8982136472882957,-0.8982136472882957
-0.8337433912863024,-0.8337433912863024
-0.8982136472882957,-0.8982136472882957
-0.6983558536821122,-0.6983558536821122
-0.6983558536821122,-0.6983558536821122
-0.5694153416781379,-0.5694153416781379
-0.6983558536821122,-0.6983558536821122
-0.5694153416781379,-0.5694153416781379
-0.6983558536821122,-0.6983558536821122
-0.6983558536821122,-0.6983558536821122
-0.43402780407394764,-0.43402780407394764
-0.3695575480719675,-0.3695575480719675
-0.6338855976801312,-0.6338855976801312
-0.7628261096841055,-0.7628261096841055
-0.6983558536821122,-0.6983558536821122
-0.6983558536821122,-0.6983558536821122
-0.5694153416781379,-0.5694153416781379
-0.6983558536821122,-0.6983558536821122
-0.8337433912863024,-0.8337433912863024
-0.9626839032902766,-0.9626839032902766
-0.8982136472882957,-0.8982136472882957
-0.7628261096841055,-0.7628261096841055
-0.5694153416781379,-0.5694153416781379
-0.43402780407394764,-0.43402780407394764
-0.16969975446578317,-0.16969975446578317
-0.23417001046777652,-0.23417001046777652
-0.16969975446578317,-0.16969975446578317
-0.10522949846380301,-0.10522949846380301
-0.040759242461809654,-0.040759242461809654
-0.3695575480719675,-0.3695575480719675
-0.3695575480719675,-0.3695575480719675
-0.5694153416781379,-0.5694153416781379
-0.5694153416781379,-0.5694153416781379
-0.6983558536821122,-0.6983558536821122
-0.6338855976801312,-0.6338855976801312
-0.7628261096841055,-0.7628261096841055
-0.8337433912863024,-0.8337433912863024
-1.02715415929227,-1.02715415929227
-1.1625416968964601,-1.1625416968964601
-0.9626839032902766,-0.9626839032902766
-0.7628261096841055,-0.7628261096841055
-0.6338855976801312,-0.6338855976801312
-0.5694153416781379,-0.5694153416781379
-0.30508729206997337,-0.30508729206997337
-0.16969975446578317,-0.16969975446578317
0.09462829514236812,0.09462829514236812
0.28803906314834815,0.28803906314834815
0.22356880714635483,0.22356880714635483
-0.040759242461809654,-0.040759242461809654
-0.3695575480719675,-0.3695575480719675
0.35895634475053184,0.35895634475053184
2.802379047226004,2.802379047226004
4.517287856878977,4.517287856878977
3.3245881208421295,3.3245881208421295
-0.040759242461809654,-0.040759242461809654
-1.6202805145105923,-1.6202805145105923
-1.8846085641187564,-1.8846085641187564
-1.5558102585085982,-1.5558102585085982
-0.9626839032902766,-0.9626839032902766
-0.6983558536821122,-0.6983558536821122
-0.5694153416781379,-0.5694153416781379
-0.3695575480719675,-0.3695575480719675
-0.23417001046777652,-0.23417001046777652
-0.040759242461809654,-0.040759242461809654
0.28803906314834815,0.28803906314834815
0.28803906314834815,0.28803906314834815
0.28803906314834815,0.28803906314834815
0.4234266007525259,0.4234266007525259
0.6232843943586963,0.6232843943586963
0.48789685675451927,0.48789685675451927
0.5523671127565126,0.5523671127565126
0.35895634475053184,0.35895634475053184
0.22356880714635483,0.22356880714635483
-0.040759242461809654,-0.040759242461809654
0.030158039140387206,0.030158039140387206
0.030158039140387206,0.030158039140387206
0.22356880714635483,0.22356880714635483
0.35895634475053184,0.35895634475053184
0.5523671127565126,0.5523671127565126
0.6877546503606897,0.6877546503606897
0.9520826999688542,0.9520826999688542
1.1519404935750253,1.1519404935750253
1.6741495671911633,1.6741495671911633
1.8740073607973342,1.8740073607973342
2.0738651544035056,2.0738651544035056
2.202805666407492,2.202805666407492
2.4671337160156557,2.4671337160156557
2.731461765623821,2.731461765623821
2.5380509976178405,2.5380509976178405
2.0093948984015113,2.0093948984015113
1.416268543183189,1.416268543183189
0.6232843943586963,0.6232843943586963
-0.040759242461809654,-0.040759242461809654
-0.43402780407394764,-0.43402780407394764
-0.7628261096841055,-0.7628261096841055
-0.9626839032902766,-0.9626839032902766
-0.9626839032902766,-0.9626839032902766
-0.8982136472882957,-0.8982136472882957
-0.9626839032902766,-0.9626839032902766
-0.9626839032902766,-0.9626839032902766
-0.9626839032902766,-0.9626839032902766
-0.6338855976801312,-0.6338855976801312
-0.6983558536821122,-0.6983558536821122
-0.5694153416781379,-0.5694153416781379
-0.6983558536821122,-0.6983558536821122
-0.6983558536821122,-0.6983558536821122
-0.7628261096841055,-0.7628261096841055
-0.5694153416781379,-0.5694153416781379
-0.7628261096841055,-0.7628261096841055
-0.7628261096841055,-0.7628261096841055
-0.8337433912863024,-0.8337433912863024
-0.6983558536821122,-0.6983558536821122
-0.7628261096841055,-0.7628261096841055
-0.6983558536821122,-0.6983558536821122
-0.6983558536821122,-0.6983558536821122
-0.6983558536821122,-0.6983558536821122
-0.6983558536821122,-0.6983558536821122
-0.6983558536821122,-0.6983558536821122
-0.5694153416781379,-0.5694153416781379
-0.498498060075941,-0.498498060075941
-0.3695575480719675,-0.3695575480719675
-0.5694153416781379,-0.5694153416781379
-0.6983558536821122,-0.6983558536821122
-0.7628261096841055,-0.7628261096841055
-0.6983558536821122,-0.6983558536821122
-0.9626839032902766,-0.9626839032902766
-0.8982136472882957,-0.8982136472882957
-0.8337433912863024,-0.8337433912863024
-0.8337433912863024,-0.8337433912863024
-0.8337433912863024,-0.8337433912863024
-0.7628261096841055,-0.7628261096841055
-0.7628261096841055,-0.7628261096841055
-0.6338855976801312,-0.6338855976801312
-0.6983558536821122,-0.6983558536821122
-0.5694153416781379,-0.5694153416781379
-0.498498060075941,-0.498498060075941
-0.5694153416781379,-0.5694153416781379
-0.43402780407394764,-0.43402780407394764
-0.6983558536821122,-0.6983558536821122
-0.3695575480719675,-0.3695575480719675
-0.3695575480719675,-0.3695575480719675
-0.5694153416781379,-0.5694153416781379
-0.6983558536821122,-0.6983558536821122
-0.5694153416781379,-0.5694153416781379
-0.6338855976801312,-0.6338855976801312
-0.30508729206997337,-0.30508729206997337
-0.3695575480719675,-0.3695575480719675
-0.3695575480719675,-0.3695575480719675
-0.498498060075941,-0.498498060075941
-0.43402780407394764,-0.43402780407394764
-0.6983558536821122,-0.6983558536821122
-0.498498060075941,-0.498498060075941
-0.498498060075941,-0.498498060075941
-0.43402780407394764,-0.43402780407394764
-0.3695575480719675,-0.3695575480719675
-0.16969975446578317,-0.16969975446578317
-0.6338855976801312,-0.6338855976801312
-0.8337433912863024,-0.8337433912863024
0.6877546503606897,0.6877546503606897
2.995789815231985,2.995789815231985
4.18848955126882,4.18848955126882
2.402663460013663,2.402663460013663
-0.16969975446578317,-0.16969975446578317
-0.8982136472882957,-0.8982136472882957
-1.0916244152942634,-1.0916244152942634
-0.7628261096841055,-0.7628261096841055
-0.3695575480719675,-0.3695575480719675
-0.23417001046777652,-0.23417001046777652
-0.10522949846380301,-0.10522949846380301
-0.23417001046777652,-0.23417001046777652
-0.040759242461809654,-0.040759242461809654
-0.16969975446578317,-0.16969975446578317
-0.10522949846380301,-0.10522949846380301
-0.23417001046777652,-0.23417001046777652
0.15909855114436147,0.15909855114436147
0.030158039140387206,0.030158039140387206
0.09462829514236812,0.09462829514236812
0.030158039140387206,0.030158039140387206
0.28803906314834815,0.28803906314834815
0.28803906314834815,0.28803906314834815
0.48789685675451927,0.48789685675451927
0.15909855114436147,0.15909855114436147
0.28803906314834815,0.28803906314834815
0.4234266007525259,0.4234266007525259
0.35895634475053184,0.35895634475053184
0.5523671127565126,0.5523671127565126
0.48789685675451927,0.48789685675451927
0.6232843943586963,0.6232843943586963
0.9520826999688542,0.9520826999688542
1.0810232119728416,1.0810232119728416
1.0165529559708475,1.0165529559708475
1.5452090551871764,1.5452090551871764
1.7450668487933476,1.7450668487933476
1.8740073607973342,1.8740073607973342
2.0093948984015113,2.0093948984015113
2.138335410405498,2.138335410405498
2.0093948984015113,2.0093948984015113
1.8095371047953401,1.8095371047953401
1.3453512615810053,1.3453512615810053
0.8876124439668608,0.8876124439668608
0.22356880714635483,0.22356880714635483
-0.040759242461809654,-0.040759242461809654
-0.30508729206997337,-0.30508729206997337
-0.43402780407394764,-0.43402780407394764
-0.5694153416781379,-0.5694153416781379
-0.6338855976801312,-0.6338855976801312
-0.6983558536821122,-0.6983558536821122
-0.498498060075941,-0.498498060075941
-0.6338855976801312,-0.6338855976801312
-0.5694153416781379,-0.5694153416781379
-0.6983558536821122,-0.6983558536821122
-0.6983558536821122,-0.6983558536821122
-0.5694153416781379,-0.5694153416781379
-0.6338855976801312,-0.6338855976801312
-0.43402780407394764,-0.43402780407394764
-0.498498060075941,-0.498498060075941
-0.43402780407394764,-0.43402780407394764
-0.5694153416781379,-0.5694153416781379
-0.43402780407394764,-0.43402780407394764
-0.6338855976801312,-0.6338855976801312
-0.6983558536821122,-0.6983558536821122
-0.7628261096841055,-0.7628261096841055
-0.6983558536821122,-0.6983558536821122
-0.8337433912863024,-0.8337433912863024
-0.6983558536821122,-0.6983558536821122
-0.6983558536821122,-0.6983558536821122
-0.6338855976801312,-0.6338855976801312
-0.8337433912863024,-0.8337433912863024
-0.498498060075941,-0.498498060075941
-0.5694153416781379,-0.5694153416781379
-0.3695575480719675,-0.3695575480719675
-0.3695575480719675,-0.3695575480719675
-0.30508729206997337,-0.30508729206997337
-0.43402780407394764,-0.43402780407394764
-0.5694153416781379,-0.5694153416781379
-0.6983558536821122,-0.6983558536821122
-0.6338855976801312,-0.6338855976801312
-0.5694153416781379,-0.5694153416781379
-0.498498060075941,-0.498498060075941
-0.498498060075941,-0.498498060075941
-0.5694153416781379,-0.5694153416781379
-0.30508729206997337,-0.30508729206997337
-0.16969975446578317,-0.16969975446578317
-0.040759242461809654,-0.040759242461809654
-0.30508729206997337,-0.30508729206997337
-0.16969975446578317,-0.16969975446578317
-0.3695575480719675,-0.3695575480719675
-0.43402780407394764,-0.43402780407394764
-0.5694153416781379,-0.5694153416781379
-0.23417001046777652,-0.23417001046777652
-0.43402780407394764,-0.43402780407394764
-0.498498060075941,-0.498498060075941
-0.6338855976801312,-0.6338855976801312
-0.5694153416781379,-0.5694153416781379
-0.6338855976801312,-0.6338855976801312
-0.498498060075941,-0.498498060075941
-0.6338855976801312,-0.6338855976801312
-0.498498060075941,-0.498498060075941
-0.3695575480719675,-0.3695575480719675
-0.16969975446578317,-0.16969975446578317
-0.040759242461809654,-0.040759242461809654
-0.040759242461809654,-0.040759242461809654
0.09462829514236812,0.09462829514236812
0.22356880714635483,0.22356880714635483
0.28803906314834815,0.28803906314834815
0.15909855114436147,0.15909855114436147
0.28803906314834815,0.28803906314834815
-0.040759242461809654,-0.040759242461809654
0.030158039140387206,0.030158039140387206
-0.30508729206997337,-0.30508729206997337
-0.6338855976801312,-0.6338855976801312
-0.8982136472882957,-0.8982136472882957
-0.7628261096841055,-0.7628261096841055
-0.7628261096841055,-0.7628261096841055
-0.6338855976801312,-0.6338855976801312
-0.498498060075941,-0.498498060075941
-0.43402780407394764,-0.43402780407394764
-0.5694153416781379,-0.5694153416781379
-0.23417001046777652,-0.23417001046777652
-0.16969975446578317,-0.16969975446578317
0.15909855114436147,0.15909855114436147
0.09462829514236812,0.09462829514236812
0.35895634475053184,0.35895634475053184
0.28803906314834815,0.28803906314834815
0.28803906314834815,0.28803906314834815
0.030158039140387206,0.030158039140387206
-0.040759242461809654,-0.040759242461809654
-0.16969975446578317,-0.16969975446578317
-0.23417001046777652,-0.23417001046777652
-0.16969975446578317,-0.16969975446578317
-0.3695575480719675,-0.3695575480719675
-0.10522949846380301,-0.10522949846380301
-0.30508729206997337,-0.30508729206997337
-0.3695575480719675,-0.3695575480719675
-0.43402780407394764,-0.43402780407394764
-0.3695575480719675,-0.3695575480719675
-0.30508729206997337,-0.30508729206997337
-0.10522949846380301,-0.10522949846380301
-0.040759242461809654,-0.040759242461809654
0.030158039140387206,0.030158039140387206
0.030158039140387206,0.030158039140387206
0.28803906314834815,0.28803906314834815
0.15909855114436147,0.15909855114436147
0.030158039140387206,0.030158039140387206
-0.23417001046777652,-0.23417001046777652
-0.23417001046777652,-0.23417001046777652
-0.3695575480719675,-0.3695575480719675
-0.23417001046777652,-0.23417001046777652
-0.3695575480719675,-0.3695575480719675
-0.30508729206997337,-0.30508729206997337
-0.3695575480719675,-0.3695575480719675
-0.10522949846380301,-0.10522949846380301
-0.040759242461809654,-0.040759242461809654
0.030158039140387206,0.030158039140387206
0.09462829514236812,0.09462829514236812
-0.040759242461809654,-0.040759242461809654
0.15909855114436147,0.15909855114436147
0.28803906314834815,0.28803906314834815
0.48789685675451927,0.48789685675451927
0.09462829514236812,0.09462829514236812
1.3453512615810053,1.3453512615810053
3.659833452052491,3.659833452052491
5.110414212097286,5.110414212097286
3.3245881208421295,3.3245881208421295
0.5523671127565126,0.5523671127565126
-0.3695575480719675,-0.3695575480719675
-0.8982136472882957,-0.8982136472882957
-0.9626839032902766,-0.9626839032902766
-0.10522949846380301,-0.10522949846380301
-0.040759242461809654,-0.040759242461809654
0.15909855114436147,0.15909855114436147
-0.040759242461809654,-0.040759242461809654
0.030158039140387206,0.030158039140387206
0.030158039140387206,0.030158039140387206
0.28803906314834815,0.28803906314834815
0.35895634475053184,0.35895634475053184
0.48789685675451927,0.48789685675451927
0.5523671127565126,0.5523671127565126
0.48789685675451927,0.48789685675451927
0.6232843943586963,0.6232843943586963
0.5523671127565126,0.5523671127565126
0.5523671127565126,0.5523671127565126
0.35895634475053184,0.35895634475053184
0.35895634475053184,0.35895634475053184
0.28803906314834815,0.28803906314834815
0.5523671127565126,0.5523671127565126
0.48789685675451927,0.48789685675451927
0.6877546503606897,0.6877546503606897
0.7522249063626838,0.7522249063626838
1.0165529559708475,1.0165529559708475
0.8876124439668608,0.8876124439668608
1.0810232119728416,1.0810232119728416
1.1519404935750253,1.1519404935750253
1.480738799185183,1.480738799185183
1.5452090551871764,1.5452090551871764
1.9384776167993283,1.9384776167993283
2.138335410405498,2.138335410405498
2.4671337160156557,2.4671337160156557
2.402663460013663,2.402663460013663
2.666991509621827,2.666991509621827
2.402663460013663,2.402663460013663
2.0738651544035056,2.0738651544035056
1.416268543183189,1.416268543183189
0.7522249063626838,0.7522249063626838
0.22356880714635483,0.22356880714635483
-0.10522949846380301,-0.10522949846380301
-0.30508729206997337,-0.30508729206997337
-0.498498060075941,-0.498498060075941
-0.7628261096841055,-0.7628261096841055
-0.8337433912863024,-0.8337433912863024
-0.6983558536821122,-0.6983558536821122
-0.7628261096841055,-0.7628261096841055
-0.6983558536821122,-0.6983558536821122
-0.5694153416781379,-0.5694153416781379
-0.30508729206997337,-0.30508729206997337
-0.23417001046777652,-0.23417001046777652
-0.10522949846380301,-0.10522949846380301
-0.23417001046777652,-0.23417001046777652
-0.16969975446578317,-0.16969975446578317
-0.43402780407394764,-0.43402780407394764
-0.3695575480719675,-0.3695575480719675
-0.498498060075941,-0.498498060075941
-0.3695575480719675,-0.3695575480719675
-0.30508729206997337,-0.30508729206997337
-0.23417001046777652,-0.23417001046777652
-0.498498060075941,-0.498498060075941
-0.5694153416781379,-0.5694153416781379
-0.6983558536821122,-0.6983558536821122
-0.43402780407394764,-0.43402780407394764
-0.3695575480719675,-0.3695575480719675
-0.30508729206997337,-0.30508729206997337
-0.16969975446578317,-0.16969975446578317
-0.040759242461809654,-0.040759242461809654
-0.040759242461809654,-0.040759242461809654
-0.16969975446578317,-0.16969975446578317
-0.23417001046777652,-0.23417001046777652
-0.3695575480719675,-0.3695575480719675
-0.30508729206997337,-0.30508729206997337
-0.3695575480719675,-0.3695575480719675
-0.30508729206997337,-0.30508729206997337
-0.5694153416781379,-0.5694153416781379
-0.498498060075941,-0.498498060075941
-0.6338855976801312,-0.6338855976801312
-0.23417001046777652,-0.23417001046777652
-0.10522949846380301,-0.10522949846380301
0.030158039140387206,0.030158039140387206
-0.040759242461809654,-0.040759242461809654
0.030158039140387206,0.030158039140387206
-0.23417001046777652,-0.23417001046777652
-0.3695575480719675,-0.3695575480719675
-0.43402780407394764,-0.43402780407394764
-0.3695575480719675,-0.3695575480719675
-0.498498060075941,-0.498498060075941
-0.43402780407394764,-0.43402780407394764
-0.5694153416781379,-0.5694153416781379
-0.43402780407394764,-0.43402780407394764
-0.3695575480719675,-0.3695575480719675
-0.43402780407394764,-0.43402780407394764
-0.3695575480719675,-0.3695575480719675
-0.6983558536821122,-0.6983558536821122
-0.43402780407394764,-0.43402780407394764
-0.5694153416781379,-0.5694153416781379
-0.3695575480719675,-0.3695575480719675
1.1519404935750253,1.1519404935750253
3.7243037080544847,3.7243037080544847
4.846086162489122,4.846086162489122
2.9313195592299923,2.9313195592299923
-0.10522949846380301,-0.10522949846380301
-0.8337433912863024,-0.8337433912863024
-1.1625416968964601,-1.1625416968964601
-0.7628261096841055,-0.7628261096841055
-0.5694153416781379,-0.5694153416781379
-0.3695575480719675,-0.3695575480719675
-0.30508729206997337,-0.30508729206997337
-0.3695575480719675,-0.3695575480719675
-0.16969975446578317,-0.16969975446578317
-0.3695575480719675,-0.3695575480719675
-0.5694153416781379,-0.5694153416781379
-0.6338855976801312,-0.6338855976801312
-0.3695575480719675,-0.3695575480719675
-0.10522949846380301,-0.10522949846380301
-0.040759242461809654,-0.040759242461809654
0.030158039140387206,0.030158039140387206
0.28803906314834815,0.28803906314834815
0.4234266007525259,0.4234266007525259
0.28803906314834815,0.28803906314834815
0.28803906314834815,0.28803906314834815
0.28803906314834815,0.28803906314834815
0.35895634475053184,0.35895634475053184
0.4234266007525259,0.4234266007525259
0.48789685675451927,0.48789685675451927
0.7522249063626838,0.7522249063626838
0.8166951623646771,0.8166951623646771
0.9520826999688542,0.9520826999688542
1.0165529559708475,1.0165529559708475
1.3453512615810053,1.3453512615810053
1.3453512615810053,1.3453512615810053
1.8740073607973342,1.8740073607973342
1.9384776167993283,1.9384776167993283
2.2737229480096763,2.2737229480096763
2.402663460013663,2.402663460013663
2.402663460013663,2.402663460013663
2.0738651544035056,2.0738651544035056
1.7450668487933476,1.7450668487933476
1.2164107495770187,1.2164107495770187
0.6232843943586963,0.6232843943586963
0.030158039140387206,0.030158039140387206
-0.43402780407394764,-0.43402780407394764
-0.8337433912863024,-0.8337433912863024
-1.02715415929227,-1.02715415929227
-1.0916244152942634,-1.0916244152942634
-1.2270119528984404,-1.2270119528984404
-1.02715415929227,-1.02715415929227
-1.2270119528984404,-1.2270119528984404
-1.02715415929227,-1.02715415929227
-0.9626839032902766,-0.9626839032902766
-0.6983558536821122,-0.6983558536821122
-0.6983558536821122,-0.6983558536821122
-0.6338855976801312,-0.6338855976801312
-0.6338855976801312,-0.6338855976801312
-0.43402780407394764,-0.43402780407394764
-0.5694153416781379,-0.5694153416781379
-0.3695575480719675,-0.3695575480719675
-0.498498060075941,-0.498498060075941
-0.6338855976801312,-0.6338855976801312
-0.8982136472882957,-0.8982136472882957
-0.8982136472882957,-0.8982136472882957
-1.1625416968964601,-1.1625416968964601
-1.2914822089004345,-1.2914822089004345
-1.4268697465046247,-1.4268697465046247
-1.4913400025066048,-1.4913400025066048
-1.2914822089004345,-1.2914822089004345
-1.2270119528984404,-1.2270119528984404
-1.02715415929227,-1.02715415929227
-0.8982136472882957,-0.8982136472882957
-0.6983558536821122,-0.6983558536821122
-0.5694153416781379,-0.5694153416781379
-0.3695575480719675,-0.3695575480719675
-0.498498060075941,-0.498498060075941
-0.3695575480719675,-0.3695575480719675
-0.43402780407394764,-0.43402780407394764
-0.3695575480719675,-0.3695575480719675
-0.43402780407394764,-0.43402780407394764
-0.30508729206997337,-0.30508729206997337
-0.3695575480719675,-0.3695575480719675
-0.43402780407394764,-0.43402780407394764
-0.6338855976801312,-0.6338855976801312
-0.6338855976801312,-0.6338855976801312
-0.6983558536821122,-0.6983558536821122
-0.6983558536821122,-0.6983558536821122
-0.8337433912863024,-0.8337433912863024
-0.7628261096841055,-0.7628261096841055
-0.7628261096841055,-0.7628261096841055
-0.6983558536821122,-0.6983558536821122
-0.6983558536821122,-0.6983558536821122
-0.6983558536821122,-0.6983558536821122
-0.5694153416781379,-0.5694153416781379
-0.43402780407394764,-0.43402780407394764
-0.30508729206997337,-0.30508729206997337
-0.30508729206997337,-0.30508729206997337
-0.040759242461809654,-0.040759242461809654
-0.040759242461809654,-0.040759242461809654
-0.23417001046777652,-0.23417001046777652
-0.498498060075941,-0.498498060075941
0.8166951623646771,0.8166951623646771
3.395505402444327,3.395505402444327
4.846086162489122,4.846086162489122
2.802379047226004,2.802379047226004
-0.30508729206997337,-0.30508729206997337
-1.4268697465046247,-1.4268697465046247
-1.691197796112789,-1.691197796112789
-1.7556680521147694,-1.7556680521147694
-1.1625416968964601,-1.1625416968964601
-0.8337433912863024,-0.8337433912863024
-0.5694153416781379,-0.5694153416781379
-0.5694153416781379,-0.5694153416781379
-0.30508729206997337,-0.30508729206997337
-0.10522949846380301,-0.10522949846380301
0.15909855114436147,0.15909855114436147
0.28803906314834815,0.28803906314834815
0.4234266007525259,0.4234266007525259
0.5523671127565126,0.5523671127565126
0.4234266007525259,0.4234266007525259
0.5523671127565126,0.5523671127565126
0.35895634475053184,0.35895634475053184
0.28803906314834815,0.28803906314834815
0.15909855114436147,0.15909855114436147
0.09462829514236812,0.09462829514236812
0.09462829514236812,0.09462829514236812
0.22356880714635483,0.22356880714635483
0.15909855114436147,0.15909855114436147
0.4234266007525259,0.4234266007525259
0.5523671127565126,0.5523671127565126
0.9520826999688542,0.9520826999688542
1.0810232119728416,1.0810232119728416
1.280881005579012,1.280881005579012
1.416268543183189,1.416268543183189
1.8095371047953401,1.8095371047953401
2.0093948984015113,2.0093948984015113
2.3381932040116693,2.3381932040116693
2.402663460013663,2.402663460013663
2.4671337160156557,2.4671337160156557
2.202805666407492,2.202805666407492
2.0093948984015113,2.0093948984015113
1.416268543183189,1.416268543183189
0.7522249063626838,0.7522249063626838
0.09462829514236812,0.09462829514236812
-0.30508729206997337,-0.30508729206997337
-0.6338855976801312,-0.6338855976801312
-0.6983558536821122,-0.6983558536821122
-0.43402780407394764,-0.43402780407394764
-0.3695575480719675,-0.3695575480719675
-0.30508729206997337,-0.30508729206997337
-0.3695575480719675,-0.3695575480719675
-0.30508729206997337,-0.30508729206997337
-0.5694153416781379,-0.5694153416781379
-0.498498060075941,-0.498498060075941
-0.6983558536821122,-0.6983558536821122
-0.6338855976801312,-0.6338855976801312
-0.6983558536821122,-0.6983558536821122
-0.6338855976801312,-0.6338855976801312
-0.6983558536821122,-0.6983558536821122
-0.6338855976801312,-0.6338855976801312
-0.7628261096841055,-0.7628261096841055
-0.8337433912863024,-0.8337433912863024
-0.9626839032902766,-0.9626839032902766
-0.8982136472882957,-0.8982136472882957
-0.8337433912863024,-0.8337433912863024
-0.6983558536821122,-0.6983558536821122
-0.6338855976801312,-0.6338855976801312
-0.5694153416781379,-0.5694153416781379
-0.5694153416781379,-0.5694153416781379
-0.6983558536821122,-0.6983558536821122
-0.6983558536821122,-0.6983558536821122
-0.6338855976801312,-0.6338855976801312
-0.498498060075941,-0.498498060075941
-0.5694153416781379,-0.5694153416781379
-0.6983558536821122,-0.6983558536821122
-0.7628261096841055,-0.7628261096841055
-0.5694153416781379,-0.5694153416781379
-0.6983558536821122,-0.6983558536821122
-0.5694153416781379,-0.5694153416781379
-0.6983558536821122,-0.6983558536821122
-0.5694153416781379,-0.5694153416781379
-0.6983558536821122,-0.6983558536821122
-0.43402780407394764,-0.43402780407394764
-0.5694153416781379,-0.5694153416781379
-0.3695575480719675,-0.3695575480719675
-0.3695575480719675,-0.3695575480719675
-0.30508729206997337,-0.30508729206997337
-0.3695575480719675,-0.3695575480719675
-0.3695575480719675,-0.3695575480719675
-0.498498060075941,-0.498498060075941
-0.498498060075941,-0.498498060075941
-0.498498060075941,-0.498498060075941
-0.498498060075941,-0.498498060075941
-0.5694153416781379,-0.5694153416781379
-0.6338855976801312,-0.6338855976801312
-0.3695575480719675,-0.3695575480719675
-0.43402780407394764,-0.43402780407394764
-0.3695575480719675,-0.3695575480719675
-0.43402780407394764,-0.43402780407394764
-0.30508729206997337,-0.30508729206997337
-0.498498060075941,-0.498498060075941
-0.6983558536821122,-0.6983558536821122
-0.8337433912863024,-0.8337433912863024
1.480738799185183,1.480738799185183
3.7887739640564644,3.7887739640564644
4.44637057527678,4.44637057527678
1.416268543183189,1.416268543183189
-0.9626839032902766,-0.9626839032902766
-1.5558102585085982,-1.5558102585085982
-1.6202805145105923,-1.6202805145105923
-1.1625416968964601,-1.1625416968964601
-0.6338855976801312,-0.6338855976801312
-0.43402780407394764,-0.43402780407394764
-0.23417001046777652,-0.23417001046777652
-0.040759242461809654,-0.040759242461809654
0.030158039140387206,0.030158039140387206
-0.040759242461809654,-0.040759242461809654
0.15909855114436147,0.15909855114436147
0.22356880714635483,0.22356880714635483
0.030158039140387206,0.030158039140387206
0.22356880714635483,0.22356880714635483
0.030158039140387206,0.030158039140387206
0.22356880714635483,0.22356880714635483
0.09462829514236812,0.09462829514236812
0.15909855114436147,0.15909855114436147
-0.040759242461809654,-0.040759242461809654
0.030158039140387206,0.030158039140387206
-0.040759242461809654,-0.040759242461809654
0.15909855114436147,0.15909855114436147
0.09462829514236812,0.09462829514236812
0.5523671127565126,0.5523671127565126
0.6877546503606897,0.6877546503606897
0.9520826999688542,0.9520826999688542
1.2164107495770187,1.2164107495770187
1.480738799185183,1.480738799185183
1.5452090551871764,1.5452090551871764
1.9384776167993283,1.9384776167993283
2.138335410405498,2.138335410405498
2.2737229480096763,2.2737229480096763
2.138335410405498,2.138335410405498
2.202805666407492,2.202805666407492
1.9384776167993283,1.9384776167993283
1.6096793111891705,1.6096793111891705
1.0810232119728416,1.0810232119728416
0.48789685675451927,0.48789685675451927
0.09462829514236812,0.09462829514236812
-0.3695575480719675,-0.3695575480719675
-0.43402780407394764,-0.43402780407394764
-0.6338855976801312,-0.6338855976801312
-0.6338855976801312,-0.6338855976801312
-0.6983558536821122,-0.6983558536821122
-0.5694153416781379,-0.5694153416781379
-0.498498060075941,-0.498498060075941
-0.3695575480719675,-0.3695575480719675
-0.3695575480719675,-0.3695575480719675
-0.498498060075941,-0.498498060075941
-0.6983558536821122,-0.6983558536821122
-0.6983558536821122,-0.6983558536821122
-0.8982136472882957,-0.8982136472882957
-0.8337433912863024,-0.8337433912863024
-0.8982136472882957,-0.8982136472882957
-0.8982136472882957,-0.8982136472882957
-1.02715415929227,-1.02715415929227
-0.8982136472882957,-0.8982136472882957
-0.8337433912863024,-0.8337433912863024
-0.9626839032902766,-0.9626839032902766
-0.8982136472882957,-0.8982136472882957
-0.6338855976801312,-0.6338855976801312
-0.498498060075941,-0.498498060075941
-0.43402780407394764,-0.43402780407394764
-0.30508729206997337,-0.30508729206997337
-0.3695575480719675,-0.3695575480719675
-0.3695575480719675,-0.3695575480719675
-0.498498060075941,-0.498498060075941
-0.6983558536821122,-0.6983558536821122
-0.8982136472882957,-0.8982136472882957
-0.8337433912863024,-0.8337433912863024
-1.02715415929227,-1.02715415929227
-0.9626839032902766,-0.9626839032902766
-1.02715415929227,-1.02715415929227
-0.8982136472882957,-0.8982136472882957
-0.8982136472882957,-0.8982136472882957
-0.6338855976801312,-0.6338855976801312
-0.6983558536821122,-0.6983558536821122
-0.3695575480719675,-0.3695575480719675
-0.498498060075941,-0.498498060075941
-0.3695575480719675,-0.3695575480719675
-0.3695575480719675,-0.3695575480719675
-0.30508729206997337,-0.30508729206997337
-0.23417001046777652,-0.23417001046777652
-0.30508729206997337,-0.30508729206997337
-0.23417001046777652,-0.23417001046777652
-0.3695575480719675,-0.3695575480719675
-0.5694153416781379,-0.5694153416781379
-0.5694153416781379,-0.5694153416781379
-0.498498060075941,-0.498498060075941
-0.6983558536821122,-0.6983558536821122
-0.6338855976801312,-0.6338855976801312
-0.6983558536821122,-0.6983558536821122
-0.498498060075941,-0.498498060075941
-0.6338855976801312,-0.6338855976801312
-0.3695575480719675,-0.3695575480719675
-0.30508729206997337,-0.30508729206997337
-0.040759242461809654,-0.040759242461809654
-0.040759242461809654,-0.040759242461809654
-0.040759242461809654,-0.040759242461809654
-0.040759242461809654,-0.040759242461809654
0.09462829514236812,0.09462829514236812
-0.30508729206997337,-0.30508729206997337
1.1519404935750253,1.1519404935750253
3.195647608838156,3.195647608838156
4.18848955126882,4.18848955126882
2.0093948984015113,2.0093948984015113
-0.5694153416781379,-0.5694153416781379
-1.0916244152942634,-1.0916244152942634
-1.4268697465046247,-1.4268697465046247
-1.02715415929227,-1.02715415929227
-0.6983558536821122,-0.6983558536821122
-0.3695575480719675,-0.3695575480719675
-0.16969975446578317,-0.16969975446578317
-0.10522949846380301,-0.10522949846380301
0.030158039140387206,0.030158039140387206
0.28803906314834815,0.28803906314834815
0.28803906314834815,0.28803906314834815
0.22356880714635483,0.22356880714635483
0.15909855114436147,0.15909855114436147
0.28803906314834815,0.28803906314834815
0.030158039140387206,0.030158039140387206
0.09462829514236812,0.09462829514236812
-0.040759242461809654,-0.040759242461809654
0.030158039140387206,0.030158039140387206
-0.040759242461809654,-0.040759242461809654
0.35895634475053184,0.35895634475053184
0.28803906314834815,0.28803906314834815
0.28803906314834815,0.28803906314834815
0.28803906314834815,0.28803906314834815
0.4234266007525259,0.4234266007525259
0.5523671127565126,0.5523671127565126
0.8876124439668608,0.8876124439668608
1.1519404935750253,1.1519404935750253
1.480738799185183,1.480738799185183
1.7450668487933476,1.7450668487933476
1.9384776167993283,1.9384776167993283
2.0093948984015113,2.0093948984015113
1.9384776167993283,1.9384776167993283
2.0738651544035056,2.0738651544035056
1.9384776167993283,1.9384776167993283
2.0093948984015113,2.0093948984015113
1.6741495671911633,1.6741495671911633
1.280881005579012,1.280881005579012
0.7522249063626838,0.7522249063626838
0.35895634475053184,0.35895634475053184
-0.10522949846380301,-0.10522949846380301
-0.16969975446578317,-0.16969975446578317
-0.3695575480719675,-0.3695575480719675
-0.498498060075941,-0.498498060075941
-0.6983558536821122,-0.6983558536821122
-0.5694153416781379,-0.5694153416781379
-0.5694153416781379,-0.5694153416781379
-0.498498060075941,-0.498498060075941
-0.6983558536821122,-0.6983558536821122
-0.6338855976801312,-0.6338855976801312
-0.6983558536821122,-0.6983558536821122
-0.6338855976801312,-0.6338855976801312
-0.5694153416781379,-0.5694153416781379
-0.6983558536821122,-0.6983558536821122
-0.6983558536821122,-0.6983558536821122
-0.6983558536821122,-0.6983558536821122
-0.6338855976801312,-0.6338855976801312
-0.6983558536821122,-0.6983558536821122
-0.6338855976801312,-0.6338855976801312
-0.43402780407394764,-0.43402780407394764
-0.3695575480719675,-0.3695575480719675
-0.3695575480719675,-0.3695575480719675
-0.23417001046777652,-0.23417001046777652
-0.3695575480719675,-0.3695575480719675
-0.43402780407394764,-0.43402780407394764
-0.498498060075941,-0.498498060075941
-0.3695575480719675,-0.3695575480719675
-0.5694153416781379,-0.5694153416781379
-0.498498060075941,-0.498498060075941
-0.5694153416781379,-0.5694153416781379
-0.498498060075941,-0.498498060075941
-0.43402780407394764,-0.43402780407394764
-0.3695575480719675,-0.3695575480719675
-0.6983558536821122,-0.6983558536821122
-0.5694153416781379,-0.5694153416781379
-0.6338855976801312,-0.6338855976801312
-0.30508729206997337,-0.30508729206997337
-0.3695575480719675,-0.3695575480719675
-0.3695575480719675,-0.3695575480719675
-0.43402780407394764,-0.43402780407394764
-0.3695575480719675,-0.3695575480719675
-0.43402780407394764,-0.43402780407394764
-0.3695575480719675,-0.3695575480719675
-0.498498060075941,-0.498498060075941
-0.43402780407394764,-0.43402780407394764
-0.30508729206997337,-0.30508729206997337
-0.3695575480719675,-0.3695575480719675
-0.040759242461809654,-0.040759242461809654
-0.30508729206997337,-0.30508729206997337
-0.23417001046777652,-0.23417001046777652
-0.30508729206997337,-0.30508729206997337
-0.16969975446578317,-0.16969975446578317
-0.5694153416781379,-0.5694153416781379
-0.43402780407394764,-0.43402780407394764
-0.3695575480719675,-0.3695575480719675
-0.3695575480719675,-0.3695575480719675
-0.6338855976801312,-0.6338855976801312
-0.3695575480719675,-0.3695575480719675
-0.23417001046777652,-0.23417001046777652
-0.16969975446578317,-0.16969975446578317
-0.3695575480719675,-0.3695575480719675
-0.10522949846380301,-0.10522949846380301
-0.16969975446578317,-0.16969975446578317
-0.040759242461809654,-0.040759242461809654
0.030158039140387206,0.030158039140387206
0.15909855114436147,0.15909855114436147
0.22356880714635483,0.22356880714635483
0.09462829514236812,0.09462829514236812
-0.3695575480719675,-0.3695575480719675
-0.498498060075941,-0.498498060075941
1.2164107495770187,1.2164107495770187
3.4599756584463197,3.4599756584463197
4.117572269666622,4.117572269666622
1.7450668487933476,1.7450668487933476
-0.30508729206997337,-0.30508729206997337
-0.5694153416781379,-0.5694153416781379
-0.6983558536821122,-0.6983558536821122
-0.498498060075941,-0.498498060075941
-0.30508729206997337,-0.30508729206997337
-0.16969975446578317,-0.16969975446578317
0.09462829514236812,0.09462829514236812
0.15909855114436147,0.15909855114436147
0.4234266007525259,0.4234266007525259
0.35895634475053184,0.35895634475053184
0.48789685675451927,0.48789685675451927
0.28803906314834815,0.28803906314834815
0.22356880714635483,0.22356880714635483
-0.040759242461809654,-0.040759242461809654
-0.10522949846380301,-0.10522949846380301
0.030158039140387206,0.030158039140387206
-0.10522949846380301,-0.10522949846380301
-0.040759242461809654,-0.040759242461809654
-0.040759242461809654,-0.040759242461809654
-0.040759242461809654,-0.040759242461809654
0.030158039140387206,0.030158039140387206
0.15909855114436147,0.15909855114436147
0.28803906314834815,0.28803906314834815
0.35895634475053184,0.35895634475053184
0.28803906314834815,0.28803906314834815
0.8166951623646771,0.8166951623646771
1.0810232119728416,1.0810232119728416
1.3453512615810053,1.3453512615810053
1.416268543183189,1.416268543183189
1.6741495671911633,1.6741495671911633
1.8095371047953401,1.8095371047953401
2.0093948984015113,2.0093948984015113
1.8740073607973342,1.8740073607973342
2.138335410405498,2.138335410405498
2.202805666407492,2.202805666407492
2.138335410405498,2.138335410405498
1.6096793111891705,1.6096793111891705
1.0810232119728416,1.0810232119728416
0.48789685675451927,0.48789685675451927
0.15909855114436147,0.15909855114436147
-0.3695575480719675,-0.3695575480719675
-0.3695575480719675,-0.3695575480719675
-0.498498060075941,-0.498498060075941
-0.3695575480719675,-0.3695575480719675
-0.3695575480719675,-0.3695575480719675
-0.498498060075941,-0.498498060075941
-0.6338855976801312,-0.6338855976801312
-0.6983558536821122,-0.6983558536821122
-0.498498060075941,-0.498498060075941
-0.6983558536821122,-0.6983558536821122
-0.6983558536821122,-0.6983558536821122
-0.7628261096841055,-0.7628261096841055
-0.498498060075941,-0.498498060075941
-0.3695575480719675,-0.3695575480719675
-0.30508729206997337,-0.30508729206997337
-0.3695575480719675,-0.3695575480719675
-0.23417001046777652,-0.23417001046777652
-0.3695575480719675,-0.3695575480719675
-0.23417001046777652,-0.23417001046777652
-0.30508729206997337,-0.30508729206997337
-0.16969975446578317,-0.16969975446578317
-0.3695575480719675,-0.3695575480719675
-0.23417001046777652,-0.23417001046777652
-0.30508729206997337,-0.30508729206997337
-0.3695575480719675,-0.3695575480719675
-0.5694153416781379,-0.5694153416781379
-0.498498060075941,-0.498498060075941
-0.6983558536821122,-0.6983558536821122
-0.6983558536821122,-0.6983558536821122
-0.6983558536821122,-0.6983558536821122
-0.5694153416781379,-0.5694153416781379
-0.43402780407394764,-0.43402780407394764
-0.6338855976801312,-0.6338855976801312
-0.3695575480719675,-0.3695575480719675
-0.3695575480719675,-0.3695575480719675
-0.30508729206997337,-0.30508729206997337
-0.3695575480719675,-0.3695575480719675
-0.23417001046777652,-0.23417001046777652
-0.23417001046777652,-0.23417001046777652
-0.040759242461809654,-0.040759242461809654
-0.16969975446578317,-0.16969975446578317
-0.16969975446578317,-0.16969975446578317
-0.30508729206997337,-0.30508729206997337
-0.16969975446578317,-0.16969975446578317
-0.23417001046777652,-0.23417001046777652
-0.040759242461809654,-0.040759242461809654
-0.30508729206997337,-0.30508729206997337
-0.30508729206997337,-0.30508729206997337
-0.30508729206997337,-0.30508729206997337
-0.16969975446578317,-0.16969975446578317
-0.3695575480719675,-0.3695575480719675
-0.30508729206997337,-0.30508729206997337
-0.23417001046777652,-0.23417001046777652
-0.30508729206997337,-0.30508729206997337
-0.10522949846380301,-0.10522949846380301
-0.16969975446578317,-0.16969975446578317
-0.040759242461809654,-0.040759242461809654
-0.10522949846380301,-0.10522949846380301
0.15909855114436147,0.15909855114436147
0.09462829514236812,0.09462829514236812
0.030158039140387206,0.030158039140387206
-0.040759242461809654,-0.040759242461809654
0.030158039140387206,0.030158039140387206
-0.43402780407394764,-0.43402780407394764
1.0165529559708475,1.0165529559708475
3.395505402444327,3.395505402444327
4.846086162489122,4.846086162489122
2.995789815231985,2.995789815231985
-0.040759242461809654,-0.040759242461809654
-1.0916244152942634,-1.0916244152942634
-1.2270119528984404,-1.2270119528984404
-0.8982136472882957,-0.8982136472882957
-0.43402780407394764,-0.43402780407394764
-0.10522949846380301,-0.10522949846380301
0.28803906314834815,0.28803906314834815
0.28803906314834815,0.28803906314834815
0.4234266007525259,0.4234266007525259
0.48789685675451927,0.48789685675451927
0.4234266007525259,0.4234266007525259
0.5523671127565126,0.5523671127565126
0.48789685675451927,0.48789685675451927
0.5523671127565126,0.5523671127565126
0.35895634475053184,0.35895634475053184
0.48789685675451927,0.48789685675451927
0.5523671127565126,0.5523671127565126
0.6232843943586963,0.6232843943586963
0.28803906314834815,0.28803906314834815
0.09462829514236812,0.09462829514236812
0.09462829514236812,0.09462829514236812
0.28803906314834815,0.28803906314834815
0.35895634475053184,0.35895634475053184
0.6877546503606897,0.6877546503606897
0.8166951623646771,0.8166951623646771
1.1519404935750253,1.1519404935750253
1.3453512615810053,1.3453512615810053
1.6741495671911633,1.6741495671911633
1.8095371047953401,1.8095371047953401
2.138335410405498,2.138335410405498
2.2737229480096763,2.2737229480096763
2.3381932040116693,2.3381932040116693
2.3381932040116693,2.3381932040116693
2.4671337160156557,2.4671337160156557
2.5380509976178405,2.5380509976178405
2.402663460013663,2.402663460013663
1.8740073607973342,1.8740073607973342
1.416268543183189,1.416268543183189
0.7522249063626838,0.7522249063626838
0.22356880714635483,0.22356880714635483
-0.10522949846380301,-0.10522949846380301
-0.3695575480719675,-0.3695575480719675
-0.43402780407394764,-0.43402780407394764
-0.498498060075941,-0.498498060075941
-0.43402780407394764,-0.43402780407394764
-0.498498060075941,-0.498498060075941
-0.3695575480719675,-0.3695575480719675
-0.43402780407394764,-0.43402780407394764
-0.3695575480719675,-0.3695575480719675
-0.6338855976801312,-0.6338855976801312
-0.5694153416781379,-0.5694153416781379
-0.6983558536821122,-0.6983558536821122
-0.5694153416781379,-0.5694153416781379
-0.6338855976801312,-0.6338855976801312
-0.6338855976801312,-0.6338855976801312
-0.6338855976801312,-0.6338855976801312
-0.498498060075941,-0.498498060075941
-0.43402780407394764,-0.43402780407394764
-0.498498060075941,-0.498498060075941
-0.5694153416781379,-0.5694153416781379
-0.30508729206997337,-0.30508729206997337
-0.23417001046777652,-0.23417001046777652
-0.30508729206997337,-0.30508729206997337
-0.16969975446578317,-0.16969975446578317
-0.3695575480719675,-0.3695575480719675
-0.23417001046777652,-0.23417001046777652
-0.30508729206997337,-0.30508729206997337
-0.23417001046777652,-0.23417001046777652
-0.43402780407394764,-0.43402780407394764
-0.5694153416781379,-0.5694153416781379
-0.6983558536821122,-0.6983558536821122
-0.498498060075941,-0.498498060075941
-0.6983558536821122,-0.6983558536821122
-0.43402780407394764,-0.43402780407394764
-0.3695575480719675,-0.3695575480719675
-0.43402780407394764,-0.43402780407394764
-0.6983558536821122,-0.6983558536821122
-0.5694153416781379,-0.5694153416781379
-0.6983558536821122,-0.6983558536821122
-0.43402780407394764,-0.43402780407394764
-0.3695575480719675,-0.3695575480719675
-0.30508729206997337,-0.30508729206997337
-0.23417001046777652,-0.23417001046777652
-0.30508729206997337,-0.30508729206997337
-0.10522949846380301,-0.10522949846380301
-0.30508729206997337,-0.30508729206997337
-0.23417001046777652,-0.23417001046777652
-0.3695575480719675,-0.3695575480719675
-0.43402780407394764,-0.43402780407394764
-0.498498060075941,-0.498498060075941
-0.43402780407394764,-0.43402780407394764
-0.498498060075941,-0.498498060075941
-0.3695575480719675,-0.3695575480719675
-0.30508729206997337,-0.30508729206997337
-0.16969975446578317,-0.16969975446578317
-0.3695575480719675,-0.3695575480719675
-0.10522949846380301,-0.10522949846380301
-0.10522949846380301,-0.10522949846380301
-0.040759242461809654,-0.040759242461809654
-0.43402780407394764,-0.43402780407394764
0.09462829514236812,0.09462829514236812
2.0738651544035056,2.0738651544035056
4.381900319274787,4.381900319274787
4.910556418491116,4.910556418491116
1.7450668487933476,1.7450668487933476
-0.6983558536821122,-0.6983558536821122
-1.02715415929227,-1.02715415929227
-1.2914822089004345,-1.2914822089004345
-0.8337433912863024,-0.8337433912863024
-0.6338855976801312,-0.6338855976801312
-0.3695575480719675,-0.3695575480719675
-0.3695575480719675,-0.3695575480719675
-0.3695575480719675,-0.3695575480719675
-0.30508729206997337,-0.30508729206997337
-0.3695575480719675,-0.3695575480719675
-0.040759242461809654,-0.040759242461809654
-0.040759242461809654,-0.040759242461809654
0.030158039140387206,0.030158039140387206
0.030158039140387206,0.030158039140387206
0.09462829514236812,0.09462829514236812
0.09462829514236812,0.09462829514236812
0.15909855114436147,0.15909855114436147
0.09462829514236812,0.09462829514236812
0.4234266007525259,0.4234266007525259
0.35895634475053184,0.35895634475053184
0.5523671127565126,0.5523671127565126
0.5523671127565126,0.5523671127565126
0.7522249063626838,0.7522249063626838
0.6232843943586963,0.6232843943586963
0.7522249063626838,0.7522249063626838
0.8166951623646771,0.8166951623646771
0.8876124439668608,0.8876124439668608
0.9520826999688542,0.9520826999688542
1.3453512615810053,1.3453512615810053
1.5452090551871764,1.5452090551871764
1.8095371047953401,1.8095371047953401
2.0738651544035056,2.0738651544035056
2.2737229480096763,2.2737229480096763
2.402663460013663,2.402663460013663
2.202805666407492,2.202805666407492
2.2737229480096763,2.2737229480096763
1.6096793111891705,1.6096793111891705
0.9520826999688542,0.9520826999688542
0.4234266007525259,0.4234266007525259
0.09462829514236812,0.09462829514236812
-0.23417001046777652,-0.23417001046777652
-0.3695575480719675,-0.3695575480719675
-0.5694153416781379,-0.5694153416781379
-0.6338855976801312,-0.6338855976801312
-0.8982136472882957,-0.8982136472882957
-0.8337433912863024,-0.8337433912863024
-1.02715415929227,-1.02715415929227
-1.0916244152942634,-1.0916244152942634
-1.1625416968964601,-1.1625416968964601
-0.9626839032902766,-0.9626839032902766
-1.1625416968964601,-1.1625416968964601
-1.02715415929227,-1.02715415929227
-1.02715415929227,-1.02715415929227
-0.7628261096841055,-0.7628261096841055
-0.8982136472882957,-0.8982136472882957
-0.7628261096841055,-0.7628261096841055
-0.8337433912863024,-0.8337433912863024
-0.6983558536821122,-0.6983558536821122
-0.498498060075941,-0.498498060075941
-0.3695575480719675,-0.3695575480719675
-0.30508729206997337,-0.30508729206997337
-0.3695575480719675,-0.3695575480719675
-0.16969975446578317,-0.16969975446578317
-0.3695575480719675,-0.3695575480719675
-0.23417001046777652,-0.23417001046777652
-0.43402780407394764,-0.43402780407394764
-0.3695575480719675,-0.3695575480719675
-0.7628261096841055,-0.7628261096841055
-0.8337433912863024,-0.8337433912863024
-0.9626839032902766,-0.9626839032902766
-0.6983558536821122,-0.6983558536821122
-0.6338855976801312,-0.6338855976801312
-0.7628261096841055,-0.7628261096841055
-0.9626839032902766,-0.9626839032902766
-0.9626839032902766,-0.9626839032902766
-1.02715415929227,-1.02715415929227
-0.7628261096841055,-0.7628261096841055
-0.6983558536821122,-0.6983558536821122
-0.498498060075941,-0.498498060075941
-0.3695575480719675,-0.3695575480719675
-0.3695575480719675,-0.3695575480719675
-0.30508729206997337,-0.30508729206997337
-0.16969975446578317,-0.16969975446578317
-0.3695575480719675,-0.3695575480719675
-0.43402780407394764,-0.43402780407394764
-0.3695575480719675,-0.3695575480719675
-0.498498060075941,-0.498498060075941
-0.6338855976801312,-0.6338855976801312
-0.498498060075941,-0.498498060075941
-0.30508729206997337,-0.30508729206997337
-0.3695575480719675,-0.3695575480719675
-0.43402780407394764,-0.43402780407394764
-0.6983558536821122,-0.6983558536821122
-0.5694153416781379,-0.5694153416781379
-0.6338855976801312,-0.6338855976801312
-0.8337433912863024,-0.8337433912863024
-0.23417001046777652,-0.23417001046777652
2.0738651544035056,2.0738651544035056
4.2529598072708135,4.2529598072708135
4.581758112880959,4.581758112880959
0.8166951623646771,0.8166951623646771
-1.2270119528984404,-1.2270119528984404
-1.3559524649024277,-1.3559524649024277
-1.4268697465046247,-1.4268697465046247
-0.9626839032902766,-0.9626839032902766
-0.6338855976801312,-0.6338855976801312
-0.3695575480719675,-0.3695575480719675
-0.3695575480719675,-0.3695575480719675
-0.23417001046777652,-0.23417001046777652
-0.10522949846380301,-0.10522949846380301
-0.23417001046777652,-0.23417001046777652
-0.30508729206997337,-0.30508729206997337
-0.040759242461809654,-0.040759242461809654
-0.040759242461809654,-0.040759242461809654
0.15909855114436147,0.15909855114436147
0.09462829514236812,0.09462829514236812
0.28803906314834815,0.28803906314834815
0.28803906314834815,0.28803906314834815
0.28803906314834815,0.28803906314834815
0.15909855114436147,0.15909855114436147
0.22356880714635483,0.22356880714635483
0.15909855114436147,0.15909855114436147
0.35895634475053184,0.35895634475053184
0.48789685675451927,0.48789685675451927
0.6877546503606897,0.6877546503606897
0.8876124439668608,0.8876124439668608
1.0165529559708475,1.0165529559708475
1.0165529559708475,1.0165529559708475
1.2164107495770187,1.2164107495770187
1.280881005579012,1.280881005579012
1.6096793111891705,1.6096793111891705
1.8740073607973342,1.8740073607973342
2.0738651544035056,2.0738651544035056
2.138335410405498,2.138335410405498
2.138335410405498,2.138335410405498
2.0738651544035056,2.0738651544035056
1.7450668487933476,1.7450668487933476
1.280881005579012,1.280881005579012
0.8166951623646771,0.8166951623646771
0.28803906314834815,0.28803906314834815
-0.040759242461809654,-0.040759242461809654
-0.10522949846380301,-0.10522949846380301
-0.30508729206997337,-0.30508729206997337
-0.3695575480719675,-0.3695575480719675
-0.5694153416781379,-0.5694153416781379
-0.6983558536821122,-0.6983558536821122
-1.0916244152942634,-1.0916244152942634
-1.2914822089004345,-1.2914822089004345
-1.5558102585085982,-1.5558102585085982
-1.4913400025066048,-1.4913400025066048
-1.6202805145105923,-1.6202805145105923
-1.4913400025066048,-1.4913400025066048
-1.4913400025066048,-1.4913400025066048
-1.3559524649024277,-1.3559524649024277
-1.2914822089004345,-1.2914822089004345
-1.0916244152942634,-1.0916244152942634
-1.02715415929227,-1.02715415929227
-0.7628261096841055,-0.7628261096841055
-0.5694153416781379,-0.5694153416781379
-0.3695575480719675,-0.3695575480719675
-0.23417001046777652,-0.23417001046777652
-0.3695575480719675,-0.3695575480719675
-0.30508729206997337,-0.30508729206997337
-0.6338855976801312,-0.6338855976801312
-0.7628261096841055,-0.7628261096841055
-0.9626839032902766,-0.9626839032902766
-0.8982136472882957,-0.8982136472882957
-1.0916244152942634,-1.0916244152942634
-1.02715415929227,-1.02715415929227
-1.0916244152942634,-1.0916244152942634
-0.9626839032902766,-0.9626839032902766
-1.02715415929227,-1.02715415929227
-0.8337433912863024,-0.8337433912863024
-0.8982136472882957,-0.8982136472882957
-0.5694153416781379,-0.5694153416781379
-0.5694153416781379,-0.5694153416781379
-0.3695575480719675,-0.3695575480719675
-0.498498060075941,-0.498498060075941
-0.5694153416781379,-0.5694153416781379
-0.6338855976801312,-0.6338855976801312
-0.43402780407394764,-0.43402780407394764
-0.3695575480719675,-0.3695575480719675
-0.498498060075941,-0.498498060075941
-0.6983558536821122,-0.6983558536821122
-0.8337433912863024,-0.8337433912863024
-0.7628261096841055,-0.7628261096841055
-0.9626839032902766,-0.9626839032902766
-0.6983558536821122,-0.6983558536821122
-0.6983558536821122,-0.6983558536821122
-0.5694153416781379,-0.5694153416781379
-0.498498060075941,-0.498498060075941
-0.3695575480719675,-0.3695575480719675
-0.30508729206997337,-0.30508729206997337
-0.23417001046777652,-0.23417001046777652
-0.3695575480719675,-0.3695575480719675
-0.23417001046777652,-0.23417001046777652
-0.3695575480719675,-0.3695575480719675
-0.3695575480719675,-0.3695575480719675
-0.498498060075941,-0.498498060075941
-0.43402780407394764,-0.43402780407394764
-0.6338855976801312,-0.6338855976801312
-0.5694153416781379,-0.5694153416781379
-0.498498060075941,-0.498498060075941
-0.3695575480719675,-0.3695575480719675
-0.6983558536821122,-0.6983558536821122
-0.23417001046777652,-0.23417001046777652
1.480738799185183,1.480738799185183
3.9886317576626484,3.9886317576626484
4.581758112880959,4.581758112880959
1.6096793111891705,1.6096793111891705
-0.43402780407394764,-0.43402780407394764
-0.6983558536821122,-0.6983558536821122
-0.8337433912863024,-0.8337433912863024
-0.43402780407394764,-0.43402780407394764
-0.16969975446578317,-0.16969975446578317
-0.10522949846380301,-0.10522949846380301
-0.040759242461809654,-0.040759242461809654
-0.10522949846380301,-0.10522949846380301
-0.16969975446578317,-0.16969975446578317
-0.16969975446578317,-0.16969975446578317
-0.10522949846380301,-0.10522949846380301
-0.30508729206997337,-0.30508729206997337
-0.040759242461809654,-0.040759242461809654
-0.10522949846380301,-0.10522949846380301
0.030158039140387206,0.030158039140387206
0.09462829514236812,0.09462829514236812
0.030158039140387206,0.030158039140387206
0.22356880714635483,0.22356880714635483
0.4234266007525259,0.4234266007525259
0.48789685675451927,0.48789685675451927
0.5523671127565126,0.5523671127565126
0.5523671127565126,0.5523671127565126
0.6232843943586963,0.6232843943586963
0.8876124439668608,0.8876124439668608
1.0810232119728416,1.0810232119728416
1.2164107495770187,1.2164107495770187
1.2164107495770187,1.2164107495770187
1.280881005579012,1.280881005579012
1.416268543183189,1.416268543183189
1.480738799185183,1.480738799185183
1.5452090551871764,1.5452090551871764
1.8095371047953401,1.8095371047953401
1.8740073607973342,1.8740073607973342
1.8095371047953401,1.8095371047953401
1.8095371047953401,1.8095371047953401
1.6096793111891705,1.6096793111891705
1.0810232119728416,1.0810232119728416
0.8166951623646771,0.8166951623646771
0.35895634475053184,0.35895634475053184
0.22356880714635483,0.22356880714635483
-0.23417001046777652,-0.23417001046777652
-0.30508729206997337,-0.30508729206997337
-0.16969975446578317,-0.16969975446578317
-0.30508729206997337,-0.30508729206997337
-0.5694153416781379,-0.5694153416781379
-0.498498060075941,-0.498498060075941
-0.3695575480719675,-0.3695575480719675
-0.43402780407394764,-0.43402780407394764
-0.498498060075941,-0.498498060075941
-0.5694153416781379,-0.5694153416781379
-0.43402780407394764,-0.43402780407394764
-0.6983558536821122,-0.6983558536821122
-0.6338855976801312,-0.6338855976801312
-0.6983558536821122,-0.6983558536821122
-0.43402780407394764,-0.43402780407394764
-0.3695575480719675,-0.3695575480719675
-0.23417001046777652,-0.23417001046777652
-0.3695575480719675,-0.3695575480719675
-0.10522949846380301,-0.10522949846380301
-0.498498060075941,-0.498498060075941
-0.43402780407394764,-0.43402780407394764
-0.6983558536821122,-0.6983558536821122
-0.5694153416781379,-0.5694153416781379
-0.498498060075941,-0.498498060075941
-0.5694153416781379,-0.5694153416781379
-0.6983558536821122,-0.6983558536821122
-0.6338855976801312,-0.6338855976801312
-0.498498060075941,-0.498498060075941
-0.43402780407394764,-0.43402780407394764
-0.498498060075941,-0.498498060075941
-0.30508729206997337,-0.30508729206997337
-0.43402780407394764,-0.43402780407394764
-0.5694153416781379,-0.5694153416781379
-0.498498060075941,-0.498498060075941
-0.6338855976801312,-0.6338855976801312
-0.43402780407394764,-0.43402780407394764
-0.6338855976801312,-0.6338855976801312
-0.16969975446578317,-0.16969975446578317
-0.23417001046777652,-0.23417001046777652
-0.10522949846380301,-0.10522949846380301
-0.23417001046777652,-0.23417001046777652
-0.10522949846380301,-0.10522949846380301
-0.23417001046777652,-0.23417001046777652
-0.10522949846380301,-0.10522949846380301
-0.5694153416781379,-0.5694153416781379
0.6232843943586963,0.6232843943586963
2.731461765623821,2.731461765623821
4.381900319274787,4.381900319274787
2.866849303227998,2.866849303227998
0.28803906314834815,0.28803906314834815
-0.6983558536821122,-0.6983558536821122
-0.7628261096841055,-0.7628261096841055
-0.9626839032902766,-0.9626839032902766
-0.43402780407394764,-0.43402780407394764
-0.3695575480719675,-0.3695575480719675
-0.040759242461809654,-0.040759242461809654
0.030158039140387206,0.030158039140387206
0.22356880714635483,0.22356880714635483
0.28803906314834815,0.28803906314834815
0.28803906314834815,0.28803906314834815
0.15909855114436147,0.15909855114436147
-0.040759242461809654,-0.040759242461809654
-0.10522949846380301,-0.10522949846380301
-0.30508729206997337,-0.30508729206997337
-0.3695575480719675,-0.3695575480719675
-0.3695575480719675,-0.3695575480719675
-0.16969975446578317,-0.16969975446578317
-0.23417001046777652,-0.23417001046777652
-0.040759242461809654,-0.040759242461809654
0.030158039140387206,0.030158039140387206
0.28803906314834815,0.28803906314834815
0.22356880714635483,0.22356880714635483
0.6232843943586963,0.6232843943586963
0.8876124439668608,0.8876124439668608
1.2164107495770187,1.2164107495770187
1.416268543183189,1.416268543183189
1.6096793111891705,1.6096793111891705
1.7450668487933476,1.7450668487933476
1.8740073607973342,1.8740073607973342
1.8095371047953401,1.8095371047953401
1.9384776167993283,1.9384776167993283
1.8095371047953401,1.8095371047953401
1.8740073607973342,1.8740073607973342
1.8095371047953401,1.8095371047953401
1.6741495671911633,1.6741495671911633
1.280881005579012,1.280881005579012
0.8166951623646771,0.8166951623646771
0.35895634475053184,0.35895634475053184
0.28803906314834815,0.28803906314834815
0.030158039140387206,0.030158039140387206
-0.23417001046777652,-0.23417001046777652
-0.3695575480719675,-0.3695575480719675
-0.43402780407394764,-0.43402780407394764
-0.498498060075941,-0.498498060075941
-0.6338855976801312,-0.6338855976801312
-0.5694153416781379,-0.5694153416781379
-0.6983558536821122,-0.6983558536821122
-0.6983558536821122,-0.6983558536821122
-0.8982136472882957,-0.8982136472882957
-0.9626839032902766,-0.9626839032902766
-1.02715415929227,-1.02715415929227
-0.7628261096841055,-0.7628261096841055
-0.8337433912863024,-0.8337433912863024
-0.5694153416781379,-0.5694153416781379
-0.498498060075941,-0.498498060075941
-0.23417001046777652,-0.23417001046777652
-0.3695575480719675,-0.3695575480719675
-0.30508729206997337,-0.30508729206997337
-0.43402780407394764,-0.43402780407394764
-0.5694153416781379,-0.5694153416781379
-0.498498060075941,-0.498498060075941
-0.6338855976801312,-0.6338855976801312
-0.498498060075941,-0.498498060075941
-0.5694153416781379,-0.5694153416781379
-0.43402780407394764,-0.43402780407394764
-0.3695575480719675,-0.3695575480719675
-0.3695575480719675,-0.3695575480719675
-0.3695575480719675,-0.3695575480719675
-0.30508729206997337,-0.30508729206997337
-0.3695575480719675,-0.3695575480719675
-0.3695575480719675,-0.3695575480719675
-0.43402780407394764,-0.43402780407394764
-0.3695575480719675,-0.3695575480719675
-0.43402780407394764,-0.43402780407394764
-0.3695575480719675,-0.3695575480719675
-0.6338855976801312,-0.6338855976801312
-0.5694153416781379,-0.5694153416781379
-0.6983558536821122,-0.6983558536821122
-0.6338855976801312,-0.6338855976801312
-0.6983558536821122,-0.6983558536821122
-0.5694153416781379,-0.5694153416781379
-0.43402780407394764,-0.43402780407394764
-0.5694153416781379,-0.5694153416781379
-0.3695575480719675,-0.3695575480719675
-0.30508729206997337,-0.30508729206997337
-0.23417001046777652,-0.23417001046777652
-0.10522949846380301,-0.10522949846380301
-0.23417001046777652,-0.23417001046777652
-0.3695575480719675,-0.3695575480719675
-0.30508729206997337,-0.30508729206997337
-0.43402780407394764,-0.43402780407394764
-0.30508729206997337,-0.30508729206997337
-0.43402780407394764,-0.43402780407394764
-0.3695575480719675,-0.3695575480719675
-0.498498060075941,-0.498498060075941
-0.3695575480719675,-0.3695575480719675
-0.3695575480719675,-0.3695575480719675
-0.16969975446578317,-0.16969975446578317
-0.7628261096841055,-0.7628261096841055
-0.23417001046777652,-0.23417001046777652
1.8095371047953401,1.8095371047953401
4.2529598072708135,4.2529598072708135
4.581758112880959,4.581758112880959
1.0810232119728416,1.0810232119728416
-1.0916244152942634,-1.0916244152942634
-1.2270119528984404,-1.2270119528984404
-1.2914822089004345,-1.2914822089004345
-0.6338855976801312,-0.6338855976801312
-0.30508729206997337,-0.30508729206997337
-0.040759242461809654,-0.040759242461809654
-0.040759242461809654,-0.040759242461809654
0.030158039140387206,0.030158039140387206
0.09462829514236812,0.09462829514236812
-0.040759242461809654,-0.040759242461809654
0.030158039140387206,0.030158039140387206
-0.040759242461809654,-0.040759242461809654
-0.10522949846380301,-0.10522949846380301
-0.16969975446578317,-0.16969975446578317
-0.040759242461809654,-0.040759242461809654
-0.10522949846380301,-0.10522949846380301
-0.040759242461809654,-0.040759242461809654
-0.040759242461809654,-0.040759242461809654
0.030158039140387206,0.030158039140387206
-0.040759242461809654,-0.040759242461809654
0.28803906314834815,0.28803906314834815
0.28803906314834815,0.28803906314834815
0.48789685675451927,0.48789685675451927
0.5523671127565126,0.5523671127565126
0.7522249063626838,0.7522249063626838
0.8166951623646771,0.8166951623646771
1.0810232119728416,1.0810232119728416
1.1519404935750253,1.1519404935750253
1.3453512615810053,1.3453512615810053
1.480738799185183,1.480738799185183
1.7450668487933476,1.7450668487933476
1.8740073607973342,1.8740073607973342
2.138335410405498,2.138335410405498
2.3381932040116693,2.3381932040116693
2.2737229480096763,2.2737229480096763
2.0738651544035056,2.0738651544035056
1.6096793111891705,1.6096793111891705
0.9520826999688542,0.9520826999688542
0.28803906314834815,0.28803906314834815
0.030158039140387206,0.030158039140387206
-0.43402780407394764,-0.43402780407394764
-0.6983558536821122,-0.6983558536821122
-0.9626839032902766,-0.9626839032902766
-1.02715415929227,-1.02715415929227
-1.2914822089004345,-1.2914822089004345
-1.1625416968964601,-1.1625416968964601
-1.3559524649024277,-1.3559524649024277
-1.2270119528984404,-1.2270119528984404
-1.1625416968964601,-1.1625416968964601
-0.8337433912863024,-0.8337433912863024
-0.498498060075941,-0.498498060075941
-0.23417001046777652,-0.23417001046777652
-0.16969975446578317,-0.16969975446578317
-0.30508729206997337,-0.30508729206997337
-0.43402780407394764,-0.43402780407394764
-0.43402780407394764,-0.43402780407394764
-0.6338855976801312,-0.6338855976801312
-0.6983558536821122,-0.6983558536821122
-0.8337433912863024,-0.8337433912863024
-0.9626839032902766,-0.9626839032902766
-0.9626839032902766,-0.9626839032902766
-1.02715415929227,-1.02715415929227
-0.9626839032902766,-0.9626839032902766
-1.0916244152942634,-1.0916244152942634
-1.02715415929227,-1.02715415929227
-1.0916244152942634,-1.0916244152942634
-0.5694153416781379,-0.5694153416781379
-0.498498060075941,-0.498498060075941
-0.10522949846380301,-0.10522949846380301
-0.040759242461809654,-0.040759242461809654
0.030158039140387206,0.030158039140387206
-0.16969975446578317,-0.16969975446578317
-0.23417001046777652,-0.23417001046777652
-0.498498060075941,-0.498498060075941
-0.498498060075941,-0.498498060075941
-0.6983558536821122,-0.6983558536821122
-0.6983558536821122,-0.6983558536821122
-0.7628261096841055,-0.7628261096841055
-0.6983558536821122,-0.6983558536821122
-0.7628261096841055,-0.7628261096841055
-0.6983558536821122,-0.6983558536821122
-0.8982136472882957,-0.8982136472882957
-0.6983558536821122,-0.6983558536821122
-0.5694153416781379,-0.5694153416781379
-0.43402780407394764,-0.43402780407394764
-0.3695575480719675,-0.3695575480719675
-0.43402780407394764,-0.43402780407394764
-0.23417001046777652,-0.23417001046777652
-0.3695575480719675,-0.3695575480719675
-0.30508729206997337,-0.30508729206997337
-0.3695575480719675,-0.3695575480719675
-0.30508729206997337,-0.30508729206997337
-0.3695575480719675,-0.3695575480719675
-0.16969975446578317,-0.16969975446578317
-0.16969975446578317,-0.16969975446578317
-0.040759242461809654,-0.040759242461809654
-0.498498060075941,-0.498498060075941
-0.040759242461809654,-0.040759242461809654
1.9384776167993283,1.9384776167993283
4.44637057527678,4.44637057527678
4.910556418491116,4.910556418491116
1.8095371047953401,1.8095371047953401
-0.8337433912863024,-0.8337433912863024
-1.0916244152942634,-1.0916244152942634
-1.2914822089004345,-1.2914822089004345
-0.8337433912863024,-0.8337433912863024
-0.6983558536821122,-0.6983558536821122
-0.498498060075941,-0.498498060075941
-0.43402780407394764,-0.43402780407394764
-0.30508729206997337,-0.30508729206997337
-0.16969975446578317,-0.16969975446578317
-0.040759242461809654,-0.040759242461809654
0.09462829514236812,0.09462829514236812
0.09462829514236812,0.09462829514236812
0.22356880714635483,0.22356880714635483
0.15909855114436147,0.15909855114436147
0.28803906314834815,0.28803906314834815
0.35895634475053184,0.35895634475053184
0.5523671127565126,0.5523671127565126
0.48789685675451927,0.48789685675451927
0.6232843943586963,0.6232843943586963
0.48789685675451927,0.48789685675451927
0.5523671127565126,0.5523671127565126
0.5523671127565126,0.5523671127565126
0.6232843943586963,0.6232843943586963
0.5523671127565126,0.5523671127565126
0.7522249063626838,0.7522249063626838
0.8876124439668608,0.8876124439668608
0.8876124439668608,0.8876124439668608
1.0165529559708475,1.0165529559708475
1.280881005579012,1.280881005579012
1.5452090551871764,1.5452090551871764
1.8740073607973342,1.8740073607973342
2.138335410405498,2.138335410405498
2.402663460013663,2.402663460013663
2.6025212536198343,2.6025212536198343
2.6025212536198343,2.6025212536198343
2.402663460013663,2.402663460013663
1.9384776167993283,1.9384776167993283
1.416268543183189,1.416268543183189
0.7522249063626838,0.7522249063626838
0.15909855114436147,0.15909855114436147
-0.30508729206997337,-0.30508729206997337
-0.43402780407394764,-0.43402780407394764
-0.8982136472882957,-0.8982136472882957
-0.9626839032902766,-0.9626839032902766
-1.1625416968964601,-1.1625416968964601
-1.02715415929227,-1.02715415929227
-1.0916244152942634,-1.0916244152942634
-0.8982136472882957,-0.8982136472882957
-0.8982136472882957,-0.8982136472882957
-0.6983558536821122,-0.6983558536821122
-0.5694153416781379,-0.5694153416781379
-0.30508729206997337,-0.30508729206997337
-0.23417001046777652,-0.23417001046777652
-0.16969975446578317,-0.16969975446578317
-0.3695575480719675,-0.3695575480719675
-0.3695575480719675,-0.3695575480719675
-0.498498060075941,-0.498498060075941
-0.6338855976801312,-0.6338855976801312
-0.5694153416781379,-0.5694153416781379
-0.5694153416781379,-0.5694153416781379
-0.7628261096841055,-0.7628261096841055
-0.8337433912863024,-0.8337433912863024
-0.6983558536821122,-0.6983558536821122
-0.7628261096841055,-0.7628261096841055
-0.6338855976801312,-0.6338855976801312
-0.6983558536821122,-0.6983558536821122
-0.23417001046777652,-0.23417001046777652
-0.23417001046777652,-0.23417001046777652
-0.16969975446578317,-0.16969975446578317
-0.10522949846380301,-0.10522949846380301
-0.10522949846380301,-0.10522949846380301
-0.3695575480719675,-0.3695575480719675
-0.43402780407394764,-0.43402780407394764
-0.6338855976801312,-0.6338855976801312
-0.43402780407394764,-0.43402780407394764
-0.3695575480719675,-0.3695575480719675
-0.43402780407394764,-0.43402780407394764
-0.5694153416781379,-0.5694153416781379
-0.3695575480719675,-0.3695575480719675
-0.43402780407394764,-0.43402780407394764
-0.3695575480719675,-0.3695575480719675
-0.3695575480719675,-0.3695575480719675
-0.30508729206997337,-0.30508729206997337
-0.23417001046777652,-0.23417001046777652
-0.43402780407394764,-0.43402780407394764
-0.3695575480719675,-0.3695575480719675
-0.498498060075941,-0.498498060075941
-0.3695575480719675,-0.3695575480719675
-0.498498060075941,-0.498498060075941
-0.43402780407394764,-0.43402780407394764
-0.5694153416781379,-0.5694153416781379
-0.498498060075941,-0.498498060075941
-0.6338855976801312,-0.6338855976801312
-0.498498060075941,-0.498498060075941
-0.5694153416781379,-0.5694153416781379
-0.3695575480719675,-0.3695575480719675
-0.23417001046777652,-0.23417001046777652
-0.040759242461809654,-0.040759242461809654
-0.10522949846380301,-0.10522949846380301
-0.040759242461809654,-0.040759242461809654
-0.10522949846380301,-0.10522949846380301
-0.040759242461809654,-0.040759242461809654
-0.16969975446578317,-0.16969975446578317
-0.3695575480719675,-0.3695575480719675
-0.6983558536821122,-0.6983558536821122
0.5523671127565126,0.5523671127565126
3.260117864840137,3.260117864840137
4.781615906487141,4.781615906487141
3.1311773528361617,3.1311773528361617
-0.10522949846380301,-0.10522949846380301
-1.3559524649024277,-1.3559524649024277
-1.6202805145105923,-1.6202805145105923
-1.0916244152942634,-1.0916244152942634
-0.6338855976801312,-0.6338855976801312
-0.16969975446578317,-0.16969975446578317
-0.16969975446578317,-0.16969975446578317
-0.040759242461809654,-0.040759242461809654
-0.040759242461809654,-0.040759242461809654
-0.040759242461809654,-0.040759242461809654
-0.10522949846380301,-0.10522949846380301
-0.040759242461809654,-0.040759242461809654
-0.040759242461809654,-0.040759242461809654
0.15909855114436147,0.15909855114436147
0.22356880714635483,0.22356880714635483
0.15909855114436147,0.15909855114436147
0.030158039140387206,0.030158039140387206
0.09462829514236812,0.09462829514236812
0.15909855114436147,0.15909855114436147
0.28803906314834815,0.28803906314834815
0.35895634475053184,0.35895634475053184
0.48789685675451927,0.48789685675451927
0.5523671127565126,0.5523671127565126
0.5523671127565126,0.5523671127565126
0.7522249063626838,0.7522249063626838
0.8166951623646771,0.8166951623646771
0.9520826999688542,0.9520826999688542
1.1519404935750253,1.1519404935750253
1.480738799185183,1.480738799185183
1.6096793111891705,1.6096793111891705
1.8740073607973342,1.8740073607973342
1.8740073607973342,1.8740073607973342
2.138335410405498,2.138335410405498
2.138335410405498,2.138335410405498
2.3381932040116693,2.3381932040116693
2.0738651544035056,2.0738651544035056
1.7450668487933476,1.7450668487933476
1.1519404935750253,1.1519404935750253
0.6232843943586963,0.6232843943586963
0.22356880714635483,0.22356880714635483
-0.040759242461809654,-0.040759242461809654
-0.23417001046777652,-0.23417001046777652
-0.30508729206997337,-0.30508729206997337
-0.498498060075941,-0.498498060075941
-0.6338855976801312,-0.6338855976801312
-0.7628261096841055,-0.7628261096841055
-0.8982136472882957,-0.8982136472882957
-0.9626839032902766,-0.9626839032902766
-0.9626839032902766,-0.9626839032902766
-0.8337433912863024,-0.8337433912863024
-0.7628261096841055,-0.7628261096841055
-0.6338855976801312,-0.6338855976801312
-0.6338855976801312,-0.6338855976801312
-0.6983558536821122,-0.6983558536821122
-0.8337433912863024,-0.8337433912863024
-0.7628261096841055,-0.7628261096841055
-0.9626839032902766,-0.9626839032902766
-0.7628261096841055,-0.7628261096841055
-0.6983558536821122,-0.6983558536821122
-0.30508729206997337,-0.30508729206997337
-0.30508729206997337,-0.30508729206997337
-0.16969975446578317,-0.16969975446578317
-0.30508729206997337,-0.30508729206997337
-0.3695575480719675,-0.3695575480719675
-0.6338855976801312,-0.6338855976801312
-0.6983558536821122,-0.6983558536821122
-0.498498060075941,-0.498498060075941
-0.43402780407394764,-0.43402780407394764
-0.5694153416781379,-0.5694153416781379
-0.6338855976801312,-0.6338855976801312
-0.5694153416781379,-0.5694153416781379
-0.6983558536821122,-0.6983558536821122
-0.8337433912863024,-0.8337433912863024
-0.7628261096841055,-0.7628261096841055
-0.498498060075941,-0.498498060075941
-0.7628261096841055,-0.7628261096841055
-1.02715415929227,-1.02715415929227
0.28803906314834815,0.28803906314834815
2.866849303227998,2.866849303227998
4.44637057527678,4.44637057527678
2.666991509621827,2.666991509621827
-0.6338855976801312,-0.6338855976801312
-1.4913400025066048,-1.4913400025066048
-1.5558102585085982,-1.5558102585085982
-1.02715415929227,-1.02715415929227
-0.6338855976801312,-0.6338855976801312
-0.16969975446578317,-0.16969975446578317
-0.23417001046777652,-0.23417001046777652
-0.16969975446578317,-0.16969975446578317
-0.10522949846380301,-0.10522949846380301
-0.16969975446578317,-0.16969975446578317
-0.30508729206997337,-0.30508729206997337
-0.23417001046777652,-0.23417001046777652
-0.30508729206997337,-0.30508729206997337
-0.23417001046777652,-0.23417001046777652
-0.16969975446578317,-0.16969975446578317
-0.040759242461809654,-0.040759242461809654
0.030158039140387206,0.030158039140387206
0.15909855114436147,0.15909855114436147
0.28803906314834815,0.28803906314834815
0.28803906314834815,0.28803906314834815
0.35895634475053184,0.35895634475053184
0.28803906314834815,0.28803906314834815
0.48789685675451927,0.48789685675451927
0.5523671127565126,0.5523671127565126
0.5523671127565126,0.5523671127565126
0.5523671127565126,0.5523671127565126
0.8876124439668608,0.8876124439668608
1.0810232119728416,1.0810232119728416
1.480738799185183,1.480738799185183
1.6741495671911633,1.6741495671911633
1.8740073607973342,1.8740073607973342
2.0738651544035056,2.0738651544035056
2.202805666407492,2.202805666407492
2.0093948984015113,2.0093948984015113
1.9384776167993283,1.9384776167993283
1.5452090551871764,1.5452090551871764
0.9520826999688542,0.9520826999688542
0.48789685675451927,0.48789685675451927
0.28803906314834815,0.28803906314834815
-0.10522949846380301,-0.10522949846380301
-0.23417001046777652,-0.23417001046777652
-0.3695575480719675,-0.3695575480719675
-0.498498060075941,-0.498498060075941
-0.6338855976801312,-0.6338855976801312
-0.6983558536821122,-0.6983558536821122
-0.6983558536821122,-0.6983558536821122
-0.6983558536821122,-0.6983558536821122
-0.8337433912863024,-0.8337433912863024
-0.9626839032902766,-0.9626839032902766
-0.8337433912863024,-0.8337433912863024
-1.02715415929227,-1.02715415929227
-0.9626839032902766,-0.9626839032902766
-1.0916244152942634,-1.0916244152942634
-0.9626839032902766,-0.9626839032902766
-0.8982136472882957,-0.8982136472882957
-0.6983558536821122,-0.6983558536821122
-0.6983558536821122,-0.6983558536821122
-0.6338855976801312,-0.6338855976801312
-0.6983558536821122,-0.6983558536821122
-0.6338855976801312,-0.6338855976801312
-0.5694153416781379,-0.5694153416781379
-0.6338855976801312,-0.6338855976801312
-0.7628261096841055,-0.7628261096841055
-0.6983558536821122,-0.6983558536821122
-0.7628261096841055,-0.7628261096841055
-0.7628261096841055,-0.7628261096841055
-0.8982136472882957,-0.8982136472882957
-0.8337433912863024,-0.8337433912863024
-0.6983558536821122,-0.6983558536821122
-0.498498060075941,-0.498498060075941
-0.43402780407394764,-0.43402780407394764
-0.5694153416781379,-0.5694153416781379
-0.3695575480719675,-0.3695575480719675
-0.5694153416781379,-0.5694153416781379
-0.43402780407394764,-0.43402780407394764
-0.5694153416781379,-0.5694153416781379
-0.6983558536821122,-0.6983558536821122
-0.6983558536821122,-0.6983558536821122
-0.5694153416781379,-0.5694153416781379
-0.8337433912863024,-0.8337433912863024
-0.6983558536821122,-0.6983558536821122
-0.8337433912863024,-0.8337433912863024
-0.6983558536821122,-0.6983558536821122
-0.6983558536821122,-0.6983558536821122
-0.498498060075941,-0.498498060075941
-0.6338855976801312,-0.6338855976801312
-0.3695575480719675,-0.3695575480719675
-0.23417001046777652,-0.23417001046777652
-0.040759242461809654,-0.040759242461809654
-0.040759242461809654,-0.040759242461809654
-0.040759242461809654,-0.040759242461809654
-0.16969975446578317,-0.16969975446578317
-0.040759242461809654,-0.040759242461809654
0.030158039140387206,0.030158039140387206
-0.040759242461809654,-0.040759242461809654
-0.10522949846380301,-0.10522949846380301
-0.3695575480719675,-0.3695575480719675
-0.43402780407394764,-0.43402780407394764
-0.6983558536821122,-0.6983558536821122
-0.43402780407394764,-0.43402780407394764
-0.5694153416781379,-0.5694153416781379
-0.30508729206997337,-0.30508729206997337
1.416268543183189,1.416268543183189
3.7887739640564644,3.7887739640564644
4.2529598072708135,4.2529598072708135
1.480738799185183,1.480738799185183
-0.5694153416781379,-0.5694153416781379
-0.6983558536821122,-0.6983558536821122
-0.8982136472882957,-0.8982136472882957
-0.43402780407394764,-0.43402780407394764
-0.10522949846380301,-0.10522949846380301
0.22356880714635483,0.22356880714635483
-0.10522949846380301,-0.10522949846380301
-0.30508729206997337,-0.30508729206997337
-0.43402780407394764,-0.43402780407394764
-0.43402780407394764,-0.43402780407394764
-0.43402780407394764,-0.43402780407394764
-0.30508729206997337,-0.30508729206997337
-0.3695575480719675,-0.3695575480719675
-0.16969975446578317,-0.16969975446578317
-0.040759242461809654,-0.040759242461809654
0.15909855114436147,0.15909855114436147
0.48789685675451927,0.48789685675451927
0.5523671127565126,0.5523671127565126
0.6232843943586963,0.6232843943586963
0.5523671127565126,0.5523671127565126
0.7522249063626838,0.7522249063626838
0.7522249063626838,0.7522249063626838
0.6877546503606897,0.6877546503606897
0.5523671127565126,0.5523671127565126
0.7522249063626838,0.7522249063626838
0.6232843943586963,0.6232843943586963
0.7522249063626838,0.7522249063626838
0.8166951623646771,0.8166951623646771
1.0810232119728416,1.0810232119728416
1.1519404935750253,1.1519404935750253
1.480738799185183,1.480738799185183
1.5452090551871764,1.5452090551871764
1.8095371047953401,1.8095371047953401
2.0093948984015113,2.0093948984015113
2.138335410405498,2.138335410405498
2.0093948984015113,2.0093948984015113
1.6096793111891705,1.6096793111891705
1.0165529559708475,1.0165529559708475
0.4234266007525259,0.4234266007525259
0.030158039140387206,0.030158039140387206
-0.30508729206997337,-0.30508729206997337
-0.5694153416781379,-0.5694153416781379
-0.7628261096841055,-0.7628261096841055
-0.9626839032902766,-0.9626839032902766
-1.0916244152942634,-1.0916244152942634
-1.0916244152942634,-1.0916244152942634
-1.1625416968964601,-1.1625416968964601
-0.8982136472882957,-0.8982136472882957
-0.8337433912863024,-0.8337433912863024
-0.6983558536821122,-0.6983558536821122
-0.7628261096841055,-0.7628261096841055
-0.43402780407394764,-0.43402780407394764
-0.3695575480719675,-0.3695575480719675
-0.16969975446578317,-0.16969975446578317
-0.16969975446578317,-0.16969975446578317
0.030158039140387206,0.030158039140387206
-0.040759242461809654,-0.040759242461809654
-0.10522949846380301,-0.10522949846380301
-0.23417001046777652,-0.23417001046777652
-0.43402780407394764,-0.43402780407394764
-0.6983558536821122,-0.6983558536821122
-0.7628261096841055,-0.7628261096841055
-0.6983558536821122,-0.6983558536821122
-0.7628261096841055,-0.7628261096841055
-0.5694153416781379,-0.5694153416781379
-0.6338855976801312,-0.6338855976801312
-0.6983558536821122,-0.6983558536821122
-0.7628261096841055,-0.7628261096841055
-0.6983558536821122,-0.6983558536821122
-0.7628261096841055,-0.7628261096841055
-0.3695575480719675,-0.3695575480719675
-0.3695575480719675,-0.3695575480719675
-0.16969975446578317,-0.16969975446578317
-0.23417001046777652,-0.23417001046777652
-0.040759242461809654,-0.040759242461809654
-0.23417001046777652,-0.23417001046777652
-0.16969975446578317,-0.16969975446578317
-0.43402780407394764,-0.43402780407394764
-0.43402780407394764,-0.43402780407394764
-0.6983558536821122,-0.6983558536821122
-0.5694153416781379,-0.5694153416781379
-0.498498060075941,-0.498498060075941
-0.6338855976801312,-0.6338855976801312
-0.43402780407394764,-0.43402780407394764
-0.498498060075941,-0.498498060075941
-0.5694153416781379,-0.5694153416781379
-0.5694153416781379,-0.5694153416781379
-0.6338855976801312,-0.6338855976801312
-0.3695575480719675,-0.3695575480719675
-0.16969975446578317,-0.16969975446578317
-0.10522949846380301,-0.10522949846380301
0.030158039140387206,0.030158039140387206
0.15909855114436147,0.15909855114436147
0.22356880714635483,0.22356880714635483
-0.040759242461809654,-0.040759242461809654
-0.10522949846380301,-0.10522949846380301
-0.3695575480719675,-0.3695575480719675
-0.3695575480719675,-0.3695575480719675
-0.5694153416781379,-0.5694153416781379
-0.6338855976801312,-0.6338855976801312
0.8166951623646771,0.8166951623646771
3.260117864840137,3.260117864840137
4.2529598072708135,4.2529598072708135
2.3381932040116693,2.3381932040116693
-0.23417001046777652,-0.23417001046777652
-0.7628261096841055,-0.7628261096841055
-0.9626839032902766,-0.9626839032902766
-0.498498060075941,-0.498498060075941
-0.10522949846380301,-0.10522949846380301
0.28803906314834815,0.28803906314834815
0.48789685675451927,0.48789685675451927
0.35895634475053184,0.35895634475053184
0.4234266007525259,0.4234266007525259
0.28803906314834815,0.28803906314834815
0.15909855114436147,0.15909855114436147
0.030158039140387206,0.030158039140387206
-0.040759242461809654,-0.040759242461809654
0.030158039140387206,0.030158039140387206
0.15909855114436147,0.15909855114436147
0.09462829514236812,0.09462829514236812
0.35895634475053184,0.35895634475053184
0.09462829514236812,0.09462829514236812
0.15909855114436147,0.15909855114436147
0.09462829514236812,0.09462829514236812
0.28803906314834815,0.28803906314834815
0.28803906314834815,0.28803906314834815
0.5523671127565126,0.5523671127565126
0.6877546503606897,0.6877546503606897
0.9520826999688542,0.9520826999688542
1.0165529559708475,1.0165529559708475
1.416268543183189,1.416268543183189
1.480738799185183,1.480738799185183
1.3453512615810053,1.3453512615810053
1.5452090551871764,1.5452090551871764
1.7450668487933476,1.7450668487933476
1.8095371047953401,1.8095371047953401
2.0738651544035056,2.0738651544035056
2.138335410405498,2.138335410405498
2.0093948984015113,2.0093948984015113
1.7450668487933476,1.7450668487933476
1.480738799185183,1.480738799185183
1.280881005579012,1.280881005579012
0.6877546503606897,0.6877546503606897
0.35895634475053184,0.35895634475053184
-0.040759242461809654,-0.040759242461809654
-0.16969975446578317,-0.16969975446578317
-0.3695575480719675,-0.3695575480719675
-0.23417001046777652,-0.23417001046777652
-0.30508729206997337,-0.30508729206997337
-0.23417001046777652,-0.23417001046777652
-0.498498060075941,-0.498498060075941
-0.43402780407394764,-0.43402780407394764
-0.498498060075941,-0.498498060075941
-0.43402780407394764,-0.43402780407394764
-0.498498060075941,-0.498498060075941
-0.43402780407394764,-0.43402780407394764
-0.6983558536821122,-0.6983558536821122
-0.6983558536821122,-0.6983558536821122
-0.6338855976801312,-0.6338855976801312
-0.6983558536821122,-0.6983558536821122
-0.3695575480719675,-0.3695575480719675
-0.23417001046777652,-0.23417001046777652
-0.10522949846380301,-0.10522949846380301
-0.30508729206997337,-0.30508729206997337
-0.23417001046777652,-0.23417001046777652
-0.3695575480719675,-0.3695575480719675
-0.30508729206997337,-0.30508729206997337
-0.3695575480719675,-0.3695575480719675
-0.23417001046777652,-0.23417001046777652
-0.30508729206997337,-0.30508729206997337
-0.3695575480719675,-0.3695575480719675
-0.43402780407394764,-0.43402780407394764
-0.3695575480719675,-0.3695575480719675
-0.6983558536821122,-0.6983558536821122
-0.7628261096841055,-0.7628261096841055
-0.8982136472882957,-0.8982136472882957
-0.6983558536821122,-0.6983558536821122
-0.6983558536821122,-0.6983558536821122
-0.6983558536821122,-0.6983558536821122
-0.5694153416781379,-0.5694153416781379
-0.10522949846380301,-0.10522949846380301
-0.040759242461809654,-0.040759242461809654
-0.040759242461809654,-0.040759242461809654
-0.23417001046777652,-0.23417001046777652
-0.3695575480719675,-0.3695575480719675
-0.43402780407394764,-0.43402780407394764
-0.498498060075941,-0.498498060075941
-0.30508729206997337,-0.30508729206997337
-0.10522949846380301,-0.10522949846380301
-0.040759242461809654,-0.040759242461809654
-0.10522949846380301,-0.10522949846380301
-0.10522949846380301,-0.10522949846380301
-0.16969975446578317,-0.16969975446578317
-0.040759242461809654,-0.040759242461809654
-0.23417001046777652,-0.23417001046777652
-0.498498060075941,-0.498498060075941
-0.040759242461809654,-0.040759242461809654
2.0738651544035056,2.0738651544035056
4.18848955126882,4.18848955126882
4.646228368882951,4.646228368882951
1.280881005579012,1.280881005579012
-0.8982136472882957,-0.8982136472882957
-1.0916244152942634,-1.0916244152942634
-1.2270119528984404,-1.2270119528984404
-0.8337433912863024,-0.8337433912863024
-0.498498060075941,-0.498498060075941
-0.3695575480719675,-0.3695575480719675
-0.30508729206997337,-0.30508729206997337
-0.3695575480719675,-0.3695575480719675
-0.23417001046777652,-0.23417001046777652
-0.10522949846380301,-0.10522949846380301
-0.040759242461809654,-0.040759242461809654
-0.16969975446578317,-0.16969975446578317
-0.10522949846380301,-0.10522949846380301
-0.040759242461809654,-0.040759242461809654
-0.040759242461809654,-0.040759242461809654
0.09462829514236812,0.09462829514236812
0.22356880714635483,0.22356880714635483
0.4234266007525259,0.4234266007525259
0.48789685675451927,0.48789685675451927
0.7522249063626838,0.7522249063626838
0.8166951623646771,0.8166951623646771
0.6877546503606897,0.6877546503606897
0.5523671127565126,0.5523671127565126
0.6232843943586963,0.6232843943586963
0.6877546503606897,0.6877546503606897
1.0165529559708475,1.0165529559708475
1.0810232119728416,1.0810232119728416
1.3453512615810053,1.3453512615810053
1.416268543183189,1.416268543183189
1.6741495671911633,1.6741495671911633
1.8095371047953401,1.8095371047953401
2.138335410405498,2.138335410405498
2.202805666407492,2.202805666407492
2.138335410405498,2.138335410405498
2.202805666407492,2.202805666407492
2.0738651544035056,2.0738651544035056
1.416268543183189,1.416268543183189
0.8166951623646771,0.8166951623646771
0.28803906314834815,0.28803906314834815
-0.040759242461809654,-0.040759242461809654
-0.498498060075941,-0.498498060075941
-0.8982136472882957,-0.8982136472882957
-0.9626839032902766,-0.9626839032902766
-0.9626839032902766,-0.9626839032902766
-0.8982136472882957,-0.8982136472882957
-0.9626839032902766,-0.9626839032902766
-0.9626839032902766,-0.9626839032902766
-1.02715415929227,-1.02715415929227
-0.8982136472882957,-0.8982136472882957
-0.9626839032902766,-0.9626839032902766
-0.8337433912863024,-0.8337433912863024
-0.6983558536821122,-0.6983558536821122
-0.498498060075941,-0.498498060075941
-0.498498060075941,-0.498498060075941
-0.3695575480719675,-0.3695575480719675
-0.3695575480719675,-0.3695575480719675
-0.498498060075941,-0.498498060075941
-0.6338855976801312,-0.6338855976801312
0.8876124439668608,0.8876124439668608
3.3245881208421295,3.3245881208421295
4.317430063272793,4.317430063272793
1.480738799185183,1.480738799185183
-2.084466357724927,-2.084466357724927
-2.2843241513310977,-2.2843241513310977
-1.02715415929227,-1.02715415929227
-0.5694153416781379,-0.5694153416781379
-0.43402780407394764,-0.43402780407394764
-0.3695575480719675,-0.3695575480719675
-0.7628261096841055,-0.7628261096841055
-1.02715415929227,-1.02715415929227
-1.0916244152942634,-1.0916244152942634
-0.8982136472882957,-0.8982136472882957
-0.8982136472882957,-0.8982136472882957
-0.6338855976801312,-0.6338855976801312
-0.6338855976801312,-0.6338855976801312
-0.3695575480719675,-0.3695575480719675
-0.43402780407394764,-0.43402780407394764
-0.3695575480719675,-0.3695575480719675
-0.43402780407394764,-0.43402780407394764
-0.23417001046777652,-0.23417001046777652
-0.16969975446578317,-0.16969975446578317
0.22356880714635483,0.22356880714635483
0.4234266007525259,0.4234266007525259
0.6232843943586963,0.6232843943586963
0.6232843943586963,0.6232843943586963
0.8876124439668608,0.8876124439668608
0.6877546503606897,0.6877546503606897
0.6232843943586963,0.6232843943586963
0.6877546503606897,0.6877546503606897
0.5523671127565126,0.5523671127565126
0.8166951623646771,0.8166951623646771
0.8876124439668608,0.8876124439668608
1.0165529559708475,1.0165529559708475
1.0810232119728416,1.0810232119728416
1.1519404935750253,1.1519404935750253
0.7522249063626838,0.7522249063626838
0.4234266007525259,0.4234266007525259
0.030158039140387206,0.030158039140387206
-0.23417001046777652,-0.23417001046777652
-0.6338855976801312,-0.6338855976801312
-0.5694153416781379,-0.5694153416781379
-0.5694153416781379,-0.5694153416781379
-0.3695575480719675,-0.3695575480719675
-0.16969975446578317,-0.16969975446578317
-0.040759242461809654,-0.040759242461809654
-0.23417001046777652,-0.23417001046777652
-0.30508729206997337,-0.30508729206997337
-0.5694153416781379,-0.5694153416781379
-0.6338855976801312,-0.6338855976801312
-0.7628261096841055,-0.7628261096841055
-0.9626839032902766,-0.9626839032902766
-1.1625416968964601,-1.1625416968964601
-1.2914822089004345,-1.2914822089004345
-1.2914822089004345,-1.2914822089004345
-1.2914822089004345,-1.2914822089004345
-1.4268697465046247,-1.4268697465046247
-1.5558102585085982,-1.5558102585085982
-1.2914822089004345,-1.2914822089004345
-1.02715415929227,-1.02715415929227
-0.8337433912863024,-0.8337433912863024
-0.6983558536821122,-0.6983558536821122
-0.498498060075941,-0.498498060075941
-0.43402780407394764,-0.43402780407394764
-0.30508729206997337,-0.30508729206997337
-0.3695575480719675,-0.3695575480719675
-0.43402780407394764,-0.43402780407394764
-0.6983558536821122,-0.6983558536821122
-0.6338855976801312,-0.6338855976801312
-0.7628261096841055,-0.7628261096841055
-0.6983558536821122,-0.6983558536821122
-0.8982136472882957,-0.8982136472882957
-0.7628261096841055,-0.7628261096841055
-0.9626839032902766,-0.9626839032902766
-0.8982136472882957,-0.8982136472882957
-0.9626839032902766,-0.9626839032902766
-0.8337433912863024,-0.8337433912863024
-0.5694153416781379,-0.5694153416781379
-0.5694153416781379,-0.5694153416781379
-0.498498060075941,-0.498498060075941
-0.5694153416781379,-0.5694153416781379
-0.3695575480719675,-0.3695575480719675
-0.30508729206997337,-0.30508729206997337
-0.23417001046777652,-0.23417001046777652
-0.3695575480719675,-0.3695575480719675
-0.43402780407394764,-0.43402780407394764
-0.6338855976801312,-0.6338855976801312
-0.6338855976801312,-0.6338855976801312
-0.7628261096841055,-0.7628261096841055
-0.6983558536821122,-0.6983558536821122
-0.7628261096841055,-0.7628261096841055
-0.6983558536821122,-0.6983558536821122
-0.8337433912863024,-0.8337433912863024
-0.5694153416781379,-0.5694153416781379
-0.5694153416781379,-0.5694153416781379
-0.3695575480719675,-0.3695575480719675
-0.3695575480719675,-0.3695575480719675
-0.16969975446578317,-0.16969975446578317
-0.10522949846380301,-0.10522949846380301
-0.040759242461809654,-0.040759242461809654
-0.10522949846380301,-0.10522949846380301
-0.040759242461809654,-0.040759242461809654
-0.16969975446578317,-0.16969975446578317
-0.23417001046777652,-0.23417001046777652
-0.43402780407394764,-0.43402780407394764
-0.498498060075941,-0.498498060075941
-0.498498060075941,-0.498498060075941
-0.3695575480719675,-0.3695575480719675
-0.6983558536821122,-0.6983558536821122
0.35895634475053184,0.35895634475053184
2.731461765623821,2.731461765623821
4.117572269666622,4.117572269666622
2.5380509976178405,2.5380509976178405
-0.30508729206997337,-0.30508729206997337
-0.9626839032902766,-0.9626839032902766
-1.2914822089004345,-1.2914822089004345
-0.8982136472882957,-0.8982136472882957
-0.43402780407394764,-0.43402780407394764
0.09462829514236812,0.09462829514236812
0.22356880714635483,0.22356880714635483
0.28803906314834815,0.28803906314834815
0.22356880714635483,0.22356880714635483
0.22356880714635483,0.22356880714635483
-0.10522949846380301,-0.10522949846380301
-0.23417001046777652,-0.23417001046777652
-0.43402780407394764,-0.43402780407394764
-0.5694153416781379,-0.5694153416781379
-0.43402780407394764,-0.43402780407394764
-0.3695575480719675,-0.3695575480719675
-0.16969975446578317,-0.16969975446578317
-0.10522949846380301,-0.10522949846380301
0.09462829514236812,0.09462829514236812
0.22356880714635483,0.22356880714635483
0.35895634475053184,0.35895634475053184
0.28803906314834815,0.28803906314834815
0.4234266007525259,0.4234266007525259
0.5523671127565126,0.5523671127565126
0.8166951623646771,0.8166951623646771
0.8876124439668608,0.8876124439668608
1.1519404935750253,1.1519404935750253
1.2164107495770187,1.2164107495770187
1.416268543183189,1.416268543183189
1.480738799185183,1.480738799185183
1.6096793111891705,1.6096793111891705
1.5452090551871764,1.5452090551871764
1.5452090551871764,1.5452090551871764
1.5452090551871764,1.5452090551871764
1.6096793111891705,1.6096793111891705
1.480738799185183,1.480738799185183
1.480738799185183,1.480738799185183
1.2164107495770187,1.2164107495770187
0.6877546503606897,0.6877546503606897
0.22356880714635483,0.22356880714635483
-0.040759242461809654,-0.040759242461809654
-0.3695575480719675,-0.3695575480719675
-0.5694153416781379,-0.5694153416781379
-0.6983558536821122,-0.6983558536821122
-0.6983558536821122,-0.6983558536821122
-0.6338855976801312,-0.6338855976801312
-0.6983558536821122,-0.6983558536821122
-0.6983558536821122,-0.6983558536821122
-0.6983558536821122,-0.6983558536821122
-0.7628261096841055,-0.7628261096841055
-0.9626839032902766,-0.9626839032902766
-0.8337433912863024,-0.8337433912863024
-0.6983558536821122,-0.6983558536821122
-0.498498060075941,-0.498498060075941
-0.43402780407394764,-0.43402780407394764
-0.23417001046777652,-0.23417001046777652
-0.040759242461809654,-0.040759242461809654
0.28803906314834815,0.28803906314834815
0.28803906314834815,0.28803906314834815
0.22356880714635483,0.22356880714635483
-0.16969975446578317,-0.16969975446578317
-0.3695575480719675,-0.3695575480719675
-0.498498060075941,-0.498498060075941
-0.5694153416781379,-0.5694153416781379
-0.498498060075941,-0.498498060075941
-0.6338855976801312,-0.6338855976801312
-0.7628261096841055,-0.7628261096841055
-0.8337433912863024,-0.8337433912863024
-0.7628261096841055,-0.7628261096841055
-0.8337433912863024,-0.8337433912863024
-0.7628261096841055,-0.7628261096841055
-0.7628261096841055,-0.7628261096841055
-0.6983558536821122,-0.6983558536821122
-0.6338855976801312,-0.6338855976801312
-0.3695575480719675,-0.3695575480719675
-0.3695575480719675,-0.3695575480719675
-0.10522949846380301,-0.10522949846380301
-0.16969975446578317,-0.16969975446578317
-0.040759242461809654,-0.040759242461809654
-0.10522949846380301,-0.10522949846380301
-0.23417001046777652,-0.23417001046777652
-0.43402780407394764,-0.43402780407394764
-0.5694153416781379,-0.5694153416781379
-0.6983558536821122,-0.6983558536821122
-0.6338855976801312,-0.6338855976801312
-0.5694153416781379,-0.5694153416781379
-0.9626839032902766,-0.9626839032902766
-0.23417001046777652,-0.23417001046777652
1.9384776167993283,1.9384776167993283
3.8532442200584582,3.8532442200584582
2.866849303227998,2.866849303227998
0.030158039140387206,0.030158039140387206
-1.2270119528984404,-1.2270119528984404
-1.0916244152942634,-1.0916244152942634
-1.4268697465046247,-1.4268697465046247
-0.7628261096841055,-0.7628261096841055
-0.23417001046777652,-0.23417001046777652
0.09462829514236812,0.09462829514236812
0.030158039140387206,0.030158039140387206
0.09462829514236812,0.09462829514236812
-0.10522949846380301,-0.10522949846380301
-0.23417001046777652,-0.23417001046777652
-0.3695575480719675,-0.3695575480719675
-0.30508729206997337,-0.30508729206997337
-0.30508729206997337,-0.30508729206997337
-0.16969975446578317,-0.16969975446578317
-0.3695575480719675,-0.3695575480719675
-0.23417001046777652,-0.23417001046777652
-0.3695575480719675,-0.3695575480719675
-0.30508729206997337,-0.30508729206997337
-0.16969975446578317,-0.16969975446578317
0.030158039140387206,0.030158039140387206
0.15909855114436147,0.15909855114436147
0.35895634475053184,0.35895634475053184
0.48789685675451927,0.48789685675451927
0.8166951623646771,0.8166951623646771
0.9520826999688542,0.9520826999688542
1.2164107495770187,1.2164107495770187
1.416268543183189,1.416268543183189
1.2164107495770187,1.2164107495770187
1.3453512615810053,1.3453512615810053
1.5452090551871764,1.5452090551871764
1.6741495671911633,1.6741495671911633
1.8095371047953401,1.8095371047953401
1.8740073607973342,1.8740073607973342
1.6096793111891705,1.6096793111891705
1.480738799185183,1.480738799185183
1.0165529559708475,1.0165529559708475
0.5523671127565126,0.5523671127565126
0.030158039140387206,0.030158039140387206
-0.23417001046777652,-0.23417001046777652
-0.43402780407394764,-0.43402780407394764
-0.3695575480719675,-0.3695575480719675
-0.3695575480719675,-0.3695575480719675
-0.040759242461809654,-0.040759242461809654
-0.040759242461809654,-0.040759242461809654
-0.040759242461809654,-0.040759242461809654
-0.16969975446578317,-0.16969975446578317
-0.10522949846380301,-0.10522949846380301
-0.3695575480719675,-0.3695575480719675
-0.3695575480719675,-0.3695575480719675
-0.6338855976801312,-0.6338855976801312
-0.9626839032902766,-0.9626839032902766
-1.0916244152942634,-1.0916244152942634
-1.1625416968964601,-1.1625416968964601
-1.2914822089004345,-1.2914822089004345
-1.4268697465046247,-1.4268697465046247
-1.3559524649024277,-1.3559524649024277
-1.4913400025066048,-1.4913400025066048
-1.2914822089004345,-1.2914822089004345
-1.2914822089004345,-1.2914822089004345
-0.9626839032902766,-0.9626839032902766
-0.9626839032902766,-0.9626839032902766
-0.8982136472882957,-0.8982136472882957
-0.8337433912863024,-0.8337433912863024
-0.43402780407394764,-0.43402780407394764
-0.10522949846380301,-0.10522949846380301
0.22356880714635483,0.22356880714635483
-0.040759242461809654,-0.040759242461809654
0.09462829514236812,0.09462829514236812
-0.040759242461809654,-0.040759242461809654
-0.040759242461809654,-0.040759242461809654
-0.16969975446578317,-0.16969975446578317
-0.30508729206997337,-0.30508729206997337
-0.498498060075941,-0.498498060075941
-0.6983558536821122,-0.6983558536821122
-0.9626839032902766,-0.9626839032902766
-0.9626839032902766,-0.9626839032902766
-1.02715415929227,-1.02715415929227
-0.9626839032902766,-0.9626839032902766
-0.8982136472882957,-0.8982136472882957
-1.02715415929227,-1.02715415929227
-0.9626839032902766,-0.9626839032902766
-0.7628261096841055,-0.7628261096841055
-0.6338855976801312,-0.6338855976801312
-0.3695575480719675,-0.3695575480719675
0.030158039140387206,0.030158039140387206
0.15909855114436147,0.15909855114436147
0.28803906314834815,0.28803906314834815
0.28803906314834815,0.28803906314834815
0.35895634475053184,0.35895634475053184
-0.040759242461809654,-0.040759242461809654
-0.23417001046777652,-0.23417001046777652
-0.5694153416781379,-0.5694153416781379
-0.5694153416781379,-0.5694153416781379
-0.8337433912863024,-0.8337433912863024
-0.7628261096841055,-0.7628261096841055
-0.8982136472882957,-0.8982136472882957
-0.9626839032902766,-0.9626839032902766
-1.0916244152942634,-1.0916244152942634
-0.8982136472882957,-0.8982136472882957
-0.8337433912863024,-0.8337433912863024
-0.9626839032902766,-0.9626839032902766
-0.6338855976801312,-0.6338855976801312
-0.3695575480719675,-0.3695575480719675
-0.040759242461809654,-0.040759242461809654
0.22356880714635483,0.22356880714635483
0.4234266007525259,0.4234266007525259
0.28803906314834815,0.28803906314834815
0.15909855114436147,0.15909855114436147
0.09462829514236812,0.09462829514236812
0.030158039140387206,0.030158039140387206
-0.23417001046777652,-0.23417001046777652
-0.3695575480719675,-0.3695575480719675
-0.3695575480719675,-0.3695575480719675
-0.30508729206997337,-0.30508729206997337
-0.6983558536821122,-0.6983558536821122
-0.6338855976801312,-0.6338855976801312
-0.6338855976801312,-0.6338855976801312
-0.6338855976801312,-0.6338855976801312
-0.6338855976801312,-0.6338855976801312
-0.43402780407394764,-0.43402780407394764
-0.6983558536821122,-0.6983558536821122
0.48789685675451927,0.48789685675451927
2.866849303227998,2.866849303227998
4.910556418491116,4.910556418491116
3.924161501660656,3.924161501660656
1.280881005579012,1.280881005579012
0.09462829514236812,0.09462829514236812
-0.3695575480719675,-0.3695575480719675
-0.6983558536821122,-0.6983558536821122
-0.498498060075941,-0.498498060075941
-0.5694153416781379,-0.5694153416781379
-0.6338855976801312,-0.6338855976801312
-0.5694153416781379,-0.5694153416781379
-0.6338855976801312,-0.6338855976801312
-0.3695575480719675,-0.3695575480719675
-0.43402780407394764,-0.43402780407394764
-0.23417001046777652,-0.23417001046777652
-0.10522949846380301,-0.10522949846380301
0.22356880714635483,0.22356880714635483
0.35895634475053184,0.35895634475053184
0.48789685675451927,0.48789685675451927
0.4234266007525259,0.4234266007525259
0.6877546503606897,0.6877546503606897
0.6232843943586963,0.6232843943586963
0.5523671127565126,0.5523671127565126
0.28803906314834815,0.28803906314834815
0.4234266007525259,0.4234266007525259
0.22356880714635483,0.22356880714635483
-0.040759242461809654,-0.040759242461809654
-0.040759242461809654,-0.040759242461809654
0.09462829514236812,0.09462829514236812
0.15909855114436147,0.15909855114436147
0.35895634475053184,0.35895634475053184
0.5523671127565126,0.5523671127565126
0.8166951623646771,0.8166951623646771
1.2164107495770187,1.2164107495770187
1.6096793111891705,1.6096793111891705
2.0738651544035056,2.0738651544035056
2.138335410405498,2.138335410405498
2.3381932040116693,2.3381932040116693
2.138335410405498,2.138335410405498
2.0093948984015113,2.0093948984015113
1.416268543183189,1.416268543183189
0.9520826999688542,0.9520826999688542
0.48789685675451927,0.48789685675451927
0.030158039140387206,0.030158039140387206
-0.5694153416781379,-0.5694153416781379
-0.8337433912863024,-0.8337433912863024
-1.02715415929227,-1.02715415929227
-0.9626839032902766,-0.9626839032902766
-1.0916244152942634,-1.0916244152942634
-1.02715415929227,-1.02715415929227
-0.9626839032902766,-0.9626839032902766
-0.7628261096841055,-0.7628261096841055
-0.5694153416781379,-0.5694153416781379
-0.3695575480719675,-0.3695575480719675
-0.040759242461809654,-0.040759242461809654
0.09462829514236812,0.09462829514236812
0.22356880714635483,0.22356880714635483
0.09462829514236812,0.09462829514236812
-0.040759242461809654,-0.040759242461809654
-0.10522949846380301,-0.10522949846380301
-0.040759242461809654,-0.040759242461809654
-0.16969975446578317,-0.16969975446578317
-0.23417001046777652,-0.23417001046777652
-0.6983558536821122,-0.6983558536821122
-0.6983558536821122,-0.6983558536821122
-0.8337433912863024,-0.8337433912863024
-0.7628261096841055,-0.7628261096841055
-0.8337433912863024,-0.8337433912863024
-0.6983558536821122,-0.6983558536821122
-0.7628261096841055,-0.7628261096841055
-0.43402780407394764,-0.43402780407394764
-0.30508729206997337,-0.30508729206997337
-0.16969975446578317,-0.16969975446578317
-0.23417001046777652,-0.23417001046777652
-0.10522949846380301,-0.10522949846380301
-0.040759242461809654,-0.040759242461809654
-0.16969975446578317,-0.16969975446578317
-0.43402780407394764,-0.43402780407394764
-0.5694153416781379,-0.5694153416781379
-0.498498060075941,-0.498498060075941
-0.6338855976801312,-0.6338855976801312
-0.498498060075941,-0.498498060075941
-0.8337433912863024,-0.8337433912863024
-0.7628261096841055,-0.7628261096841055
-0.8337433912863024,-0.8337433912863024
-0.6983558536821122,-0.6983558536821122
-0.6983558536821122,-0.6983558536821122
-0.498498060075941,-0.498498060075941
-0.6983558536821122,-0.6983558536821122
-0.16969975446578317,-0.16969975446578317
1.8740073607973342,1.8740073607973342
4.2529598072708135,4.2529598072708135
4.581758112880959,4.581758112880959
1.5452090551871764,1.5452090551871764
-0.5694153416781379,-0.5694153416781379
-0.6338855976801312,-0.6338855976801312
-0.43402780407394764,-0.43402780407394764
-0.30508729206997337,-0.30508729206997337
-0.3695575480719675,-0.3695575480719675
-0.23417001046777652,-0.23417001046777652
-0.3695575480719675,-0.3695575480719675
-0.23417001046777652,-0.23417001046777652
-0.30508729206997337,-0.30508729206997337
-0.3695575480719675,-0.3695575480719675
-0.23417001046777652,-0.23417001046777652
-0.30508729206997337,-0.30508729206997337
-0.16969975446578317,-0.16969975446578317
-0.10522949846380301,-0.10522949846380301
0.030158039140387206,0.030158039140387206
