ECG,PPG
0.19822525259247603,0.19822525259247603
0.1644392113351573,0.1644392113351573
0.19822525259247603,0.19822525259247603
0.2903690014760782,0.2903690014760782
0.35486962569460634,0.35486962569460634
0.45008483287433054,0.45008483287433054
0.4807994158355333,0.4807994158355333
0.5115139987967364,0.5115139987967364
0.41629879161700556,0.41629879161700556
0.2903690014760782,0.2903690014760782
0.19822525259247603,0.19822525259247603
0.1644392113351573,0.1644392113351573
0.19822525259247603,0.19822525259247603
0.22893983555367897,0.22893983555367897
0.22893983555367897,0.22893983555367897
0.1644392113351573,0.1644392113351573
0.038509421194230134,0.038509421194230134
-0.05363432768937847,-0.05363432768937847
-0.08434891065058123,-0.08434891065058123
-0.11813495190789997,-0.11813495190789997
-0.2440647420488273,-0.2440647420488273
-0.305493907971233,-0.305493907971233
-0.33620849093243593,-0.33620849093243593
-0.27477932501003005,-0.27477932501003005
-0.2440647420488273,-0.2440647420488273
-0.17956411783030565,-0.17956411783030565
-0.11813495190789997,-0.11813495190789997
-0.08434891065058123,-0.08434891065058123
-0.05363432768937847,-0.05363432768937847
-0.05363432768937847,-0.05363432768937847
0.007794838233027209,0.007794838233027209
0.10301004541275162,0.10301004541275162
0.38558420865580906,0.38558420865580906
0.9200179521807146,0.9200179521807146
1.4851662786668294,1.4851662786668294
1.6755966930262784,1.6755966930262784
1.3930225297832208,1.3930225297832208
0.5760146230152579,0.5760146230152579
-1.1870024389577218,-1.1870024389577218
-3.859171156582271,-3.859171156582271
-4.455034066029588,-4.455034066029588
-4.455034066029588,-4.455034066029588
-2.8210182524936562,-2.8210182524936562
-1.1562878559965204,-1.1562878559965204
-0.305493907971233,-0.305493907971233
0.007794838233027209,0.007794838233027209
0.13372462837395455,0.13372462837395455
0.1644392113351573,0.1644392113351573
0.13372462837395455,0.13372462837395455
0.13372462837395455,0.13372462837395455
0.19822525259247603,0.19822525259247603
0.22893983555367897,0.22893983555367897
0.2903690014760782,0.2903690014760782
0.35486962569460634,0.35486962569460634
0.38558420865580906,0.38558420865580906
0.45008483287433054,0.45008483287433054
0.4807994158355333,0.4807994158355333
0.4807994158355333,0.4807994158355333
0.4807994158355333,0.4807994158355333
0.5115139987967364,0.5115139987967364
0.45008483287433054,0.45008483287433054
0.4807994158355333,0.4807994158355333
0.45008483287433054,0.45008483287433054
0.38558420865580906,0.38558420865580906
0.35486962569460634,0.35486962569460634
0.35486962569460634,0.35486962569460634
0.32415504273340323,0.32415504273340323
0.2903690014760782,0.2903690014760782
0.22893983555367897,0.22893983555367897
0.1644392113351573,0.1644392113351573
0.13372462837395455,0.13372462837395455
0.07229546245154887,0.07229546245154887
0.07229546245154887,0.07229546245154887
0.038509421194230134,0.038509421194230134
0.038509421194230134,0.038509421194230134
-0.05363432768937847,-0.05363432768937847
-0.05363432768937847,-0.05363432768937847
-0.05363432768937847,-0.05363432768937847
0.007794838233027209,0.007794838233027209
0.007794838233027209,0.007794838233027209
0.07229546245154887,0.07229546245154887
0.10301004541275162,0.10301004541275162
0.1644392113351573,0.1644392113351573
0.1644392113351573,0.1644392113351573
0.19822525259247603,0.19822525259247603
0.25965441851488175,0.25965441851488175
0.2903690014760782,0.2903690014760782
0.2903690014760782,0.2903690014760782
0.32415504273340323,0.32415504273340323
0.32415504273340323,0.32415504273340323
0.32415504273340323,0.32415504273340323
0.2903690014760782,0.2903690014760782
0.25965441851488175,0.25965441851488175
0.2903690014760782,0.2903690014760782
0.2903690014760782,0.2903690014760782
0.25965441851488175,0.25965441851488175
0.1644392113351573,0.1644392113351573
0.10301004541275162,0.10301004541275162
0.038509421194230134,0.038509421194230134
0.007794838233027209,0.007794838233027209
0.007794838233027209,0.007794838233027209
0.007794838233027209,0.007794838233027209
-0.05363432768937847,-0.05363432768937847
-0.08434891065058123,-0.08434891065058123
-0.11813495190789997,-0.11813495190789997
-0.11813495190789997,-0.11813495190789997
-0.08434891065058123,-0.08434891065058123
-0.05363432768937847,-0.05363432768937847
0.007794838233027209,0.007794838233027209
0.07229546245154887,0.07229546245154887
0.07229546245154887,0.07229546245154887
0.038509421194230134,0.038509421194230134
0.038509421194230134,0.038509421194230134
0.07229546245154887,0.07229546245154887
0.13372462837395455,0.13372462837395455
0.1644392113351573,0.1644392113351573
0.1644392113351573,0.1644392113351573
0.13372462837395455,0.13372462837395455
0.13372462837395455,0.13372462837395455
0.13372462837395455,0.13372462837395455
0.07229546245154887,0.07229546245154887
0.07229546245154887,0.07229546245154887
0.13372462837395455,0.13372462837395455
0.5422285817579329,0.5422285817579329
1.1411629495013664,1.1411629495013664
1.549666902885351,1.549666902885351
1.580381485846554,1.580381485846554
0.9200179521807146,0.9200179521807146
-0.2440647420488273,-0.2440647420488273
-2.4125142991096715,-2.4125142991096715
-4.455034066029588,-4.455034066029588
-4.455034066029588,-4.455034066029588
-3.324737413057365,-3.324737413057365
-1.626220975302907,-1.626220975302907
-0.621854112471609,-0.621854112471609
-0.27477932501003005,-0.27477932501003005
-0.022919744728175543,-0.022919744728175543
0.25965441851488175,0.25965441851488175
0.41629879161700556,0.41629879161700556
0.41629879161700556,0.41629879161700556
0.38558420865580906,0.38558420865580906
0.41629879161700556,0.41629879161700556
0.4807994158355333,0.4807994158355333
0.5115139987967364,0.5115139987967364
0.5760146230152579,0.5760146230152579
0.6067292059764606,0.6067292059764606
0.6374437889376634,0.6374437889376634
0.5760146230152579,0.5760146230152579
0.5760146230152579,0.5760146230152579
0.5115139987967364,0.5115139987967364
0.4807994158355333,0.4807994158355333
0.4807994158355333,0.4807994158355333
0.45008483287433054,0.45008483287433054
0.41629879161700556,0.41629879161700556
0.41629879161700556,0.41629879161700556
0.38558420865580906,0.38558420865580906
0.32415504273340323,0.32415504273340323
0.2903690014760782,0.2903690014760782
0.25965441851488175,0.25965441851488175
0.22893983555367897,0.22893983555367897
0.22893983555367897,0.22893983555367897
0.25965441851488175,0.25965441851488175
0.22893983555367897,0.22893983555367897
0.19822525259247603,0.19822525259247603
0.19822525259247603,0.19822525259247603
0.1644392113351573,0.1644392113351573
0.13372462837395455,0.13372462837395455
0.13372462837395455,0.13372462837395455
0.13372462837395455,0.13372462837395455
0.1644392113351573,0.1644392113351573
0.13372462837395455,0.13372462837395455
0.10301004541275162,0.10301004541275162
0.13372462837395455,0.13372462837395455
0.19822525259247603,0.19822525259247603
0.25965441851488175,0.25965441851488175
0.32415504273340323,0.32415504273340323
0.35486962569460634,0.35486962569460634
0.2903690014760782,0.2903690014760782
0.19822525259247603,0.19822525259247603
0.1644392113351573,0.1644392113351573
0.1644392113351573,0.1644392113351573
0.13372462837395455,0.13372462837395455
0.10301004541275162,0.10301004541275162
0.13372462837395455,0.13372462837395455
0.13372462837395455,0.13372462837395455
0.07229546245154887,0.07229546245154887
0.038509421194230134,0.038509421194230134
0.038509421194230134,0.038509421194230134
0.038509421194230134,0.038509421194230134
0.007794838233027209,0.007794838233027209
-0.05363432768937847,-0.05363432768937847
-0.08434891065058123,-0.08434891065058123
-0.14884953486910288,-0.14884953486910288
-0.17956411783030565,-0.17956411783030565
-0.17956411783030565,-0.17956411783030565
-0.17956411783030565,-0.17956411783030565
-0.17956411783030565,-0.17956411783030565
-0.17956411783030565,-0.17956411783030565
-0.14884953486910288,-0.14884953486910288
-0.14884953486910288,-0.14884953486910288
-0.11813495190789997,-0.11813495190789997
-0.08434891065058123,-0.08434891065058123
-0.05363432768937847,-0.05363432768937847
0.007794838233027209,0.007794838233027209
-0.05363432768937847,-0.05363432768937847
-0.11813495190789997,-0.11813495190789997
-0.17956411783030565,-0.17956411783030565
-0.2440647420488273,-0.2440647420488273
-0.2440647420488273,-0.2440647420488273
-0.2440647420488273,-0.2440647420488273
-0.2440647420488273,-0.2440647420488273
-0.21027870079150857,-0.21027870079150857
-0.17956411783030565,-0.17956411783030565
-0.21027870079150857,-0.21027870079150857
-0.21027870079150857,-0.21027870079150857
-0.2440647420488273,-0.2440647420488273
-0.27477932501003005,-0.27477932501003005
-0.27477932501003005,-0.27477932501003005
-0.2440647420488273,-0.2440647420488273
-0.2440647420488273,-0.2440647420488273
-0.2440647420488273,-0.2440647420488273
-0.14884953486910288,-0.14884953486910288
0.07229546245154887,0.07229546245154887
0.5760146230152579,0.5760146230152579
1.202592115423772,1.202592115423772
1.549666902885351,1.549666902885351
1.611096068807757,1.611096068807757
0.9845185763992427,0.9845185763992427
-0.4314236981121603,-0.4314236981121603
-2.8855188767121778,-2.8855188767121778
-4.455034066029588,-4.455034066029588
-4.455034066029588,-4.455034066029588
-2.8210182524936562,-2.8210182524936562
-1.2177170219189235,-1.2177170219189235
-0.36999453218975464,-0.36999453218975464
-0.05363432768937847,-0.05363432768937847
0.07229546245154887,0.07229546245154887
0.1644392113351573,0.1644392113351573
0.19822525259247603,0.19822525259247603
0.19822525259247603,0.19822525259247603
0.19822525259247603,0.19822525259247603
0.1644392113351573,0.1644392113351573
0.10301004541275162,0.10301004541275162
0.10301004541275162,0.10301004541275162
0.10301004541275162,0.10301004541275162
0.07229546245154887,0.07229546245154887
0.07229546245154887,0.07229546245154887
0.13372462837395455,0.13372462837395455
0.1644392113351573,0.1644392113351573
0.19822525259247603,0.19822525259247603
0.22893983555367897,0.22893983555367897
0.2903690014760782,0.2903690014760782
0.25965441851488175,0.25965441851488175
0.22893983555367897,0.22893983555367897
0.25965441851488175,0.25965441851488175
0.32415504273340323,0.32415504273340323
0.41629879161700556,0.41629879161700556
0.4807994158355333,0.4807994158355333
0.4807994158355333,0.4807994158355333
0.45008483287433054,0.45008483287433054
0.38558420865580906,0.38558420865580906
0.32415504273340323,0.32415504273340323
0.2903690014760782,0.2903690014760782
0.22893983555367897,0.22893983555367897
0.19822525259247603,0.19822525259247603
0.19822525259247603,0.19822525259247603
0.19822525259247603,0.19822525259247603
0.13372462837395455,0.13372462837395455
0.07229546245154887,0.07229546245154887
-0.022919744728175543,-0.022919744728175543
-0.05363432768937847,-0.05363432768937847
-0.05363432768937847,-0.05363432768937847
-0.08434891065058123,-0.08434891065058123
-0.11813495190789997,-0.11813495190789997
-0.11813495190789997,-0.11813495190789997
-0.08434891065058123,-0.08434891065058123
-0.022919744728175543,-0.022919744728175543
0.07229546245154887,0.07229546245154887
0.10301004541275162,0.10301004541275162
0.13372462837395455,0.13372462837395455
0.13372462837395455,0.13372462837395455
0.1644392113351573,0.1644392113351573
0.19822525259247603,0.19822525259247603
0.25965441851488175,0.25965441851488175
0.32415504273340323,0.32415504273340323
0.32415504273340323,0.32415504273340323
0.32415504273340323,0.32415504273340323
0.2903690014760782,0.2903690014760782
0.25965441851488175,0.25965441851488175
0.1644392113351573,0.1644392113351573
0.13372462837395455,0.13372462837395455
0.13372462837395455,0.13372462837395455
0.13372462837395455,0.13372462837395455
0.10301004541275162,0.10301004541275162
0.07229546245154887,0.07229546245154887
0.007794838233027209,0.007794838233027209
-0.022919744728175543,-0.022919744728175543
-0.05363432768937847,-0.05363432768937847
-0.11813495190789997,-0.11813495190789997
-0.17956411783030565,-0.17956411783030565
-0.21027870079150857,-0.21027870079150857
-0.21027870079150857,-0.21027870079150857
-0.14884953486910288,-0.14884953486910288
0.13372462837395455,0.13372462837395455
0.7326589961173879,0.7326589961173879
1.2333066983849748,1.2333066983849748
1.4544516957056266,1.4544516957056266
1.1718775324625692,1.1718775324625692
0.19822525259247603,0.19822525259247603
-1.6569355582641083,-1.6569355582641083
-4.172459902786532,-4.172459902786532
-4.455034066029588,-4.455034066029588
-4.298389692927458,-4.298389692927458
-2.2558699260075414,-2.2558699260075414
-0.7447124443164173,-0.7447124443164173
-0.05363432768937847,-0.05363432768937847
0.19822525259247603,0.19822525259247603
0.2903690014760782,0.2903690014760782
0.35486962569460634,0.35486962569460634
0.38558420865580906,0.38558420865580906
0.41629879161700556,0.41629879161700556
0.38558420865580906,0.38558420865580906
0.35486962569460634,0.35486962569460634
0.35486962569460634,0.35486962569460634
0.35486962569460634,0.35486962569460634
0.32415504273340323,0.32415504273340323
0.22893983555367897,0.22893983555367897
0.19822525259247603,0.19822525259247603
0.19822525259247603,0.19822525259247603
0.22893983555367897,0.22893983555367897
0.2903690014760782,0.2903690014760782
0.32415504273340323,0.32415504273340323
0.32415504273340323,0.32415504273340323
0.32415504273340323,0.32415504273340323
0.2903690014760782,0.2903690014760782
0.25965441851488175,0.25965441851488175
0.19822525259247603,0.19822525259247603
0.1644392113351573,0.1644392113351573
0.19822525259247603,0.19822525259247603
0.22893983555367897,0.22893983555367897
0.2903690014760782,0.2903690014760782
0.38558420865580906,0.38558420865580906
0.41629879161700556,0.41629879161700556
0.41629879161700556,0.41629879161700556
0.35486962569460634,0.35486962569460634
0.2903690014760782,0.2903690014760782
0.25965441851488175,0.25965441851488175
0.22893983555367897,0.22893983555367897
0.19822525259247603,0.19822525259247603
0.19822525259247603,0.19822525259247603
0.22893983555367897,0.22893983555367897
0.19822525259247603,0.19822525259247603
0.1644392113351573,0.1644392113351573
0.13372462837395455,0.13372462837395455
0.07229546245154887,0.07229546245154887
0.038509421194230134,0.038509421194230134
0.038509421194230134,0.038509421194230134
0.07229546245154887,0.07229546245154887
0.07229546245154887,0.07229546245154887
0.13372462837395455,0.13372462837395455
0.13372462837395455,0.13372462837395455
0.1644392113351573,0.1644392113351573
0.1644392113351573,0.1644392113351573
0.13372462837395455,0.13372462837395455
0.13372462837395455,0.13372462837395455
0.1644392113351573,0.1644392113351573
0.19822525259247603,0.19822525259247603
0.22893983555367897,0.22893983555367897
0.25965441851488175,0.25965441851488175
0.25965441851488175,0.25965441851488175
0.22893983555367897,0.22893983555367897
0.22893983555367897,0.22893983555367897
0.19822525259247603,0.19822525259247603
0.13372462837395455,0.13372462837395455
0.038509421194230134,0.038509421194230134
-0.022919744728175543,-0.022919744728175543
-0.08434891065058123,-0.08434891065058123
-0.11813495190789997,-0.11813495190789997
-0.08434891065058123,-0.08434891065058123
-0.08434891065058123,-0.08434891065058123
-0.11813495190789997,-0.11813495190789997
-0.08434891065058123,-0.08434891065058123
0.038509421194230134,0.038509421194230134
0.45008483287433054,0.45008483287433054
0.9507325351419177,0.9507325351419177
1.1411629495013664,1.1411629495013664
1.045947742321642,1.045947742321642
0.41629879161700556,0.41629879161700556
-0.9658574416370697,-0.9658574416370697
-3.355451996018562,-3.355451996018562
-4.455034066029588,-4.455034066029588
-4.455034066029588,-4.455034066029588
-3.386166578979765,-3.386166578979765
-1.5955063923417054,-1.5955063923417054
-0.6832832783940135,-0.6832832783940135
-0.305493907971233,-0.305493907971233
0.007794838233027209,0.007794838233027209
0.25965441851488175,0.25965441851488175
0.32415504273340323,0.32415504273340323
0.41629879161700556,0.41629879161700556
0.5115139987967364,0.5115139987967364
0.5422285817579329,0.5422285817579329
0.4807994158355333,0.4807994158355333
0.45008483287433054,0.45008483287433054
0.45008483287433054,0.45008483287433054
0.41629879161700556,0.41629879161700556
0.41629879161700556,0.41629879161700556
0.4807994158355333,0.4807994158355333
0.5115139987967364,0.5115139987967364
0.5115139987967364,0.5115139987967364
0.5115139987967364,0.5115139987967364
0.4807994158355333,0.4807994158355333
0.41629879161700556,0.41629879161700556
0.38558420865580906,0.38558420865580906
0.32415504273340323,0.32415504273340323
0.32415504273340323,0.32415504273340323
0.32415504273340323,0.32415504273340323
0.35486962569460634,0.35486962569460634
0.35486962569460634,0.35486962569460634
0.2903690014760782,0.2903690014760782
0.2903690014760782,0.2903690014760782
0.32415504273340323,0.32415504273340323
0.2903690014760782,0.2903690014760782
0.2903690014760782,0.2903690014760782
0.25965441851488175,0.25965441851488175
0.32415504273340323,0.32415504273340323
0.25965441851488175,0.25965441851488175
0.19822525259247603,0.19822525259247603
0.1644392113351573,0.1644392113351573
0.1644392113351573,0.1644392113351573
0.1644392113351573,0.1644392113351573
0.22893983555367897,0.22893983555367897
0.22893983555367897,0.22893983555367897
0.13372462837395455,0.13372462837395455
0.10301004541275162,0.10301004541275162
0.1644392113351573,0.1644392113351573
0.19822525259247603,0.19822525259247603
0.1644392113351573,0.1644392113351573
0.13372462837395455,0.13372462837395455
0.13372462837395455,0.13372462837395455
0.1644392113351573,0.1644392113351573
0.19822525259247603,0.19822525259247603
0.1644392113351573,0.1644392113351573
0.13372462837395455,0.13372462837395455
0.13372462837395455,0.13372462837395455
0.13372462837395455,0.13372462837395455
0.13372462837395455,0.13372462837395455
0.13372462837395455,0.13372462837395455
0.13372462837395455,0.13372462837395455
0.10301004541275162,0.10301004541275162
0.1644392113351573,0.1644392113351573
0.1644392113351573,0.1644392113351573
0.13372462837395455,0.13372462837395455
0.13372462837395455,0.13372462837395455
0.13372462837395455,0.13372462837395455
0.1644392113351573,0.1644392113351573
0.19822525259247603,0.19822525259247603
0.19822525259247603,0.19822525259247603
0.1644392113351573,0.1644392113351573
0.13372462837395455,0.13372462837395455
0.38558420865580906,0.38558420865580906
0.9200179521807146,0.9200179521807146
1.3285219055646993,1.3285219055646993
1.5189523199241481,1.5189523199241481
1.2333066983849748,1.2333066983849748
0.2903690014760782,0.2903690014760782
-1.5955063923417054,-1.5955063923417054
-4.046530112645604,-4.046530112645604
-4.455034066029588,-4.455034066029588
-4.141745319825328,-4.141745319825328
-2.317299091929947,-2.317299091929947
-0.9044282757146659,-0.9044282757146659
-0.27477932501003005,-0.27477932501003005
-0.022919744728175543,-0.022919744728175543
0.13372462837395455,0.13372462837395455
0.22893983555367897,0.22893983555367897
0.2903690014760782,0.2903690014760782
0.35486962569460634,0.35486962569460634
0.41629879161700556,0.41629879161700556
0.41629879161700556,0.41629879161700556
0.41629879161700556,0.41629879161700556
0.45008483287433054,0.45008483287433054
0.45008483287433054,0.45008483287433054
0.45008483287433054,0.45008483287433054
0.4807994158355333,0.4807994158355333
0.4807994158355333,0.4807994158355333
0.4807994158355333,0.4807994158355333
0.41629879161700556,0.41629879161700556
0.35486962569460634,0.35486962569460634
0.25965441851488175,0.25965441851488175
0.19822525259247603,0.19822525259247603
0.19822525259247603,0.19822525259247603
0.19822525259247603,0.19822525259247603
0.22893983555367897,0.22893983555367897
0.22893983555367897,0.22893983555367897
0.2903690014760782,0.2903690014760782
0.2903690014760782,0.2903690014760782
0.22893983555367897,0.22893983555367897
0.19822525259247603,0.19822525259247603
0.19822525259247603,0.19822525259247603
0.1644392113351573,0.1644392113351573
0.1644392113351573,0.1644392113351573
0.13372462837395455,0.13372462837395455
0.13372462837395455,0.13372462837395455
0.13372462837395455,0.13372462837395455
0.13372462837395455,0.13372462837395455
0.13372462837395455,0.13372462837395455
0.13372462837395455,0.13372462837395455
0.13372462837395455,0.13372462837395455
0.13372462837395455,0.13372462837395455
0.1644392113351573,0.1644392113351573
0.19822525259247603,0.19822525259247603
0.22893983555367897,0.22893983555367897
0.19822525259247603,0.19822525259247603
0.13372462837395455,0.13372462837395455
0.07229546245154887,0.07229546245154887
0.038509421194230134,0.038509421194230134
0.038509421194230134,0.038509421194230134
0.038509421194230134,0.038509421194230134
0.007794838233027209,0.007794838233027209
0.007794838233027209,0.007794838233027209
0.007794838233027209,0.007794838233027209
0.007794838233027209,0.007794838233027209
0.038509421194230134,0.038509421194230134
0.038509421194230134,0.038509421194230134
-0.022919744728175543,-0.022919744728175543
-0.08434891065058123,-0.08434891065058123
-0.11813495190789997,-0.11813495190789997
-0.11813495190789997,-0.11813495190789997
-0.08434891065058123,-0.08434891065058123
-0.05363432768937847,-0.05363432768937847
0.007794838233027209,0.007794838233027209
0.007794838233027209,0.007794838233027209
0.038509421194230134,0.038509421194230134
0.038509421194230134,0.038509421194230134
0.007794838233027209,0.007794838233027209
0.038509421194230134,0.038509421194230134
0.07229546245154887,0.07229546245154887
0.07229546245154887,0.07229546245154887
0.038509421194230134,0.038509421194230134
0.007794838233027209,0.007794838233027209
0.13372462837395455,0.13372462837395455
0.5760146230152579,0.5760146230152579
1.1411629495013664,1.1411629495013664
1.4544516957056266,1.4544516957056266
1.4851662786668294,1.4851662786668294
0.698872954860063,0.698872954860063
-0.870642234457344,-0.870642234457344
-3.4199526202370896,-3.4199526202370896
-4.455034066029588,-4.455034066029588
-4.455034066029588,-4.455034066029588
-3.198807622916438,-3.198807622916438
-1.469576602200778,-1.469576602200778
-0.5573534882530875,-0.5573534882530875
-0.21027870079150857,-0.21027870079150857
-0.08434891065058123,-0.08434891065058123
0.038509421194230134,0.038509421194230134
0.1644392113351573,0.1644392113351573
0.25965441851488175,0.25965441851488175
0.32415504273340323,0.32415504273340323
0.32415504273340323,0.32415504273340323
0.35486962569460634,0.35486962569460634
0.41629879161700556,0.41629879161700556
0.45008483287433054,0.45008483287433054
0.4807994158355333,0.4807994158355333
0.4807994158355333,0.4807994158355333
0.4807994158355333,0.4807994158355333
0.4807994158355333,0.4807994158355333
0.45008483287433054,0.45008483287433054
0.41629879161700556,0.41629879161700556
0.35486962569460634,0.35486962569460634
0.35486962569460634,0.35486962569460634
0.35486962569460634,0.35486962569460634
0.32415504273340323,0.32415504273340323
0.32415504273340323,0.32415504273340323
0.2903690014760782,0.2903690014760782
0.25965441851488175,0.25965441851488175
0.19822525259247603,0.19822525259247603
0.1644392113351573,0.1644392113351573
0.1644392113351573,0.1644392113351573
0.1644392113351573,0.1644392113351573
0.19822525259247603,0.19822525259247603
0.19822525259247603,0.19822525259247603
0.1644392113351573,0.1644392113351573
0.13372462837395455,0.13372462837395455
0.13372462837395455,0.13372462837395455
0.13372462837395455,0.13372462837395455
0.13372462837395455,0.13372462837395455
0.19822525259247603,0.19822525259247603
0.22893983555367897,0.22893983555367897
0.25965441851488175,0.25965441851488175
0.2903690014760782,0.2903690014760782
0.2903690014760782,0.2903690014760782
0.2903690014760782,0.2903690014760782
0.2903690014760782,0.2903690014760782
0.2903690014760782,0.2903690014760782
0.2903690014760782,0.2903690014760782
0.32415504273340323,0.32415504273340323
0.35486962569460634,0.35486962569460634
0.2903690014760782,0.2903690014760782
0.19822525259247603,0.19822525259247603
0.13372462837395455,0.13372462837395455
0.07229546245154887,0.07229546245154887
0.038509421194230134,0.038509421194230134
0.007794838233027209,0.007794838233027209
-0.05363432768937847,-0.05363432768937847
-0.05363432768937847,-0.05363432768937847
-0.022919744728175543,-0.022919744728175543
0.007794838233027209,0.007794838233027209
0.007794838233027209,0.007794838233027209
0.038509421194230134,0.038509421194230134
0.038509421194230134,0.038509421194230134
0.007794838233027209,0.007794838233027209
-0.022919744728175543,-0.022919744728175543
0.007794838233027209,0.007794838233027209
0.10301004541275162,0.10301004541275162
0.45008483287433054,0.45008483287433054
0.9845185763992427,0.9845185763992427
1.4237371127444236,1.4237371127444236
1.549666902885351,1.549666902885351
1.2333066983849748,1.2333066983849748
0.19822525259247603,0.19822525259247603
-1.7828653484050356,-1.7828653484050356
-4.393604900107182,-4.393604900107182
-4.455034066029588,-4.455034066029588
-4.424319483068385,-4.424319483068385
-2.317299091929947,-2.317299091929947
-0.8399276514961423,-0.8399276514961423
-0.2440647420488273,-0.2440647420488273
-0.05363432768937847,-0.05363432768937847
0.038509421194230134,0.038509421194230134
0.13372462837395455,0.13372462837395455
0.19822525259247603,0.19822525259247603
0.22893983555367897,0.22893983555367897
0.2903690014760782,0.2903690014760782
0.32415504273340323,0.32415504273340323
0.32415504273340323,0.32415504273340323
0.35486962569460634,0.35486962569460634
0.35486962569460634,0.35486962569460634
0.35486962569460634,0.35486962569460634
0.41629879161700556,0.41629879161700556
0.45008483287433054,0.45008483287433054
0.41629879161700556,0.41629879161700556
0.41629879161700556,0.41629879161700556
0.41629879161700556,0.41629879161700556
0.41629879161700556,0.41629879161700556
0.41629879161700556,0.41629879161700556
0.41629879161700556,0.41629879161700556
0.41629879161700556,0.41629879161700556
0.45008483287433054,0.45008483287433054
0.45008483287433054,0.45008483287433054
0.45008483287433054,0.45008483287433054
0.41629879161700556,0.41629879161700556
0.35486962569460634,0.35486962569460634
0.22893983555367897,0.22893983555367897
0.1644392113351573,0.1644392113351573
0.13372462837395455,0.13372462837395455
0.07229546245154887,0.07229546245154887
0.07229546245154887,0.07229546245154887
0.07229546245154887,0.07229546245154887
0.10301004541275162,0.10301004541275162
0.13372462837395455,0.13372462837395455
0.13372462837395455,0.13372462837395455
0.1644392113351573,0.1644392113351573
0.19822525259247603,0.19822525259247603
0.22893983555367897,0.22893983555367897
0.22893983555367897,0.22893983555367897
0.19822525259247603,0.19822525259247603
0.1644392113351573,0.1644392113351573
0.13372462837395455,0.13372462837395455
0.07229546245154887,0.07229546245154887
0.07229546245154887,0.07229546245154887
0.07229546245154887,0.07229546245154887
0.07229546245154887,0.07229546245154887
0.10301004541275162,0.10301004541275162
0.13372462837395455,0.13372462837395455
0.13372462837395455,0.13372462837395455
0.13372462837395455,0.13372462837395455
0.13372462837395455,0.13372462837395455
0.07229546245154887,0.07229546245154887
0.007794838233027209,0.007794838233027209
-0.08434891065058123,-0.08434891065058123
-0.11813495190789997,-0.11813495190789997
-0.11813495190789997,-0.11813495190789997
-0.11813495190789997,-0.11813495190789997
-0.08434891065058123,-0.08434891065058123
-0.05363432768937847,-0.05363432768937847
-0.022919744728175543,-0.022919744728175543
-0.022919744728175543,-0.022919744728175543
-0.022919744728175543,-0.022919744728175543
-0.05363432768937847,-0.05363432768937847
-0.05363432768937847,-0.05363432768937847
-0.08434891065058123,-0.08434891065058123
-0.08434891065058123,-0.08434891065058123
0.007794838233027209,0.007794838233027209
0.38558420865580906,0.38558420865580906
0.9507325351419177,0.9507325351419177
1.3930225297832208,1.3930225297832208
1.5189523199241481,1.5189523199241481
1.0766623252828447,1.0766623252828447
-0.11813495190789997,-0.11813495190789997
-2.3817997161484685,-2.3817997161484685
-4.455034066029588,-4.455034066029588
-4.455034066029588,-4.455034066029588
-3.828456573621068,-3.828456573621068
-1.6907215995214302,-1.6907215995214302
-0.33620849093243593,-0.33620849093243593
0.1644392113351573,0.1644392113351573
0.32415504273340323,0.32415504273340323
0.35486962569460634,0.35486962569460634
0.38558420865580906,0.38558420865580906
0.32415504273340323,0.32415504273340323
0.2903690014760782,0.2903690014760782
0.22893983555367897,0.22893983555367897
0.19822525259247603,0.19822525259247603
0.19822525259247603,0.19822525259247603
0.19822525259247603,0.19822525259247603
0.1644392113351573,0.1644392113351573
0.1644392113351573,0.1644392113351573
0.1644392113351573,0.1644392113351573
0.1644392113351573,0.1644392113351573
0.1644392113351573,0.1644392113351573
0.1644392113351573,0.1644392113351573
0.19822525259247603,0.19822525259247603
0.1644392113351573,0.1644392113351573
0.13372462837395455,0.13372462837395455
0.13372462837395455,0.13372462837395455
0.13372462837395455,0.13372462837395455
0.1644392113351573,0.1644392113351573
0.19822525259247603,0.19822525259247603
0.25965441851488175,0.25965441851488175
0.2903690014760782,0.2903690014760782
0.2903690014760782,0.2903690014760782
0.2903690014760782,0.2903690014760782
0.2903690014760782,0.2903690014760782
0.25965441851488175,0.25965441851488175
0.22893983555367897,0.22893983555367897
0.1644392113351573,0.1644392113351573
0.13372462837395455,0.13372462837395455
0.1644392113351573,0.1644392113351573
0.10301004541275162,0.10301004541275162
0.038509421194230134,0.038509421194230134
0.038509421194230134,0.038509421194230134
0.038509421194230134,0.038509421194230134
0.038509421194230134,0.038509421194230134
0.07229546245154887,0.07229546245154887
0.038509421194230134,0.038509421194230134
0.038509421194230134,0.038509421194230134
0.038509421194230134,0.038509421194230134
0.038509421194230134,0.038509421194230134
0.038509421194230134,0.038509421194230134
0.10301004541275162,0.10301004541275162
0.13372462837395455,0.13372462837395455
0.1644392113351573,0.1644392113351573
0.19822525259247603,0.19822525259247603
0.22893983555367897,0.22893983555367897
0.22893983555367897,0.22893983555367897
0.19822525259247603,0.19822525259247603
0.22893983555367897,0.22893983555367897
0.22893983555367897,0.22893983555367897
0.1644392113351573,0.1644392113351573
0.10301004541275162,0.10301004541275162
0.07229546245154887,0.07229546245154887
0.038509421194230134,0.038509421194230134
0.007794838233027209,0.007794838233027209
0.007794838233027209,0.007794838233027209
0.007794838233027209,0.007794838233027209
0.007794838233027209,0.007794838233027209
-0.08434891065058123,-0.08434891065058123
-0.17956411783030565,-0.17956411783030565
-0.27477932501003005,-0.27477932501003005
-0.33620849093243593,-0.33620849093243593
-0.27477932501003005,-0.27477932501003005
-0.21027870079150857,-0.21027870079150857
-0.21027870079150857,-0.21027870079150857
-0.21027870079150857,-0.21027870079150857
-0.21027870079150857,-0.21027870079150857
-0.17956411783030565,-0.17956411783030565
-0.17956411783030565,-0.17956411783030565
-0.11813495190789997,-0.11813495190789997
-0.08434891065058123,-0.08434891065058123
-0.08434891065058123,-0.08434891065058123
0.007794838233027209,0.007794838233027209
0.07229546245154887,0.07229546245154887
0.10301004541275162,0.10301004541275162
0.13372462837395455,0.13372462837395455
0.1644392113351573,0.1644392113351573
0.13372462837395455,0.13372462837395455
0.1644392113351573,0.1644392113351573
0.45008483287433054,0.45008483287433054
1.0152331593604453,1.0152331593604453
1.549666902885351,1.549666902885351
1.737025858948684,1.737025858948684
1.4544516957056266,1.4544516957056266
0.6067292059764606,0.6067292059764606
-1.1870024389577218,-1.1870024389577218
-3.671812200518944,-3.671812200518944
-4.455034066029588,-4.455034066029588
-4.080316153902922,-4.080316153902922
-2.2865845089687444,-2.2865845089687444
-0.9044282757146659,-0.9044282757146659
-0.36999453218975464,-0.36999453218975464
-0.14884953486910288,-0.14884953486910288
0.007794838233027209,0.007794838233027209
0.13372462837395455,0.13372462837395455
0.19822525259247603,0.19822525259247603
0.22893983555367897,0.22893983555367897
0.2903690014760782,0.2903690014760782
0.32415504273340323,0.32415504273340323
0.32415504273340323,0.32415504273340323
0.25965441851488175,0.25965441851488175
0.2903690014760782,0.2903690014760782
0.38558420865580906,0.38558420865580906
0.45008483287433054,0.45008483287433054
0.4807994158355333,0.4807994158355333
0.4807994158355333,0.4807994158355333
0.45008483287433054,0.45008483287433054
0.41629879161700556,0.41629879161700556
0.45008483287433054,0.45008483287433054
0.4807994158355333,0.4807994158355333
0.45008483287433054,0.45008483287433054
0.45008483287433054,0.45008483287433054
0.45008483287433054,0.45008483287433054
0.45008483287433054,0.45008483287433054
0.38558420865580906,0.38558420865580906
0.32415504273340323,0.32415504273340323
0.32415504273340323,0.32415504273340323
0.2903690014760782,0.2903690014760782
0.22893983555367897,0.22893983555367897
0.22893983555367897,0.22893983555367897
0.19822525259247603,0.19822525259247603
0.13372462837395455,0.13372462837395455
0.10301004541275162,0.10301004541275162
0.13372462837395455,0.13372462837395455
0.13372462837395455,0.13372462837395455
0.10301004541275162,0.10301004541275162
0.10301004541275162,0.10301004541275162
0.10301004541275162,0.10301004541275162
0.10301004541275162,0.10301004541275162
0.13372462837395455,0.13372462837395455
0.1644392113351573,0.1644392113351573
0.22893983555367897,0.22893983555367897
0.22893983555367897,0.22893983555367897
0.2903690014760782,0.2903690014760782
0.32415504273340323,0.32415504273340323
0.32415504273340323,0.32415504273340323
0.32415504273340323,0.32415504273340323
0.2903690014760782,0.2903690014760782
0.2903690014760782,0.2903690014760782
0.32415504273340323,0.32415504273340323
0.25965441851488175,0.25965441851488175
0.22893983555367897,0.22893983555367897
0.22893983555367897,0.22893983555367897
0.19822525259247603,0.19822525259247603
0.13372462837395455,0.13372462837395455
0.07229546245154887,0.07229546245154887
0.038509421194230134,0.038509421194230134
0.038509421194230134,0.038509421194230134
0.007794838233027209,0.007794838233027209
-0.05363432768937847,-0.05363432768937847
-0.08434891065058123,-0.08434891065058123
-0.11813495190789997,-0.11813495190789997
-0.11813495190789997,-0.11813495190789997
-0.08434891065058123,-0.08434891065058123
-0.08434891065058123,-0.08434891065058123
-0.05363432768937847,-0.05363432768937847
-0.05363432768937847,-0.05363432768937847
-0.08434891065058123,-0.08434891065058123
-0.08434891065058123,-0.08434891065058123
-0.08434891065058123,-0.08434891065058123
-0.05363432768937847,-0.05363432768937847
-0.022919744728175543,-0.022919744728175543
0.007794838233027209,0.007794838233027209
-0.022919744728175543,-0.022919744728175543
-0.08434891065058123,-0.08434891065058123
-0.08434891065058123,-0.08434891065058123
-0.11813495190789997,-0.11813495190789997
-0.11813495190789997,-0.11813495190789997
-0.11813495190789997,-0.11813495190789997
-0.11813495190789997,-0.11813495190789997
-0.11813495190789997,-0.11813495190789997
-0.05363432768937847,-0.05363432768937847
-0.022919744728175543,-0.022919744728175543
0.10301004541275162,0.10301004541275162
0.5115139987967364,0.5115139987967364
1.045947742321642,1.045947742321642
1.3285219055646993,1.3285219055646993
1.202592115423772,1.202592115423772
0.6067292059764606,0.6067292059764606
-0.7139978613552151,-0.7139978613552151
-3.042163249814308,-3.042163249814308
-4.455034066029588,-4.455034066029588
-4.455034066029588,-4.455034066029588
-3.103592415736707,-3.103592415736707
-1.3436468120598508,-1.3436468120598508
-0.4314236981121603,-0.4314236981121603
-0.08434891065058123,-0.08434891065058123
0.038509421194230134,0.038509421194230134
0.13372462837395455,0.13372462837395455
0.1644392113351573,0.1644392113351573
0.22893983555367897,0.22893983555367897
0.2903690014760782,0.2903690014760782
0.32415504273340323,0.32415504273340323
0.2903690014760782,0.2903690014760782
0.25965441851488175,0.25965441851488175
0.22893983555367897,0.22893983555367897
0.25965441851488175,0.25965441851488175
0.2903690014760782,0.2903690014760782
0.2903690014760782,0.2903690014760782
0.32415504273340323,0.32415504273340323
0.35486962569460634,0.35486962569460634
0.35486962569460634,0.35486962569460634
0.32415504273340323,0.32415504273340323
0.2903690014760782,0.2903690014760782
0.22893983555367897,0.22893983555367897
0.19822525259247603,0.19822525259247603
0.19822525259247603,0.19822525259247603
0.1644392113351573,0.1644392113351573
0.1644392113351573,0.1644392113351573
0.1644392113351573,0.1644392113351573
0.1644392113351573,0.1644392113351573
0.19822525259247603,0.19822525259247603
0.22893983555367897,0.22893983555367897
0.22893983555367897,0.22893983555367897
0.22893983555367897,0.22893983555367897
0.19822525259247603,0.19822525259247603
0.1644392113351573,0.1644392113351573
0.1644392113351573,0.1644392113351573
0.1644392113351573,0.1644392113351573
0.19822525259247603,0.19822525259247603
0.22893983555367897,0.22893983555367897
0.25965441851488175,0.25965441851488175
0.22893983555367897,0.22893983555367897
0.22893983555367897,0.22893983555367897
0.22893983555367897,0.22893983555367897
0.19822525259247603,0.19822525259247603
0.19822525259247603,0.19822525259247603
0.22893983555367897,0.22893983555367897
0.2903690014760782,0.2903690014760782
0.2903690014760782,0.2903690014760782
0.25965441851488175,0.25965441851488175
0.22893983555367897,0.22893983555367897
0.1644392113351573,0.1644392113351573
0.07229546245154887,0.07229546245154887
0.007794838233027209,0.007794838233027209
-0.022919744728175543,-0.022919744728175543
0.007794838233027209,0.007794838233027209
0.007794838233027209,0.007794838233027209
0.007794838233027209,0.007794838233027209
0.007794838233027209,0.007794838233027209
0.007794838233027209,0.007794838233027209
0.007794838233027209,0.007794838233027209
0.007794838233027209,0.007794838233027209
-0.05363432768937847,-0.05363432768937847
-0.05363432768937847,-0.05363432768937847
-0.05363432768937847,-0.05363432768937847
0.007794838233027209,0.007794838233027209
0.038509421194230134,0.038509421194230134
0.038509421194230134,0.038509421194230134
0.038509421194230134,0.038509421194230134
0.007794838233027209,0.007794838233027209
-0.022919744728175543,-0.022919744728175543
0.007794838233027209,0.007794838233027209
0.007794838233027209,0.007794838233027209
-0.08434891065058123,-0.08434891065058123
-0.08434891065058123,-0.08434891065058123
-0.022919744728175543,-0.022919744728175543
0.038509421194230134,0.038509421194230134
0.038509421194230134,0.038509421194230134
-0.08434891065058123,-0.08434891065058123
-0.21027870079150857,-0.21027870079150857
-0.27477932501003005,-0.27477932501003005
-0.27477932501003005,-0.27477932501003005
-0.2440647420488273,-0.2440647420488273
-0.21027870079150857,-0.21027870079150857
0.13372462837395455,0.13372462837395455
0.7326589961173879,0.7326589961173879
1.2333066983849748,1.2333066983849748
1.4237371127444236,1.4237371127444236
1.0766623252828447,1.0766623252828447
0.10301004541275162,0.10301004541275162
-1.878080555584761,-1.878080555584761
-4.36289031714598,-4.36289031714598
-4.455034066029588,-4.455034066029588
-3.954386363761995,-3.954386363761995
-2.03472492868689,-2.03472492868689
-0.7447124443164173,-0.7447124443164173
-0.14884953486910288,-0.14884953486910288
0.13372462837395455,0.13372462837395455
0.22893983555367897,0.22893983555367897
0.2903690014760782,0.2903690014760782
0.22893983555367897,0.22893983555367897
0.19822525259247603,0.19822525259247603
0.19822525259247603,0.19822525259247603
0.19822525259247603,0.19822525259247603
0.19822525259247603,0.19822525259247603
0.22893983555367897,0.22893983555367897
0.19822525259247603,0.19822525259247603
0.13372462837395455,0.13372462837395455
0.038509421194230134,0.038509421194230134
-0.05363432768937847,-0.05363432768937847
-0.08434891065058123,-0.08434891065058123
-0.08434891065058123,-0.08434891065058123
-0.05363432768937847,-0.05363432768937847
-0.022919744728175543,-0.022919744728175543
0.007794838233027209,0.007794838233027209
0.038509421194230134,0.038509421194230134
0.038509421194230134,0.038509421194230134
0.07229546245154887,0.07229546245154887
0.07229546245154887,0.07229546245154887
0.10301004541275162,0.10301004541275162
0.10301004541275162,0.10301004541275162
0.13372462837395455,0.13372462837395455
0.13372462837395455,0.13372462837395455
0.19822525259247603,0.19822525259247603
0.2903690014760782,0.2903690014760782
0.32415504273340323,0.32415504273340323
0.35486962569460634,0.35486962569460634
0.2903690014760782,0.2903690014760782
0.19822525259247603,0.19822525259247603
0.13372462837395455,0.13372462837395455
0.07229546245154887,0.07229546245154887
0.07229546245154887,0.07229546245154887
0.10301004541275162,0.10301004541275162
0.2903690014760782,0.2903690014760782
0.6067292059764606,0.6067292059764606
0.698872954860063,0.698872954860063
0.25965441851488175,0.25965441851488175
-0.08434891065058123,-0.08434891065058123
-0.14884953486910288,-0.14884953486910288
-0.08434891065058123,-0.08434891065058123
-0.08434891065058123,-0.08434891065058123
-0.05363432768937847,-0.05363432768937847
0.007794838233027209,0.007794838233027209
0.038509421194230134,0.038509421194230134
-0.08434891065058123,-0.08434891065058123
-0.11813495190789997,-0.11813495190789997
-0.2440647420488273,-0.2440647420488273
-0.5573534882530875,-0.5573534882530875
-0.7447124443164173,-0.7447124443164173
-0.7784984855737391,-0.7784984855737391
-0.7784984855737391,-0.7784984855737391
-0.8092130685349408,-0.8092130685349408
-0.870642234457344,-0.870642234457344
-0.935142858675868,-0.935142858675868
-1.0610726488167945,-1.0610726488167945
-1.2177170219189235,-1.2177170219189235
-1.3436468120598508,-1.3436468120598508
-1.469576602200778,-1.469576602200778
-1.5310057681231812,-1.5310057681231812
-1.5955063923417054,-1.5955063923417054
-1.626220975302907,-1.626220975302907
-1.6907215995214302,-1.6907215995214302
-1.721436182482632,-1.721436182482632
-1.7828653484050356,-1.7828653484050356
-1.8473659726235594,-1.8473659726235594
-1.878080555584761,-1.878080555584761
-1.878080555584761,-1.878080555584761
-1.878080555584761,-1.878080555584761
-1.878080555584761,-1.878080555584761
-1.878080555584761,-1.878080555584761
-1.8166513896623577,-1.8166513896623577
-1.752150765443834,-1.752150765443834
-1.626220975302907,-1.626220975302907
-1.5955063923417054,-1.5955063923417054
-1.5310057681231812,-1.5310057681231812
-1.469576602200778,-1.469576602200778
-1.3743613950210523,-1.3743613950210523
-1.2822176461374475,-1.2822176461374475
-1.1870024389577218,-1.1870024389577218
-1.091787231777997,-1.091787231777997
-0.8399276514961423,-0.8399276514961423
-0.305493907971233,-0.305493907971233
0.22893983555367897,0.22893983555367897
0.45008483287433054,0.45008483287433054
0.22893983555367897,0.22893983555367897
-0.621854112471609,-0.621854112471609
-2.351085133187266,-2.351085133187266
-4.455034066029588,-4.455034066029588
-4.455034066029588,-4.455034066029588
-4.455034066029588,-4.455034066029588
-3.4199526202370896,-3.4199526202370896
-1.939509721507165,-1.939509721507165
-1.2484316048801256,-1.2484316048801256
-0.9658574416370697,-0.9658574416370697
-0.7784984855737391,-0.7784984855737391
-0.621854112471609,-0.621854112471609
-0.5880680712142904,-0.5880680712142904
-0.621854112471609,-0.621854112471609
-0.621854112471609,-0.621854112471609
-0.5880680712142904,-0.5880680712142904
-0.5266389052918846,-0.5266389052918846
-0.4314236981121603,-0.4314236981121603
-0.36999453218975464,-0.36999453218975464
-0.33620849093243593,-0.33620849093243593
-0.27477932501003005,-0.27477932501003005
-0.21027870079150857,-0.21027870079150857
-0.17956411783030565,-0.17956411783030565
-0.08434891065058123,-0.08434891065058123
-0.022919744728175543,-0.022919744728175543
0.038509421194230134,0.038509421194230134
0.038509421194230134,0.038509421194230134
0.038509421194230134,0.038509421194230134
0.007794838233027209,0.007794838233027209
0.007794838233027209,0.007794838233027209
0.038509421194230134,0.038509421194230134
0.07229546245154887,0.07229546245154887
0.07229546245154887,0.07229546245154887
0.10301004541275162,0.10301004541275162
0.10301004541275162,0.10301004541275162
0.07229546245154887,0.07229546245154887
0.038509421194230134,0.038509421194230134
0.007794838233027209,0.007794838233027209
0.007794838233027209,0.007794838233027209
-0.022919744728175543,-0.022919744728175543
-0.022919744728175543,-0.022919744728175543
0.007794838233027209,0.007794838233027209
0.007794838233027209,0.007794838233027209
0.038509421194230134,0.038509421194230134
0.038509421194230134,0.038509421194230134
0.07229546245154887,0.07229546245154887
0.1644392113351573,0.1644392113351573
0.25965441851488175,0.25965441851488175
0.32415504273340323,0.32415504273340323
0.35486962569460634,0.35486962569460634
0.41629879161700556,0.41629879161700556
0.5760146230152579,0.5760146230152579
0.6681583718988602,0.6681583718988602
0.7326589961173879,0.7326589961173879
0.8248027450009903,0.8248027450009903
0.8248027450009903,0.8248027450009903
0.7940881620397876,0.7940881620397876
0.7940881620397876,0.7940881620397876
0.8248027450009903,0.8248027450009903
0.8248027450009903,0.8248027450009903
0.7633735790785907,0.7633735790785907
0.7633735790785907,0.7633735790785907
0.7940881620397876,0.7940881620397876
0.7633735790785907,0.7633735790785907
0.698872954860063,0.698872954860063
0.6374437889376634,0.6374437889376634
0.6067292059764606,0.6067292059764606
0.6067292059764606,0.6067292059764606
0.6067292059764606,0.6067292059764606
0.5760146230152579,0.5760146230152579
0.6067292059764606,0.6067292059764606
0.6374437889376634,0.6374437889376634
0.6374437889376634,0.6374437889376634
0.6681583718988602,0.6681583718988602
0.698872954860063,0.698872954860063
0.698872954860063,0.698872954860063
0.698872954860063,0.698872954860063
0.698872954860063,0.698872954860063
0.7326589961173879,0.7326589961173879
0.7633735790785907,0.7633735790785907
0.8248027450009903,0.8248027450009903
0.8248027450009903,0.8248027450009903
0.8248027450009903,0.8248027450009903
0.7633735790785907,0.7633735790785907
0.7326589961173879,0.7326589961173879
0.698872954860063,0.698872954860063
0.698872954860063,0.698872954860063
0.7326589961173879,0.7326589961173879
0.7326589961173879,0.7326589961173879
0.7633735790785907,0.7633735790785907
0.8893033692195181,0.8893033692195181
1.2978073226034965,1.2978073226034965
1.8629556490896118,1.8629556490896118
2.1148152293714655,2.1148152293714655
1.9581708562693356,1.9581708562693356
1.2333066983849748,1.2333066983849748
-0.27477932501003005,-0.27477932501003005
-2.633659296430323,-2.633659296430323
-4.298389692927458,-4.298389692927458
-3.7639559494025465,-3.7639559494025465
-2.03472492868689,-2.03472492868689
-0.621854112471609,-0.621854112471609
0.13372462837395455,0.13372462837395455
0.5115139987967364,0.5115139987967364
0.698872954860063,0.698872954860063
0.8248027450009903,0.8248027450009903
0.8893033692195181,0.8893033692195181
0.9200179521807146,0.9200179521807146
0.9845185763992427,0.9845185763992427
1.045947742321642,1.045947742321642
1.1411629495013664,1.1411629495013664
1.1718775324625692,1.1718775324625692
1.1411629495013664,1.1411629495013664
1.1104483665401697,1.1104483665401697
1.0766623252828447,1.0766623252828447
1.0766623252828447,1.0766623252828447
1.045947742321642,1.045947742321642
1.045947742321642,1.045947742321642
1.045947742321642,1.045947742321642
1.1104483665401697,1.1104483665401697
1.1411629495013664,1.1411629495013664
1.1411629495013664,1.1411629495013664
1.1411629495013664,1.1411629495013664
1.1104483665401697,1.1104483665401697
1.045947742321642,1.045947742321642
0.9507325351419177,0.9507325351419177
0.9845185763992427,0.9845185763992427
1.045947742321642,1.045947742321642
1.0152331593604453,1.0152331593604453
1.0152331593604453,1.0152331593604453
1.045947742321642,1.045947742321642
1.0766623252828447,1.0766623252828447
1.1104483665401697,1.1104483665401697
1.0152331593604453,1.0152331593604453
0.9200179521807146,0.9200179521807146
0.9200179521807146,0.9200179521807146
0.9200179521807146,0.9200179521807146
0.9507325351419177,0.9507325351419177
0.9845185763992427,0.9845185763992427
0.9200179521807146,0.9200179521807146
0.8893033692195181,0.8893033692195181
0.8248027450009903,0.8248027450009903
0.7940881620397876,0.7940881620397876
0.7633735790785907,0.7633735790785907
0.8248027450009903,0.8248027450009903
0.8585887862583154,0.8585887862583154
0.8585887862583154,0.8585887862583154
0.8585887862583154,0.8585887862583154
0.8893033692195181,0.8893033692195181
0.8585887862583154,0.8585887862583154
0.8248027450009903,0.8248027450009903
0.7326589961173879,0.7326589961173879
0.6374437889376634,0.6374437889376634
0.6374437889376634,0.6374437889376634
0.6067292059764606,0.6067292059764606
0.6067292059764606,0.6067292059764606
0.6067292059764606,0.6067292059764606
0.6067292059764606,0.6067292059764606
0.6067292059764606,0.6067292059764606
0.6374437889376634,0.6374437889376634
0.6374437889376634,0.6374437889376634
0.5760146230152579,0.5760146230152579
0.5760146230152579,0.5760146230152579
0.5115139987967364,0.5115139987967364
0.41629879161700556,0.41629879161700556
0.35486962569460634,0.35486962569460634
0.41629879161700556,0.41629879161700556
0.41629879161700556,0.41629879161700556
0.45008483287433054,0.45008483287433054
0.41629879161700556,0.41629879161700556
0.5422285817579329,0.5422285817579329
1.0152331593604453,1.0152331593604453
1.580381485846554,1.580381485846554
1.927456273308133,1.927456273308133
1.9581708562693356,1.9581708562693356
1.2978073226034965,1.2978073226034965
-0.08434891065058123,-0.08434891065058123
-2.477014923328193,-2.477014923328193
-4.36289031714598,-4.36289031714598
-4.455034066029588,-4.455034066029588
-2.5998732551730046,-2.5998732551730046
-1.0610726488167945,-1.0610726488167945
-0.27477932501003005,-0.27477932501003005
0.07229546245154887,0.07229546245154887
0.2903690014760782,0.2903690014760782
0.41629879161700556,0.41629879161700556
0.5115139987967364,0.5115139987967364
0.5422285817579329,0.5422285817579329
0.5760146230152579,0.5760146230152579
0.5760146230152579,0.5760146230152579
0.5760146230152579,0.5760146230152579
0.5760146230152579,0.5760146230152579
0.5760146230152579,0.5760146230152579
0.5760146230152579,0.5760146230152579
0.5760146230152579,0.5760146230152579
0.5760146230152579,0.5760146230152579
0.5422285817579329,0.5422285817579329
0.5115139987967364,0.5115139987967364
0.4807994158355333,0.4807994158355333
0.45008483287433054,0.45008483287433054
0.41629879161700556,0.41629879161700556
0.41629879161700556,0.41629879161700556
0.38558420865580906,0.38558420865580906
0.38558420865580906,0.38558420865580906
0.41629879161700556,0.41629879161700556
0.45008483287433054,0.45008483287433054
0.41629879161700556,0.41629879161700556
0.32415504273340323,0.32415504273340323
0.25965441851488175,0.25965441851488175
0.22893983555367897,0.22893983555367897
0.22893983555367897,0.22893983555367897
0.22893983555367897,0.22893983555367897
0.19822525259247603,0.19822525259247603
0.19822525259247603,0.19822525259247603
0.22893983555367897,0.22893983555367897
0.25965441851488175,0.25965441851488175
0.25965441851488175,0.25965441851488175
0.25965441851488175,0.25965441851488175
0.25965441851488175,0.25965441851488175
0.25965441851488175,0.25965441851488175
0.22893983555367897,0.22893983555367897
0.22893983555367897,0.22893983555367897
0.22893983555367897,0.22893983555367897
0.25965441851488175,0.25965441851488175
0.32415504273340323,0.32415504273340323
0.35486962569460634,0.35486962569460634
0.38558420865580906,0.38558420865580906
0.35486962569460634,0.35486962569460634
0.35486962569460634,0.35486962569460634
0.35486962569460634,0.35486962569460634
0.35486962569460634,0.35486962569460634
0.32415504273340323,0.32415504273340323
0.35486962569460634,0.35486962569460634
0.35486962569460634,0.35486962569460634
0.2903690014760782,0.2903690014760782
0.22893983555367897,0.22893983555367897
0.19822525259247603,0.19822525259247603
0.13372462837395455,0.13372462837395455
0.07229546245154887,0.07229546245154887
0.038509421194230134,0.038509421194230134
0.007794838233027209,0.007794838233027209
0.007794838233027209,0.007794838233027209
-0.05363432768937847,-0.05363432768937847
-0.08434891065058123,-0.08434891065058123
-0.08434891065058123,-0.08434891065058123
-0.05363432768937847,-0.05363432768937847
-0.022919744728175543,-0.022919744728175543
-0.022919744728175543,-0.022919744728175543
-0.022919744728175543,-0.022919744728175543
0.007794838233027209,0.007794838233027209
0.038509421194230134,0.038509421194230134
0.07229546245154887,0.07229546245154887
0.10301004541275162,0.10301004541275162
0.1644392113351573,0.1644392113351573
0.5115139987967364,0.5115139987967364
1.045947742321642,1.045947742321642
1.4544516957056266,1.4544516957056266
1.580381485846554,1.580381485846554
1.2333066983849748,1.2333066983849748
0.22893983555367897,0.22893983555367897
-1.8473659726235594,-1.8473659726235594
-4.332175734184777,-4.332175734184777
-4.455034066029588,-4.455034066029588
-3.7639559494025465,-3.7639559494025465
-1.878080555584761,-1.878080555584761
-0.7139978613552151,-0.7139978613552151
-0.2440647420488273,-0.2440647420488273
-0.022919744728175543,-0.022919744728175543
0.10301004541275162,0.10301004541275162
0.19822525259247603,0.19822525259247603
0.19822525259247603,0.19822525259247603
0.19822525259247603,0.19822525259247603
0.19822525259247603,0.19822525259247603
0.22893983555367897,0.22893983555367897
0.22893983555367897,0.22893983555367897
0.2903690014760782,0.2903690014760782
0.2903690014760782,0.2903690014760782
0.32415504273340323,0.32415504273340323
0.35486962569460634,0.35486962569460634
0.38558420865580906,0.38558420865580906
0.45008483287433054,0.45008483287433054
0.4807994158355333,0.4807994158355333
0.5115139987967364,0.5115139987967364
0.5115139987967364,0.5115139987967364
0.4807994158355333,0.4807994158355333
0.45008483287433054,0.45008483287433054
0.41629879161700556,0.41629879161700556
0.41629879161700556,0.41629879161700556
0.41629879161700556,0.41629879161700556
0.38558420865580906,0.38558420865580906
0.35486962569460634,0.35486962569460634
0.32415504273340323,0.32415504273340323
0.2903690014760782,0.2903690014760782
0.22893983555367897,0.22893983555367897
0.1644392113351573,0.1644392113351573
0.10301004541275162,0.10301004541275162
0.038509421194230134,0.038509421194230134
0.038509421194230134,0.038509421194230134
0.038509421194230134,0.038509421194230134
0.07229546245154887,0.07229546245154887
0.13372462837395455,0.13372462837395455
0.13372462837395455,0.13372462837395455
0.13372462837395455,0.13372462837395455
0.1644392113351573,0.1644392113351573
0.13372462837395455,0.13372462837395455
0.13372462837395455,0.13372462837395455
0.1644392113351573,0.1644392113351573
0.25965441851488175,0.25965441851488175
0.32415504273340323,0.32415504273340323
0.32415504273340323,0.32415504273340323
0.32415504273340323,0.32415504273340323
0.2903690014760782,0.2903690014760782
0.32415504273340323,0.32415504273340323
0.2903690014760782,0.2903690014760782
0.25965441851488175,0.25965441851488175
0.25965441851488175,0.25965441851488175
0.2903690014760782,0.2903690014760782
0.2903690014760782,0.2903690014760782
0.22893983555367897,0.22893983555367897
0.1644392113351573,0.1644392113351573
0.13372462837395455,0.13372462837395455
0.07229546245154887,0.07229546245154887
0.038509421194230134,0.038509421194230134
0.007794838233027209,0.007794838233027209
0.007794838233027209,0.007794838233027209
0.007794838233027209,0.007794838233027209
0.007794838233027209,0.007794838233027209
-0.05363432768937847,-0.05363432768937847
-0.05363432768937847,-0.05363432768937847
-0.022919744728175543,-0.022919744728175543
-0.022919744728175543,-0.022919744728175543
-0.022919744728175543,-0.022919744728175543
-0.022919744728175543,-0.022919744728175543
-0.022919744728175543,-0.022919744728175543
0.007794838233027209,0.007794838233027209
0.038509421194230134,0.038509421194230134
0.07229546245154887,0.07229546245154887
0.13372462837395455,0.13372462837395455
0.10301004541275162,0.10301004541275162
0.07229546245154887,0.07229546245154887
0.007794838233027209,0.007794838233027209
-0.05363432768937847,-0.05363432768937847
-0.05363432768937847,-0.05363432768937847
-0.05363432768937847,-0.05363432768937847
-0.022919744728175543,-0.022919744728175543
0.007794838233027209,0.007794838233027209
0.007794838233027209,0.007794838233027209
0.007794838233027209,0.007794838233027209
0.007794838233027209,0.007794838233027209
-0.05363432768937847,-0.05363432768937847
-0.08434891065058123,-0.08434891065058123
-0.08434891065058123,-0.08434891065058123
-0.08434891065058123,-0.08434891065058123
-0.08434891065058123,-0.08434891065058123
-0.08434891065058123,-0.08434891065058123
-0.08434891065058123,-0.08434891065058123
-0.08434891065058123,-0.08434891065058123
-0.022919744728175543,-0.022919744728175543
0.2903690014760782,0.2903690014760782
0.8248027450009903,0.8248027450009903
1.359236488525902,1.359236488525902
1.580381485846554,1.580381485846554
1.2978073226034965,1.2978073226034965
0.41629879161700556,0.41629879161700556
-1.3436468120598508,-1.3436468120598508
-3.7332413664413435,-3.7332413664413435
-4.455034066029588,-4.455034066029588
-3.7332413664413435,-3.7332413664413435
-1.939509721507165,-1.939509721507165
-0.7447124443164173,-0.7447124443164173
-0.17956411783030565,-0.17956411783030565
0.038509421194230134,0.038509421194230134
0.19822525259247603,0.19822525259247603
0.2903690014760782,0.2903690014760782
0.32415504273340323,0.32415504273340323
0.35486962569460634,0.35486962569460634
0.2903690014760782,0.2903690014760782
0.2903690014760782,0.2903690014760782
0.22893983555367897,0.22893983555367897
0.22893983555367897,0.22893983555367897
0.25965441851488175,0.25965441851488175
0.2903690014760782,0.2903690014760782
0.25965441851488175,0.25965441851488175
0.22893983555367897,0.22893983555367897
0.22893983555367897,0.22893983555367897
0.2903690014760782,0.2903690014760782
0.32415504273340323,0.32415504273340323
0.35486962569460634,0.35486962569460634
0.41629879161700556,0.41629879161700556
0.41629879161700556,0.41629879161700556
0.41629879161700556,0.41629879161700556
0.41629879161700556,0.41629879161700556
0.41629879161700556,0.41629879161700556
0.45008483287433054,0.45008483287433054
0.4807994158355333,0.4807994158355333
0.4807994158355333,0.4807994158355333
0.45008483287433054,0.45008483287433054
0.41629879161700556,0.41629879161700556
0.38558420865580906,0.38558420865580906
0.32415504273340323,0.32415504273340323
0.25965441851488175,0.25965441851488175
0.22893983555367897,0.22893983555367897
0.25965441851488175,0.25965441851488175
0.25965441851488175,0.25965441851488175
0.22893983555367897,0.22893983555367897
0.22893983555367897,0.22893983555367897
0.1644392113351573,0.1644392113351573
0.07229546245154887,0.07229546245154887
0.038509421194230134,0.038509421194230134
0.007794838233027209,0.007794838233027209
0.007794838233027209,0.007794838233027209
0.007794838233027209,0.007794838233027209
0.038509421194230134,0.038509421194230134
0.13372462837395455,0.13372462837395455
0.1644392113351573,0.1644392113351573
0.19822525259247603,0.19822525259247603
0.19822525259247603,0.19822525259247603
0.19822525259247603,0.19822525259247603
0.19822525259247603,0.19822525259247603
0.25965441851488175,0.25965441851488175
0.32415504273340323,0.32415504273340323
0.35486962569460634,0.35486962569460634
0.32415504273340323,0.32415504273340323
0.32415504273340323,0.32415504273340323
0.32415504273340323,0.32415504273340323
0.32415504273340323,0.32415504273340323
0.2903690014760782,0.2903690014760782
0.25965441851488175,0.25965441851488175
0.2903690014760782,0.2903690014760782
0.32415504273340323,0.32415504273340323
0.45008483287433054,0.45008483287433054
0.7940881620397876,0.7940881620397876
0.8893033692195181,0.8893033692195181
0.4807994158355333,0.4807994158355333
0.35486962569460634,0.35486962569460634
0.5115139987967364,0.5115139987967364
0.45008483287433054,0.45008483287433054
0.25965441851488175,0.25965441851488175
0.007794838233027209,0.007794838233027209
-0.33620849093243593,-0.33620849093243593
-0.6525686954328119,-0.6525686954328119
-1.091787231777997,-1.091787231777997
-1.5310057681231812,-1.5310057681231812
-1.752150765443834,-1.752150765443834
-1.564791809380503,-1.564791809380503
-1.2822176461374475,-1.2822176461374475
-0.9965720245982712,-0.9965720245982712
-0.7447124443164173,-0.7447124443164173
-0.5573534882530875,-0.5573534882530875
-0.4621382810733631,-0.4621382810733631
-0.4314236981121603,-0.4314236981121603
-0.4314236981121603,-0.4314236981121603
-0.4314236981121603,-0.4314236981121603
-0.4621382810733631,-0.4621382810733631
-0.4621382810733631,-0.4621382810733631
-0.49592432233068184,-0.49592432233068184
-0.49592432233068184,-0.49592432233068184
-0.5266389052918846,-0.5266389052918846
-0.5880680712142904,-0.5880680712142904
-0.5880680712142904,-0.5880680712142904
-0.27477932501003005,-0.27477932501003005
0.22893983555367897,0.22893983555367897
0.6681583718988602,0.6681583718988602
0.7326589961173879,0.7326589961173879
0.1644392113351573,0.1644392113351573
-1.030358065855593,-1.030358065855593
-3.324737413057365,-3.324737413057365
-4.455034066029588,-4.455034066029588
-4.455034066029588,-4.455034066029588
-3.859171156582271,-3.859171156582271
-2.160654718827817,-2.160654718827817
-1.1562878559965204,-1.1562878559965204
-0.6525686954328119,-0.6525686954328119
-0.4007091151509574,-0.4007091151509574
-0.36999453218975464,-0.36999453218975464
-0.4007091151509574,-0.4007091151509574
-0.4314236981121603,-0.4314236981121603
-0.4007091151509574,-0.4007091151509574
-0.36999453218975464,-0.36999453218975464
-0.33620849093243593,-0.33620849093243593
-0.305493907971233,-0.305493907971233
-0.36999453218975464,-0.36999453218975464
-0.33620849093243593,-0.33620849093243593
-0.2440647420488273,-0.2440647420488273
-0.21027870079150857,-0.21027870079150857
-0.21027870079150857,-0.21027870079150857
-0.2440647420488273,-0.2440647420488273
-0.33620849093243593,-0.33620849093243593
-0.4314236981121603,-0.4314236981121603
-0.4621382810733631,-0.4621382810733631
-0.5266389052918846,-0.5266389052918846
-0.5573534882530875,-0.5573534882530875
-0.5266389052918846,-0.5266389052918846
-0.49592432233068184,-0.49592432233068184
-0.4621382810733631,-0.4621382810733631
-0.4314236981121603,-0.4314236981121603
-0.4007091151509574,-0.4007091151509574
-0.4314236981121603,-0.4314236981121603
-0.4007091151509574,-0.4007091151509574
-0.4007091151509574,-0.4007091151509574
-0.36999453218975464,-0.36999453218975464
-0.33620849093243593,-0.33620849093243593
-0.33620849093243593,-0.33620849093243593
-0.33620849093243593,-0.33620849093243593
-0.2440647420488273,-0.2440647420488273
-0.14884953486910288,-0.14884953486910288
-0.08434891065058123,-0.08434891065058123
-0.08434891065058123,-0.08434891065058123
-0.08434891065058123,-0.08434891065058123
-0.05363432768937847,-0.05363432768937847
0.007794838233027209,0.007794838233027209
-0.022919744728175543,-0.022919744728175543
-0.05363432768937847,-0.05363432768937847
0.007794838233027209,0.007794838233027209
0.07229546245154887,0.07229546245154887
0.10301004541275162,0.10301004541275162
0.13372462837395455,0.13372462837395455
0.07229546245154887,0.07229546245154887
0.07229546245154887,0.07229546245154887
0.038509421194230134,0.038509421194230134
0.007794838233027209,0.007794838233027209
0.038509421194230134,0.038509421194230134
0.07229546245154887,0.07229546245154887
0.07229546245154887,0.07229546245154887
0.13372462837395455,0.13372462837395455
0.19822525259247603,0.19822525259247603
0.19822525259247603,0.19822525259247603
0.19822525259247603,0.19822525259247603
0.22893983555367897,0.22893983555367897
0.1644392113351573,0.1644392113351573
0.10301004541275162,0.10301004541275162
0.13372462837395455,0.13372462837395455
0.1644392113351573,0.1644392113351573
0.25965441851488175,0.25965441851488175
0.35486962569460634,0.35486962569460634
0.38558420865580906,0.38558420865580906
0.38558420865580906,0.38558420865580906
0.41629879161700556,0.41629879161700556
0.41629879161700556,0.41629879161700556
0.45008483287433054,0.45008483287433054
0.4807994158355333,0.4807994158355333
0.4807994158355333,0.4807994158355333
0.45008483287433054,0.45008483287433054
0.4807994158355333,0.4807994158355333
0.4807994158355333,0.4807994158355333
0.45008483287433054,0.45008483287433054
0.45008483287433054,0.45008483287433054
0.38558420865580906,0.38558420865580906
0.2903690014760782,0.2903690014760782
0.2903690014760782,0.2903690014760782
0.32415504273340323,0.32415504273340323
0.38558420865580906,0.38558420865580906
0.41629879161700556,0.41629879161700556
0.38558420865580906,0.38558420865580906
0.35486962569460634,0.35486962569460634
0.32415504273340323,0.32415504273340323
0.32415504273340323,0.32415504273340323
0.35486962569460634,0.35486962569460634
0.38558420865580906,0.38558420865580906
0.41629879161700556,0.41629879161700556
0.35486962569460634,0.35486962569460634
0.45008483287433054,0.45008483287433054
0.7940881620397876,0.7940881620397876
1.4237371127444236,1.4237371127444236
1.927456273308133,1.927456273308133
2.1148152293714655,2.1148152293714655
1.8015264831672055,1.8015264831672055
0.9507325351419177,0.9507325351419177
-0.7139978613552151,-0.7139978613552151
-3.011448666853105,-3.011448666853105
-4.080316153902922,-4.080316153902922
-3.072877832775511,-3.072877832775511
-1.3743613950210523,-1.3743613950210523
-0.2440647420488273,-0.2440647420488273
0.22893983555367897,0.22893983555367897
0.41629879161700556,0.41629879161700556
0.4807994158355333,0.4807994158355333
0.5115139987967364,0.5115139987967364
0.5115139987967364,0.5115139987967364
0.4807994158355333,0.4807994158355333
0.4807994158355333,0.4807994158355333
0.5115139987967364,0.5115139987967364
0.5760146230152579,0.5760146230152579
0.6067292059764606,0.6067292059764606
0.5115139987967364,0.5115139987967364
0.5115139987967364,0.5115139987967364
0.5115139987967364,0.5115139987967364
0.5115139987967364,0.5115139987967364
0.5115139987967364,0.5115139987967364
0.5115139987967364,0.5115139987967364
0.5422285817579329,0.5422285817579329
0.6067292059764606,0.6067292059764606
0.698872954860063,0.698872954860063
0.7326589961173879,0.7326589961173879
0.7633735790785907,0.7633735790785907
0.7326589961173879,0.7326589961173879
0.6374437889376634,0.6374437889376634
0.698872954860063,0.698872954860063
0.7633735790785907,0.7633735790785907
0.7633735790785907,0.7633735790785907
0.7633735790785907,0.7633735790785907
0.7633735790785907,0.7633735790785907
0.698872954860063,0.698872954860063
0.6067292059764606,0.6067292059764606
0.5115139987967364,0.5115139987967364
0.45008483287433054,0.45008483287433054
0.38558420865580906,0.38558420865580906
0.35486962569460634,0.35486962569460634
0.35486962569460634,0.35486962569460634
0.35486962569460634,0.35486962569460634
0.38558420865580906,0.38558420865580906
0.35486962569460634,0.35486962569460634
0.35486962569460634,0.35486962569460634
0.32415504273340323,0.32415504273340323
0.2903690014760782,0.2903690014760782
0.35486962569460634,0.35486962569460634
0.35486962569460634,0.35486962569460634
0.32415504273340323,0.32415504273340323
0.2903690014760782,0.2903690014760782
0.32415504273340323,0.32415504273340323
0.41629879161700556,0.41629879161700556
0.45008483287433054,0.45008483287433054
0.45008483287433054,0.45008483287433054
0.45008483287433054,0.45008483287433054
0.35486962569460634,0.35486962569460634
0.35486962569460634,0.35486962569460634
0.41629879161700556,0.41629879161700556
0.41629879161700556,0.41629879161700556
0.45008483287433054,0.45008483287433054
0.45008483287433054,0.45008483287433054
0.41629879161700556,0.41629879161700556
0.32415504273340323,0.32415504273340323
0.22893983555367897,0.22893983555367897
0.10301004541275162,0.10301004541275162
0.007794838233027209,0.007794838233027209
-0.05363432768937847,-0.05363432768937847
-0.05363432768937847,-0.05363432768937847
-0.05363432768937847,-0.05363432768937847
-0.05363432768937847,-0.05363432768937847
-0.05363432768937847,-0.05363432768937847
-0.08434891065058123,-0.08434891065058123
-0.05363432768937847,-0.05363432768937847
-0.08434891065058123,-0.08434891065058123
-0.11813495190789997,-0.11813495190789997
-0.11813495190789997,-0.11813495190789997
-0.17956411783030565,-0.17956411783030565
-0.17956411783030565,-0.17956411783030565
-0.11813495190789997,-0.11813495190789997
-0.05363432768937847,-0.05363432768937847
0.038509421194230134,0.038509421194230134
0.07229546245154887,0.07229546245154887
0.13372462837395455,0.13372462837395455
0.10301004541275162,0.10301004541275162
0.07229546245154887,0.07229546245154887
0.07229546245154887,0.07229546245154887
0.10301004541275162,0.10301004541275162
0.07229546245154887,0.07229546245154887
0.10301004541275162,0.10301004541275162
0.13372462837395455,0.13372462837395455
0.10301004541275162,0.10301004541275162
0.007794838233027209,0.007794838233027209
-0.08434891065058123,-0.08434891065058123
-0.17956411783030565,-0.17956411783030565
-0.17956411783030565,-0.17956411783030565
-0.11813495190789997,-0.11813495190789997
-0.08434891065058123,-0.08434891065058123
0.038509421194230134,0.038509421194230134
0.4807994158355333,0.4807994158355333
1.1104483665401697,1.1104483665401697
1.611096068807757,1.611096068807757
1.7063112759874808,1.7063112759874808
1.1718775324625692,1.1718775324625692
-0.08434891065058123,-0.08434891065058123
-2.4125142991096715,-2.4125142991096715
-4.455034066029588,-4.455034066029588
-4.424319483068385,-4.424319483068385
-2.5691586722118016,-2.5691586722118016
-0.9044282757146659,-0.9044282757146659
-0.05363432768937847,-0.05363432768937847
0.22893983555367897,0.22893983555367897
0.32415504273340323,0.32415504273340323
0.38558420865580906,0.38558420865580906
0.41629879161700556,0.41629879161700556
0.45008483287433054,0.45008483287433054
0.4807994158355333,0.4807994158355333
0.4807994158355333,0.4807994158355333
0.4807994158355333,0.4807994158355333
0.45008483287433054,0.45008483287433054
0.35486962569460634,0.35486962569460634
0.2903690014760782,0.2903690014760782
0.22893983555367897,0.22893983555367897
0.1644392113351573,0.1644392113351573
0.1644392113351573,0.1644392113351573
0.1644392113351573,0.1644392113351573
0.19822525259247603,0.19822525259247603
0.19822525259247603,0.19822525259247603
0.19822525259247603,0.19822525259247603
0.22893983555367897,0.22893983555367897
0.2903690014760782,0.2903690014760782
0.22893983555367897,0.22893983555367897
0.19822525259247603,0.19822525259247603
0.19822525259247603,0.19822525259247603
0.22893983555367897,0.22893983555367897
0.22893983555367897,0.22893983555367897
0.25965441851488175,0.25965441851488175
0.32415504273340323,0.32415504273340323
0.41629879161700556,0.41629879161700556
0.45008483287433054,0.45008483287433054
0.4807994158355333,0.4807994158355333
0.45008483287433054,0.45008483287433054
0.41629879161700556,0.41629879161700556
0.38558420865580906,0.38558420865580906
0.38558420865580906,0.38558420865580906
0.41629879161700556,0.41629879161700556
0.41629879161700556,0.41629879161700556
0.45008483287433054,0.45008483287433054
0.38558420865580906,0.38558420865580906
0.2903690014760782,0.2903690014760782
0.22893983555367897,0.22893983555367897
0.1644392113351573,0.1644392113351573
0.13372462837395455,0.13372462837395455
0.13372462837395455,0.13372462837395455
0.13372462837395455,0.13372462837395455
0.19822525259247603,0.19822525259247603
0.22893983555367897,0.22893983555367897
0.2903690014760782,0.2903690014760782
0.32415504273340323,0.32415504273340323
0.35486962569460634,0.35486962569460634
0.32415504273340323,0.32415504273340323
0.25965441851488175,0.25965441851488175
0.25965441851488175,0.25965441851488175
0.2903690014760782,0.2903690014760782
0.32415504273340323,0.32415504273340323
0.32415504273340323,0.32415504273340323
0.32415504273340323,0.32415504273340323
0.35486962569460634,0.35486962569460634
0.32415504273340323,0.32415504273340323
0.32415504273340323,0.32415504273340323
0.32415504273340323,0.32415504273340323
0.32415504273340323,0.32415504273340323
0.25965441851488175,0.25965441851488175
0.19822525259247603,0.19822525259247603
0.19822525259247603,0.19822525259247603
0.19822525259247603,0.19822525259247603
0.13372462837395455,0.13372462837395455
0.07229546245154887,0.07229546245154887
-0.05363432768937847,-0.05363432768937847
-0.11813495190789997,-0.11813495190789997
-0.17956411783030565,-0.17956411783030565
-0.17956411783030565,-0.17956411783030565
-0.11813495190789997,-0.11813495190789997
-0.08434891065058123,-0.08434891065058123
-0.08434891065058123,-0.08434891065058123
-0.08434891065058123,-0.08434891065058123
-0.022919744728175543,-0.022919744728175543
0.007794838233027209,0.007794838233027209
0.007794838233027209,0.007794838233027209
0.007794838233027209,0.007794838233027209
0.1644392113351573,0.1644392113351573
0.6681583718988602,0.6681583718988602
1.2670927396422935,1.2670927396422935
1.6448821100650755,1.6448821100650755
1.4851662786668294,1.4851662786668294
0.7940881620397876,0.7940881620397876
-0.7447124443164173,-0.7447124443164173
-3.198807622916438,-3.198807622916438
-4.455034066029588,-4.455034066029588
-4.046530112645604,-4.046530112645604
-2.160654718827817,-2.160654718827817
-0.7447124443164173,-0.7447124443164173
-0.05363432768937847,-0.05363432768937847
0.19822525259247603,0.19822525259247603
0.32415504273340323,0.32415504273340323
0.35486962569460634,0.35486962569460634
0.2903690014760782,0.2903690014760782
0.22893983555367897,0.22893983555367897
0.1644392113351573,0.1644392113351573
0.13372462837395455,0.13372462837395455
0.1644392113351573,0.1644392113351573
0.19822525259247603,0.19822525259247603
0.22893983555367897,0.22893983555367897
0.2903690014760782,0.2903690014760782
0.32415504273340323,0.32415504273340323
0.35486962569460634,0.35486962569460634
0.35486962569460634,0.35486962569460634
0.35486962569460634,0.35486962569460634
0.32415504273340323,0.32415504273340323
0.32415504273340323,0.32415504273340323
0.35486962569460634,0.35486962569460634
0.38558420865580906,0.38558420865580906
0.45008483287433054,0.45008483287433054
0.4807994158355333,0.4807994158355333
0.4807994158355333,0.4807994158355333
0.4807994158355333,0.4807994158355333
0.4807994158355333,0.4807994158355333
0.4807994158355333,0.4807994158355333
0.4807994158355333,0.4807994158355333
0.5115139987967364,0.5115139987967364
0.5760146230152579,0.5760146230152579
0.5760146230152579,0.5760146230152579
0.5115139987967364,0.5115139987967364
0.45008483287433054,0.45008483287433054
0.35486962569460634,0.35486962569460634
0.25965441851488175,0.25965441851488175
0.1644392113351573,0.1644392113351573
0.13372462837395455,0.13372462837395455
0.13372462837395455,0.13372462837395455
0.13372462837395455,0.13372462837395455
0.13372462837395455,0.13372462837395455
0.1644392113351573,0.1644392113351573
0.19822525259247603,0.19822525259247603
0.22893983555367897,0.22893983555367897
0.22893983555367897,0.22893983555367897
0.2903690014760782,0.2903690014760782
0.2903690014760782,0.2903690014760782
0.2903690014760782,0.2903690014760782
0.2903690014760782,0.2903690014760782
0.32415504273340323,0.32415504273340323
0.38558420865580906,0.38558420865580906
0.41629879161700556,0.41629879161700556
0.45008483287433054,0.45008483287433054
0.45008483287433054,0.45008483287433054
0.45008483287433054,0.45008483287433054
0.41629879161700556,0.41629879161700556
0.35486962569460634,0.35486962569460634
0.35486962569460634,0.35486962569460634
0.35486962569460634,0.35486962569460634
0.35486962569460634,0.35486962569460634
0.32415504273340323,0.32415504273340323
0.22893983555367897,0.22893983555367897
0.13372462837395455,0.13372462837395455
0.038509421194230134,0.038509421194230134
-0.05363432768937847,-0.05363432768937847
-0.08434891065058123,-0.08434891065058123
-0.11813495190789997,-0.11813495190789997
-0.08434891065058123,-0.08434891065058123
-0.08434891065058123,-0.08434891065058123
-0.08434891065058123,-0.08434891065058123
-0.08434891065058123,-0.08434891065058123
-0.022919744728175543,-0.022919744728175543
0.007794838233027209,0.007794838233027209
-0.05363432768937847,-0.05363432768937847
-0.05363432768937847,-0.05363432768937847
-0.05363432768937847,-0.05363432768937847
0.22893983555367897,0.22893983555367897
0.8248027450009903,0.8248027450009903
1.3930225297832208,1.3930225297832208
1.6448821100650755,1.6448821100650755
1.3930225297832208,1.3930225297832208
0.45008483287433054,0.45008483287433054
-1.3436468120598508,-1.3436468120598508
-3.7977419906598713,-3.7977419906598713
-4.455034066029588,-4.455034066029588
-3.7977419906598713,-3.7977419906598713
-1.939509721507165,-1.939509721507165
-0.6525686954328119,-0.6525686954328119
-0.14884953486910288,-0.14884953486910288
0.07229546245154887,0.07229546245154887
0.1644392113351573,0.1644392113351573
0.1644392113351573,0.1644392113351573
0.1644392113351573,0.1644392113351573
0.1644392113351573,0.1644392113351573
0.19822525259247603,0.19822525259247603
0.22893983555367897,0.22893983555367897
0.22893983555367897,0.22893983555367897
0.25965441851488175,0.25965441851488175
0.25965441851488175,0.25965441851488175
0.2903690014760782,0.2903690014760782
0.2903690014760782,0.2903690014760782
0.2903690014760782,0.2903690014760782
0.2903690014760782,0.2903690014760782
0.25965441851488175,0.25965441851488175
0.22893983555367897,0.22893983555367897
0.25965441851488175,0.25965441851488175
0.32415504273340323,0.32415504273340323
0.38558420865580906,0.38558420865580906
0.41629879161700556,0.41629879161700556
0.45008483287433054,0.45008483287433054
0.41629879161700556,0.41629879161700556
0.38558420865580906,0.38558420865580906
0.35486962569460634,0.35486962569460634
0.35486962569460634,0.35486962569460634
0.35486962569460634,0.35486962569460634
0.35486962569460634,0.35486962569460634
0.35486962569460634,0.35486962569460634
0.35486962569460634,0.35486962569460634
0.2903690014760782,0.2903690014760782
0.19822525259247603,0.19822525259247603
0.13372462837395455,0.13372462837395455
0.038509421194230134,0.038509421194230134
0.038509421194230134,0.038509421194230134
0.038509421194230134,0.038509421194230134
0.038509421194230134,0.038509421194230134
0.038509421194230134,0.038509421194230134
0.07229546245154887,0.07229546245154887
0.10301004541275162,0.10301004541275162
0.13372462837395455,0.13372462837395455
0.13372462837395455,0.13372462837395455
0.1644392113351573,0.1644392113351573
0.13372462837395455,0.13372462837395455
0.13372462837395455,0.13372462837395455
0.13372462837395455,0.13372462837395455
0.19822525259247603,0.19822525259247603
0.25965441851488175,0.25965441851488175
0.32415504273340323,0.32415504273340323
0.35486962569460634,0.35486962569460634
0.32415504273340323,0.32415504273340323
0.32415504273340323,0.32415504273340323
0.32415504273340323,0.32415504273340323
0.2903690014760782,0.2903690014760782
0.22893983555367897,0.22893983555367897
0.22893983555367897,0.22893983555367897
0.22893983555367897,0.22893983555367897
0.22893983555367897,0.22893983555367897
0.19822525259247603,0.19822525259247603
0.07229546245154887,0.07229546245154887
-0.05363432768937847,-0.05363432768937847
-0.08434891065058123,-0.08434891065058123
-0.11813495190789997,-0.11813495190789997
-0.11813495190789997,-0.11813495190789997
-0.11813495190789997,-0.11813495190789997
-0.08434891065058123,-0.08434891065058123
-0.08434891065058123,-0.08434891065058123
-0.08434891065058123,-0.08434891065058123
-0.05363432768937847,-0.05363432768937847
-0.022919744728175543,-0.022919744728175543
-0.05363432768937847,-0.05363432768937847
-0.08434891065058123,-0.08434891065058123
-0.11813495190789997,-0.11813495190789997
-0.11813495190789997,-0.11813495190789997
-0.05363432768937847,-0.05363432768937847
0.007794838233027209,0.007794838233027209
0.038509421194230134,0.038509421194230134
0.07229546245154887,0.07229546245154887
0.07229546245154887,0.07229546245154887
0.07229546245154887,0.07229546245154887
0.038509421194230134,0.038509421194230134
0.038509421194230134,0.038509421194230134
0.038509421194230134,0.038509421194230134
0.038509421194230134,0.038509421194230134
0.07229546245154887,0.07229546245154887
0.038509421194230134,0.038509421194230134
-0.022919744728175543,-0.022919744728175543
-0.08434891065058123,-0.08434891065058123
-0.17956411783030565,-0.17956411783030565
-0.21027870079150857,-0.21027870079150857
-0.17956411783030565,-0.17956411783030565
-0.17956411783030565,-0.17956411783030565
0.038509421194230134,0.038509421194230134
0.5115139987967364,0.5115139987967364
1.1104483665401697,1.1104483665401697
1.3930225297832208,1.3930225297832208
1.1718775324625692,1.1718775324625692
0.41629879161700556,0.41629879161700556
-1.1225018147391985,-1.1225018147391985
-3.481381786159489,-3.481381786159489
-4.455034066029588,-4.455034066029588
-4.267675109966255,-4.267675109966255
-2.3817997161484685,-2.3817997161484685
-0.9044282757146659,-0.9044282757146659
-0.17956411783030565,-0.17956411783030565
0.10301004541275162,0.10301004541275162
0.19822525259247603,0.19822525259247603
0.22893983555367897,0.22893983555367897
0.22893983555367897,0.22893983555367897
0.25965441851488175,0.25965441851488175
0.2903690014760782,0.2903690014760782
0.32415504273340323,0.32415504273340323
0.32415504273340323,0.32415504273340323
0.32415504273340323,0.32415504273340323
0.2903690014760782,0.2903690014760782
0.19822525259247603,0.19822525259247603
0.19822525259247603,0.19822525259247603
0.1644392113351573,0.1644392113351573
0.13372462837395455,0.13372462837395455
0.13372462837395455,0.13372462837395455
0.1644392113351573,0.1644392113351573
0.19822525259247603,0.19822525259247603
0.19822525259247603,0.19822525259247603
0.19822525259247603,0.19822525259247603
0.22893983555367897,0.22893983555367897
0.2903690014760782,0.2903690014760782
0.2903690014760782,0.2903690014760782
0.25965441851488175,0.25965441851488175
0.25965441851488175,0.25965441851488175
0.32415504273340323,0.32415504273340323
0.38558420865580906,0.38558420865580906
0.41629879161700556,0.41629879161700556
0.41629879161700556,0.41629879161700556
0.45008483287433054,0.45008483287433054
0.4807994158355333,0.4807994158355333
0.38558420865580906,0.38558420865580906
0.32415504273340323,0.32415504273340323
0.32415504273340323,0.32415504273340323
0.2903690014760782,0.2903690014760782
0.22893983555367897,0.22893983555367897
0.19822525259247603,0.19822525259247603
0.19822525259247603,0.19822525259247603
0.19822525259247603,0.19822525259247603
0.13372462837395455,0.13372462837395455
0.07229546245154887,0.07229546245154887
0.07229546245154887,0.07229546245154887
0.038509421194230134,0.038509421194230134
0.007794838233027209,0.007794838233027209
0.038509421194230134,0.038509421194230134
0.07229546245154887,0.07229546245154887
0.1644392113351573,0.1644392113351573
0.22893983555367897,0.22893983555367897
0.22893983555367897,0.22893983555367897
0.22893983555367897,0.22893983555367897
0.22893983555367897,0.22893983555367897
0.22893983555367897,0.22893983555367897
0.22893983555367897,0.22893983555367897
0.22893983555367897,0.22893983555367897
0.2903690014760782,0.2903690014760782
0.2903690014760782,0.2903690014760782
0.2903690014760782,0.2903690014760782
0.32415504273340323,0.32415504273340323
0.2903690014760782,0.2903690014760782
0.1644392113351573,0.1644392113351573
0.1644392113351573,0.1644392113351573
0.1644392113351573,0.1644392113351573
0.1644392113351573,0.1644392113351573
0.10301004541275162,0.10301004541275162
0.07229546245154887,0.07229546245154887
0.007794838233027209,0.007794838233027209
-0.08434891065058123,-0.08434891065058123
-0.17956411783030565,-0.17956411783030565
-0.21027870079150857,-0.21027870079150857
-0.21027870079150857,-0.21027870079150857
-0.11813495190789997,-0.11813495190789997
-0.08434891065058123,-0.08434891065058123
-0.05363432768937847,-0.05363432768937847
-0.05363432768937847,-0.05363432768937847
-0.05363432768937847,-0.05363432768937847
-0.022919744728175543,-0.022919744728175543
0.007794838233027209,0.007794838233027209
-0.022919744728175543,-0.022919744728175543
-0.022919744728175543,-0.022919744728175543
0.007794838233027209,0.007794838233027209
0.038509421194230134,0.038509421194230134
0.07229546245154887,0.07229546245154887
0.2903690014760782,0.2903690014760782
0.8893033692195181,0.8893033692195181
1.3930225297832208,1.3930225297832208
1.6448821100650755,1.6448821100650755
1.4237371127444236,1.4237371127444236
0.698872954860063,0.698872954860063
-0.9658574416370697,-0.9658574416370697
-3.2940228300961625,-3.2940228300961625
-4.455034066029588,-4.455034066029588
-3.5765969933392197,-3.5765969933392197
-2.004010345725687,-2.004010345725687
-0.935142858675868,-0.935142858675868
-0.4314236981121603,-0.4314236981121603
-0.14884953486910288,-0.14884953486910288
0.038509421194230134,0.038509421194230134
0.07229546245154887,0.07229546245154887
0.038509421194230134,0.038509421194230134
0.07229546245154887,0.07229546245154887
0.13372462837395455,0.13372462837395455
0.1644392113351573,0.1644392113351573
0.1644392113351573,0.1644392113351573
0.10301004541275162,0.10301004541275162
0.07229546245154887,0.07229546245154887
0.10301004541275162,0.10301004541275162
0.19822525259247603,0.19822525259247603
0.2903690014760782,0.2903690014760782
0.2903690014760782,0.2903690014760782
0.2903690014760782,0.2903690014760782
0.32415504273340323,0.32415504273340323
0.32415504273340323,0.32415504273340323
0.32415504273340323,0.32415504273340323
0.2903690014760782,0.2903690014760782
0.38558420865580906,0.38558420865580906
0.41629879161700556,0.41629879161700556
0.45008483287433054,0.45008483287433054
0.41629879161700556,0.41629879161700556
0.38558420865580906,0.38558420865580906
0.32415504273340323,0.32415504273340323
0.25965441851488175,0.25965441851488175
0.19822525259247603,0.19822525259247603
0.1644392113351573,0.1644392113351573
0.13372462837395455,0.13372462837395455
0.13372462837395455,0.13372462837395455
0.13372462837395455,0.13372462837395455
0.10301004541275162,0.10301004541275162
0.038509421194230134,0.038509421194230134
0.007794838233027209,0.007794838233027209
-0.022919744728175543,-0.022919744728175543
-0.05363432768937847,-0.05363432768937847
-0.05363432768937847,-0.05363432768937847
-0.05363432768937847,-0.05363432768937847
-0.05363432768937847,-0.05363432768937847
0.007794838233027209,0.007794838233027209
-0.022919744728175543,-0.022919744728175543
-0.022919744728175543,-0.022919744728175543
0.007794838233027209,0.007794838233027209
0.038509421194230134,0.038509421194230134
0.13372462837395455,0.13372462837395455
0.19822525259247603,0.19822525259247603
0.19822525259247603,0.19822525259247603
0.1644392113351573,0.1644392113351573
0.13372462837395455,0.13372462837395455
0.10301004541275162,0.10301004541275162
0.07229546245154887,0.07229546245154887
0.10301004541275162,0.10301004541275162
0.13372462837395455,0.13372462837395455
0.13372462837395455,0.13372462837395455
0.07229546245154887,0.07229546245154887
0.038509421194230134,0.038509421194230134
0.007794838233027209,0.007794838233027209
-0.05363432768937847,-0.05363432768937847
-0.08434891065058123,-0.08434891065058123
-0.11813495190789997,-0.11813495190789997
-0.17956411783030565,-0.17956411783030565
-0.2440647420488273,-0.2440647420488273
-0.2440647420488273,-0.2440647420488273
-0.2440647420488273,-0.2440647420488273
-0.21027870079150857,-0.21027870079150857
-0.21027870079150857,-0.21027870079150857
-0.2440647420488273,-0.2440647420488273
-0.27477932501003005,-0.27477932501003005
-0.305493907971233,-0.305493907971233
-0.305493907971233,-0.305493907971233
-0.27477932501003005,-0.27477932501003005
-0.2440647420488273,-0.2440647420488273
-0.2440647420488273,-0.2440647420488273
-0.27477932501003005,-0.27477932501003005
-0.27477932501003005,-0.27477932501003005
-0.27477932501003005,-0.27477932501003005
-0.2440647420488273,-0.2440647420488273
-0.21027870079150857,-0.21027870079150857
-0.14884953486910288,-0.14884953486910288
0.1644392113351573,0.1644392113351573
0.7326589961173879,0.7326589961173879
1.3285219055646993,1.3285219055646993
1.580381485846554,1.580381485846554
1.359236488525902,1.359236488525902
0.4807994158355333,0.4807994158355333
-1.4388620192395765,-1.4388620192395765
-3.985100946723198,-3.985100946723198
-4.455034066029588,-4.455034066029588
-3.7639559494025465,-3.7639559494025465
-1.8473659726235594,-1.8473659726235594
-0.6525686954328119,-0.6525686954328119
-0.14884953486910288,-0.14884953486910288
0.07229546245154887,0.07229546245154887
0.13372462837395455,0.13372462837395455
0.1644392113351573,0.1644392113351573
0.13372462837395455,0.13372462837395455
0.13372462837395455,0.13372462837395455
0.1644392113351573,0.1644392113351573
0.19822525259247603,0.19822525259247603
0.22893983555367897,0.22893983555367897
0.22893983555367897,0.22893983555367897
0.19822525259247603,0.19822525259247603
0.1644392113351573,0.1644392113351573
0.13372462837395455,0.13372462837395455
0.13372462837395455,0.13372462837395455
0.13372462837395455,0.13372462837395455
0.13372462837395455,0.13372462837395455
0.13372462837395455,0.13372462837395455
0.1644392113351573,0.1644392113351573
0.1644392113351573,0.1644392113351573
0.19822525259247603,0.19822525259247603
0.1644392113351573,0.1644392113351573
0.13372462837395455,0.13372462837395455
0.13372462837395455,0.13372462837395455
0.10301004541275162,0.10301004541275162
0.07229546245154887,0.07229546245154887
0.07229546245154887,0.07229546245154887
0.07229546245154887,0.07229546245154887
0.13372462837395455,0.13372462837395455
0.19822525259247603,0.19822525259247603
0.25965441851488175,0.25965441851488175
0.2903690014760782,0.2903690014760782
0.22893983555367897,0.22893983555367897
0.19822525259247603,0.19822525259247603
0.19822525259247603,0.19822525259247603
0.19822525259247603,0.19822525259247603
0.22893983555367897,0.22893983555367897
0.2903690014760782,0.2903690014760782
0.2903690014760782,0.2903690014760782
0.22893983555367897,0.22893983555367897
0.19822525259247603,0.19822525259247603
0.1644392113351573,0.1644392113351573
0.13372462837395455,0.13372462837395455
0.13372462837395455,0.13372462837395455
0.10301004541275162,0.10301004541275162
0.10301004541275162,0.10301004541275162
0.13372462837395455,0.13372462837395455
0.1644392113351573,0.1644392113351573
0.1644392113351573,0.1644392113351573
0.10301004541275162,0.10301004541275162
0.038509421194230134,0.038509421194230134
0.007794838233027209,0.007794838233027209
-0.022919744728175543,-0.022919744728175543
-0.05363432768937847,-0.05363432768937847
-0.08434891065058123,-0.08434891065058123
-0.08434891065058123,-0.08434891065058123
-0.05363432768937847,-0.05363432768937847
0.007794838233027209,0.007794838233027209
0.038509421194230134,0.038509421194230134
0.038509421194230134,0.038509421194230134
0.007794838233027209,0.007794838233027209
0.007794838233027209,0.007794838233027209
0.007794838233027209,0.007794838233027209
0.038509421194230134,0.038509421194230134
0.07229546245154887,0.07229546245154887
0.07229546245154887,0.07229546245154887
0.10301004541275162,0.10301004541275162
0.19822525259247603,0.19822525259247603
0.6067292059764606,0.6067292059764606
1.1411629495013664,1.1411629495013664
1.5189523199241481,1.5189523199241481
1.580381485846554,1.580381485846554
1.0766623252828447,1.0766623252828447
-0.17956411783030565,-0.17956411783030565
-2.477014923328193,-2.477014923328193
-4.455034066029588,-4.455034066029588
-4.455034066029588,-4.455034066029588
-3.072877832775511,-3.072877832775511
-1.3743613950210523,-1.3743613950210523
-0.5266389052918846,-0.5266389052918846
-0.2440647420488273,-0.2440647420488273
-0.14884953486910288,-0.14884953486910288
-0.08434891065058123,-0.08434891065058123
-0.05363432768937847,-0.05363432768937847
-0.022919744728175543,-0.022919744728175543
0.007794838233027209,0.007794838233027209
0.007794838233027209,0.007794838233027209
0.007794838233027209,0.007794838233027209
0.038509421194230134,0.038509421194230134
0.07229546245154887,0.07229546245154887
0.1644392113351573,0.1644392113351573
0.19822525259247603,0.19822525259247603
0.25965441851488175,0.25965441851488175
0.32415504273340323,0.32415504273340323
0.35486962569460634,0.35486962569460634
0.38558420865580906,0.38558420865580906
0.35486962569460634,0.35486962569460634
0.32415504273340323,0.32415504273340323
0.32415504273340323,0.32415504273340323
0.2903690014760782,0.2903690014760782
0.2903690014760782,0.2903690014760782
0.2903690014760782,0.2903690014760782
0.2903690014760782,0.2903690014760782
0.32415504273340323,0.32415504273340323
0.32415504273340323,0.32415504273340323
0.2903690014760782,0.2903690014760782
0.22893983555367897,0.22893983555367897
0.19822525259247603,0.19822525259247603
0.19822525259247603,0.19822525259247603
0.1644392113351573,0.1644392113351573
0.10301004541275162,0.10301004541275162
0.07229546245154887,0.07229546245154887
0.07229546245154887,0.07229546245154887
0.038509421194230134,0.038509421194230134
0.007794838233027209,0.007794838233027209
0.038509421194230134,0.038509421194230134
0.07229546245154887,0.07229546245154887
0.10301004541275162,0.10301004541275162
0.13372462837395455,0.13372462837395455
0.10301004541275162,0.10301004541275162
0.13372462837395455,0.13372462837395455
0.13372462837395455,0.13372462837395455
0.19822525259247603,0.19822525259247603
0.22893983555367897,0.22893983555367897
0.2903690014760782,0.2903690014760782
0.22893983555367897,0.22893983555367897
0.19822525259247603,0.19822525259247603
0.13372462837395455,0.13372462837395455
0.13372462837395455,0.13372462837395455
0.07229546245154887,0.07229546245154887
0.10301004541275162,0.10301004541275162
0.13372462837395455,0.13372462837395455
0.1644392113351573,0.1644392113351573
0.1644392113351573,0.1644392113351573
0.13372462837395455,0.13372462837395455
0.038509421194230134,0.038509421194230134
-0.022919744728175543,-0.022919744728175543
-0.11813495190789997,-0.11813495190789997
-0.17956411783030565,-0.17956411783030565
-0.17956411783030565,-0.17956411783030565
-0.21027870079150857,-0.21027870079150857
-0.2440647420488273,-0.2440647420488273
-0.21027870079150857,-0.21027870079150857
-0.17956411783030565,-0.17956411783030565
-0.11813495190789997,-0.11813495190789997
-0.08434891065058123,-0.08434891065058123
0.038509421194230134,0.038509421194230134
0.5115139987967364,0.5115139987967364
1.1104483665401697,1.1104483665401697
1.4544516957056266,1.4544516957056266
1.5189523199241481,1.5189523199241481
0.8248027450009903,0.8248027450009903
-0.5573534882530875,-0.5573534882530875
-2.9469480426345833,-2.9469480426345833
-4.455034066029588,-4.455034066029588
-4.455034066029588,-4.455034066029588
-2.633659296430323,-2.633659296430323
-1.091787231777997,-1.091787231777997
-0.36999453218975464,-0.36999453218975464
-0.11813495190789997,-0.11813495190789997
0.007794838233027209,0.007794838233027209
0.10301004541275162,0.10301004541275162
0.13372462837395455,0.13372462837395455
0.10301004541275162,0.10301004541275162
0.07229546245154887,0.07229546245154887
0.07229546245154887,0.07229546245154887
0.07229546245154887,0.07229546245154887
0.13372462837395455,0.13372462837395455
0.19822525259247603,0.19822525259247603
0.19822525259247603,0.19822525259247603
0.25965441851488175,0.25965441851488175
0.2903690014760782,0.2903690014760782
0.25965441851488175,0.25965441851488175
0.2903690014760782,0.2903690014760782
0.32415504273340323,0.32415504273340323
0.35486962569460634,0.35486962569460634
0.35486962569460634,0.35486962569460634
0.38558420865580906,0.38558420865580906
0.32415504273340323,0.32415504273340323
0.32415504273340323,0.32415504273340323
0.35486962569460634,0.35486962569460634
0.35486962569460634,0.35486962569460634
0.35486962569460634,0.35486962569460634
0.35486962569460634,0.35486962569460634
0.32415504273340323,0.32415504273340323
0.25965441851488175,0.25965441851488175
0.22893983555367897,0.22893983555367897
0.19822525259247603,0.19822525259247603
0.13372462837395455,0.13372462837395455
0.07229546245154887,0.07229546245154887
0.038509421194230134,0.038509421194230134
0.038509421194230134,0.038509421194230134
0.038509421194230134,0.038509421194230134
0.07229546245154887,0.07229546245154887
0.038509421194230134,0.038509421194230134
0.038509421194230134,0.038509421194230134
0.038509421194230134,0.038509421194230134
0.07229546245154887,0.07229546245154887
0.07229546245154887,0.07229546245154887
0.038509421194230134,0.038509421194230134
0.038509421194230134,0.038509421194230134
0.038509421194230134,0.038509421194230134
0.07229546245154887,0.07229546245154887
0.1644392113351573,0.1644392113351573
0.19822525259247603,0.19822525259247603
0.22893983555367897,0.22893983555367897
0.25965441851488175,0.25965441851488175
0.2903690014760782,0.2903690014760782
0.2903690014760782,0.2903690014760782
0.25965441851488175,0.25965441851488175
0.22893983555367897,0.22893983555367897
0.19822525259247603,0.19822525259247603
0.1644392113351573,0.1644392113351573
0.07229546245154887,0.07229546245154887
0.007794838233027209,0.007794838233027209
-0.05363432768937847,-0.05363432768937847
-0.11813495190789997,-0.11813495190789997
-0.17956411783030565,-0.17956411783030565
-0.17956411783030565,-0.17956411783030565
-0.21027870079150857,-0.21027870079150857
-0.17956411783030565,-0.17956411783030565
-0.17956411783030565,-0.17956411783030565
-0.17956411783030565,-0.17956411783030565
-0.14884953486910288,-0.14884953486910288
-0.14884953486910288,-0.14884953486910288
-0.11813495190789997,-0.11813495190789997
-0.08434891065058123,-0.08434891065058123
-0.11813495190789997,-0.11813495190789997
-0.14884953486910288,-0.14884953486910288
-0.14884953486910288,-0.14884953486910288
-0.11813495190789997,-0.11813495190789997
-0.11813495190789997,-0.11813495190789997
-0.05363432768937847,-0.05363432768937847
0.007794838233027209,0.007794838233027209
0.007794838233027209,0.007794838233027209
-0.022919744728175543,-0.022919744728175543
-0.022919744728175543,-0.022919744728175543
0.007794838233027209,0.007794838233027209
0.007794838233027209,0.007794838233027209
0.007794838233027209,0.007794838233027209
-0.022919744728175543,-0.022919744728175543
-0.05363432768937847,-0.05363432768937847
0.1644392113351573,0.1644392113351573
0.698872954860063,0.698872954860063
1.2333066983849748,1.2333066983849748
1.4544516957056266,1.4544516957056266
1.2333066983849748,1.2333066983849748
0.45008483287433054,0.45008483287433054
-1.3129322290986485,-1.3129322290986485
-3.702526783480147,-3.702526783480147
-4.455034066029588,-4.455034066029588
-3.8898857395434736,-3.8898857395434736
-2.0992255529054114,-2.0992255529054114
-0.9044282757146659,-0.9044282757146659
-0.33620849093243593,-0.33620849093243593
-0.11813495190789997,-0.11813495190789997
0.007794838233027209,0.007794838233027209
0.13372462837395455,0.13372462837395455
0.1644392113351573,0.1644392113351573
0.19822525259247603,0.19822525259247603
0.22893983555367897,0.22893983555367897
0.25965441851488175,0.25965441851488175
0.32415504273340323,0.32415504273340323
0.41629879161700556,0.41629879161700556
0.41629879161700556,0.41629879161700556
0.41629879161700556,0.41629879161700556
0.38558420865580906,0.38558420865580906
0.35486962569460634,0.35486962569460634
0.32415504273340323,0.32415504273340323
0.32415504273340323,0.32415504273340323
0.32415504273340323,0.32415504273340323
0.32415504273340323,0.32415504273340323
0.35486962569460634,0.35486962569460634
0.35486962569460634,0.35486962569460634
0.32415504273340323,0.32415504273340323
0.2903690014760782,0.2903690014760782
0.25965441851488175,0.25965441851488175
0.19822525259247603,0.19822525259247603
0.1644392113351573,0.1644392113351573
0.1644392113351573,0.1644392113351573
0.19822525259247603,0.19822525259247603
0.1644392113351573,0.1644392113351573
0.1644392113351573,0.1644392113351573
0.1644392113351573,0.1644392113351573
0.1644392113351573,0.1644392113351573
0.19822525259247603,0.19822525259247603
0.19822525259247603,0.19822525259247603
0.22893983555367897,0.22893983555367897
0.22893983555367897,0.22893983555367897
0.22893983555367897,0.22893983555367897
0.22893983555367897,0.22893983555367897
0.2903690014760782,0.2903690014760782
0.32415504273340323,0.32415504273340323
0.35486962569460634,0.35486962569460634
0.35486962569460634,0.35486962569460634
0.32415504273340323,0.32415504273340323
0.2903690014760782,0.2903690014760782
0.22893983555367897,0.22893983555367897
0.22893983555367897,0.22893983555367897
0.22893983555367897,0.22893983555367897
0.22893983555367897,0.22893983555367897
0.22893983555367897,0.22893983555367897
0.22893983555367897,0.22893983555367897
0.19822525259247603,0.19822525259247603
0.1644392113351573,0.1644392113351573
0.10301004541275162,0.10301004541275162
0.038509421194230134,0.038509421194230134
0.038509421194230134,0.038509421194230134
0.007794838233027209,0.007794838233027209
0.007794838233027209,0.007794838233027209
-0.022919744728175543,-0.022919744728175543
-0.05363432768937847,-0.05363432768937847
-0.08434891065058123,-0.08434891065058123
-0.08434891065058123,-0.08434891065058123
-0.08434891065058123,-0.08434891065058123
-0.08434891065058123,-0.08434891065058123
-0.11813495190789997,-0.11813495190789997
-0.08434891065058123,-0.08434891065058123
-0.05363432768937847,-0.05363432768937847
-0.022919744728175543,-0.022919744728175543
0.007794838233027209,0.007794838233027209
0.038509421194230134,0.038509421194230134
0.038509421194230134,0.038509421194230134
0.22893983555367897,0.22893983555367897
0.698872954860063,0.698872954860063
1.202592115423772,1.202592115423772
1.4851662786668294,1.4851662786668294
1.359236488525902,1.359236488525902
0.698872954860063,0.698872954860063
-0.870642234457344,-0.870642234457344
-3.355451996018562,-3.355451996018562
-4.455034066029588,-4.455034066029588
-4.298389692927458,-4.298389692927458
-2.4432288820708745,-2.4432288820708745
-1.030358065855593,-1.030358065855593
-0.4007091151509574,-0.4007091151509574
-0.21027870079150857,-0.21027870079150857
-0.11813495190789997,-0.11813495190789997
-0.022919744728175543,-0.022919744728175543
0.007794838233027209,0.007794838233027209
0.07229546245154887,0.07229546245154887
0.13372462837395455,0.13372462837395455
0.19822525259247603,0.19822525259247603
0.22893983555367897,0.22893983555367897
0.22893983555367897,0.22893983555367897
0.22893983555367897,0.22893983555367897
0.25965441851488175,0.25965441851488175
0.2903690014760782,0.2903690014760782
0.32415504273340323,0.32415504273340323
0.35486962569460634,0.35486962569460634
0.38558420865580906,0.38558420865580906
0.41629879161700556,0.41629879161700556
0.35486962569460634,0.35486962569460634
0.32415504273340323,0.32415504273340323
0.2903690014760782,0.2903690014760782
0.2903690014760782,0.2903690014760782
0.25965441851488175,0.25965441851488175
0.22893983555367897,0.22893983555367897
0.22893983555367897,0.22893983555367897
0.22893983555367897,0.22893983555367897
0.19822525259247603,0.19822525259247603
0.19822525259247603,0.19822525259247603
0.1644392113351573,0.1644392113351573
0.1644392113351573,0.1644392113351573
0.19822525259247603,0.19822525259247603
0.1644392113351573,0.1644392113351573
0.13372462837395455,0.13372462837395455
0.13372462837395455,0.13372462837395455
0.13372462837395455,0.13372462837395455
0.13372462837395455,0.13372462837395455
0.13372462837395455,0.13372462837395455
0.13372462837395455,0.13372462837395455
0.1644392113351573,0.1644392113351573
0.13372462837395455,0.13372462837395455
0.13372462837395455,0.13372462837395455
0.1644392113351573,0.1644392113351573
0.19822525259247603,0.19822525259247603
0.22893983555367897,0.22893983555367897
0.22893983555367897,0.22893983555367897
0.19822525259247603,0.19822525259247603
0.1644392113351573,0.1644392113351573
0.1644392113351573,0.1644392113351573
0.1644392113351573,0.1644392113351573
0.13372462837395455,0.13372462837395455
0.13372462837395455,0.13372462837395455
0.13372462837395455,0.13372462837395455
0.10301004541275162,0.10301004541275162
0.10301004541275162,0.10301004541275162
0.07229546245154887,0.07229546245154887
0.007794838233027209,0.007794838233027209
-0.05363432768937847,-0.05363432768937847
-0.08434891065058123,-0.08434891065058123
-0.11813495190789997,-0.11813495190789997
-0.11813495190789997,-0.11813495190789997
-0.11813495190789997,-0.11813495190789997
-0.14884953486910288,-0.14884953486910288
-0.11813495190789997,-0.11813495190789997
-0.11813495190789997,-0.11813495190789997
-0.08434891065058123,-0.08434891065058123
-0.11813495190789997,-0.11813495190789997
-0.11813495190789997,-0.11813495190789997
-0.08434891065058123,-0.08434891065058123
-0.05363432768937847,-0.05363432768937847
-0.022919744728175543,-0.022919744728175543
-0.022919744728175543,-0.022919744728175543
0.007794838233027209,0.007794838233027209
0.007794838233027209,0.007794838233027209
-0.022919744728175543,-0.022919744728175543
-0.05363432768937847,-0.05363432768937847
-0.05363432768937847,-0.05363432768937847
-0.08434891065058123,-0.08434891065058123
-0.11813495190789997,-0.11813495190789997
-0.11813495190789997,-0.11813495190789997
-0.14884953486910288,-0.14884953486910288
-0.14884953486910288,-0.14884953486910288
-0.17956411783030565,-0.17956411783030565
-0.17956411783030565,-0.17956411783030565
-0.21027870079150857,-0.21027870079150857
-0.2440647420488273,-0.2440647420488273
-0.2440647420488273,-0.2440647420488273
-0.21027870079150857,-0.21027870079150857
-0.08434891065058123,-0.08434891065058123
0.32415504273340323,0.32415504273340323
0.8893033692195181,0.8893033692195181
1.2978073226034965,1.2978073226034965
1.359236488525902,1.359236488525902
0.8248027450009903,0.8248027450009903
-0.33620849093243593,-0.33620849093243593
-2.5691586722118016,-2.5691586722118016
-4.455034066029588,-4.455034066029588
-4.455034066029588,-4.455034066029588
-2.7595890865712507,-2.7595890865712507
-1.1562878559965204,-1.1562878559965204
-0.33620849093243593,-0.33620849093243593
0.007794838233027209,0.007794838233027209
0.13372462837395455,0.13372462837395455
0.22893983555367897,0.22893983555367897
0.25965441851488175,0.25965441851488175
0.25965441851488175,0.25965441851488175
0.25965441851488175,0.25965441851488175
0.22893983555367897,0.22893983555367897
0.22893983555367897,0.22893983555367897
0.19822525259247603,0.19822525259247603
0.19822525259247603,0.19822525259247603
0.1644392113351573,0.1644392113351573
0.1644392113351573,0.1644392113351573
0.1644392113351573,0.1644392113351573
0.13372462837395455,0.13372462837395455
0.13372462837395455,0.13372462837395455
0.13372462837395455,0.13372462837395455
0.13372462837395455,0.13372462837395455
0.13372462837395455,0.13372462837395455
0.13372462837395455,0.13372462837395455
0.13372462837395455,0.13372462837395455
0.19822525259247603,0.19822525259247603
0.22893983555367897,0.22893983555367897
0.2903690014760782,0.2903690014760782
0.2903690014760782,0.2903690014760782
0.2903690014760782,0.2903690014760782
0.32415504273340323,0.32415504273340323
0.35486962569460634,0.35486962569460634
0.38558420865580906,0.38558420865580906
0.32415504273340323,0.32415504273340323
0.32415504273340323,0.32415504273340323
0.32415504273340323,0.32415504273340323
0.2903690014760782,0.2903690014760782
0.25965441851488175,0.25965441851488175
0.22893983555367897,0.22893983555367897
0.22893983555367897,0.22893983555367897
0.19822525259247603,0.19822525259247603
0.1644392113351573,0.1644392113351573
0.1644392113351573,0.1644392113351573
0.13372462837395455,0.13372462837395455
0.07229546245154887,0.07229546245154887
0.038509421194230134,0.038509421194230134
0.038509421194230134,0.038509421194230134
0.038509421194230134,0.038509421194230134
0.07229546245154887,0.07229546245154887
0.10301004541275162,0.10301004541275162
0.13372462837395455,0.13372462837395455
0.1644392113351573,0.1644392113351573
0.19822525259247603,0.19822525259247603
0.22893983555367897,0.22893983555367897
0.22893983555367897,0.22893983555367897
0.19822525259247603,0.19822525259247603
0.1644392113351573,0.1644392113351573
0.1644392113351573,0.1644392113351573
0.19822525259247603,0.19822525259247603
0.25965441851488175,0.25965441851488175
0.2903690014760782,0.2903690014760782
0.2903690014760782,0.2903690014760782
0.22893983555367897,0.22893983555367897
0.19822525259247603,0.19822525259247603
0.19822525259247603,0.19822525259247603
0.13372462837395455,0.13372462837395455
0.07229546245154887,0.07229546245154887
0.038509421194230134,0.038509421194230134
0.007794838233027209,0.007794838233027209
-0.022919744728175543,-0.022919744728175543
-0.05363432768937847,-0.05363432768937847
-0.08434891065058123,-0.08434891065058123
-0.14884953486910288,-0.14884953486910288
-0.2440647420488273,-0.2440647420488273
-0.305493907971233,-0.305493907971233
-0.33620849093243593,-0.33620849093243593
-0.305493907971233,-0.305493907971233
-0.27477932501003005,-0.27477932501003005
-0.305493907971233,-0.305493907971233
-0.33620849093243593,-0.33620849093243593
-0.33620849093243593,-0.33620849093243593
-0.33620849093243593,-0.33620849093243593
-0.27477932501003005,-0.27477932501003005
-0.21027870079150857,-0.21027870079150857
-0.17956411783030565,-0.17956411783030565
-0.14884953486910288,-0.14884953486910288
-0.11813495190789997,-0.11813495190789997
-0.08434891065058123,-0.08434891065058123
0.007794838233027209,0.007794838233027209
0.038509421194230134,0.038509421194230134
0.07229546245154887,0.07229546245154887
0.07229546245154887,0.07229546245154887
0.038509421194230134,0.038509421194230134
-0.022919744728175543,-0.022919744728175543
-0.05363432768937847,-0.05363432768937847
-0.05363432768937847,-0.05363432768937847
-0.05363432768937847,-0.05363432768937847
-0.05363432768937847,-0.05363432768937847
0.19822525259247603,0.19822525259247603
0.7633735790785907,0.7633735790785907
1.2670927396422935,1.2670927396422935
1.4237371127444236,1.4237371127444236
1.0766623252828447,1.0766623252828447
0.1644392113351573,0.1644392113351573
-1.721436182482632,-1.721436182482632
-4.111030736864125,-4.111030736864125
-4.455034066029588,-4.455034066029588
-3.5765969933392197,-3.5765969933392197
-1.8166513896623577,-1.8166513896623577
-0.7139978613552151,-0.7139978613552151
-0.2440647420488273,-0.2440647420488273
0.007794838233027209,0.007794838233027209
0.13372462837395455,0.13372462837395455
0.1644392113351573,0.1644392113351573
0.19822525259247603,0.19822525259247603
0.19822525259247603,0.19822525259247603
0.25965441851488175,0.25965441851488175
0.2903690014760782,0.2903690014760782
0.32415504273340323,0.32415504273340323
0.32415504273340323,0.32415504273340323
0.2903690014760782,0.2903690014760782
0.22893983555367897,0.22893983555367897
0.19822525259247603,0.19822525259247603
0.1644392113351573,0.1644392113351573
0.1644392113351573,0.1644392113351573
0.1644392113351573,0.1644392113351573
0.19822525259247603,0.19822525259247603
0.19822525259247603,0.19822525259247603
0.19822525259247603,0.19822525259247603
0.19822525259247603,0.19822525259247603
0.1644392113351573,0.1644392113351573
0.13372462837395455,0.13372462837395455
0.10301004541275162,0.10301004541275162
0.07229546245154887,0.07229546245154887
0.07229546245154887,0.07229546245154887
0.07229546245154887,0.07229546245154887
0.07229546245154887,0.07229546245154887
0.10301004541275162,0.10301004541275162
0.13372462837395455,0.13372462837395455
0.19822525259247603,0.19822525259247603
0.22893983555367897,0.22893983555367897
0.22893983555367897,0.22893983555367897
0.22893983555367897,0.22893983555367897
0.22893983555367897,0.22893983555367897
0.22893983555367897,0.22893983555367897
0.25965441851488175,0.25965441851488175
0.32415504273340323,0.32415504273340323
0.35486962569460634,0.35486962569460634
0.32415504273340323,0.32415504273340323
0.22893983555367897,0.22893983555367897
0.19822525259247603,0.19822525259247603
0.19822525259247603,0.19822525259247603
0.19822525259247603,0.19822525259247603
0.22893983555367897,0.22893983555367897
0.25965441851488175,0.25965441851488175
0.25965441851488175,0.25965441851488175
0.2903690014760782,0.2903690014760782
0.25965441851488175,0.25965441851488175
0.1644392113351573,0.1644392113351573
0.07229546245154887,0.07229546245154887
0.038509421194230134,0.038509421194230134
-0.022919744728175543,-0.022919744728175543
-0.05363432768937847,-0.05363432768937847
-0.05363432768937847,-0.05363432768937847
-0.022919744728175543,-0.022919744728175543
0.007794838233027209,0.007794838233027209
0.007794838233027209,0.007794838233027209
0.038509421194230134,0.038509421194230134
-0.022919744728175543,-0.022919744728175543
-0.08434891065058123,-0.08434891065058123
-0.11813495190789997,-0.11813495190789997
-0.11813495190789997,-0.11813495190789997
-0.08434891065058123,-0.08434891065058123
-0.05363432768937847,-0.05363432768937847
-0.022919744728175543,-0.022919744728175543
-0.05363432768937847,-0.05363432768937847
-0.08434891065058123,-0.08434891065058123
-0.11813495190789997,-0.11813495190789997
-0.14884953486910288,-0.14884953486910288
-0.17956411783030565,-0.17956411783030565
-0.21027870079150857,-0.21027870079150857
-0.2440647420488273,-0.2440647420488273
-0.2440647420488273,-0.2440647420488273
-0.21027870079150857,-0.21027870079150857
-0.21027870079150857,-0.21027870079150857
-0.21027870079150857,-0.21027870079150857
-0.2440647420488273,-0.2440647420488273
-0.2440647420488273,-0.2440647420488273
-0.2440647420488273,-0.2440647420488273
-0.27477932501003005,-0.27477932501003005
-0.27477932501003005,-0.27477932501003005
-0.2440647420488273,-0.2440647420488273
-0.2440647420488273,-0.2440647420488273
-0.2440647420488273,-0.2440647420488273
-0.2440647420488273,-0.2440647420488273
-0.17956411783030565,-0.17956411783030565
-0.08434891065058123,-0.08434891065058123
0.038509421194230134,0.038509421194230134
0.4807994158355333,0.4807994158355333
1.0766623252828447,1.0766623252828447
1.4851662786668294,1.4851662786668294
1.580381485846554,1.580381485846554
1.0766623252828447,1.0766623252828447
-0.05363432768937847,-0.05363432768937847
-2.317299091929947,-2.317299091929947
-4.36289031714598,-4.36289031714598
-4.455034066029588,-4.455034066029588
-2.5691586722118016,-2.5691586722118016
-1.1225018147391985,-1.1225018147391985
-0.4314236981121603,-0.4314236981121603
-0.14884953486910288,-0.14884953486910288
0.007794838233027209,0.007794838233027209
0.13372462837395455,0.13372462837395455
0.13372462837395455,0.13372462837395455
0.10301004541275162,0.10301004541275162
0.038509421194230134,0.038509421194230134
0.007794838233027209,0.007794838233027209
-0.05363432768937847,-0.05363432768937847
-0.05363432768937847,-0.05363432768937847
-0.05363432768937847,-0.05363432768937847
-0.05363432768937847,-0.05363432768937847
-0.05363432768937847,-0.05363432768937847
0.007794838233027209,0.007794838233027209
0.07229546245154887,0.07229546245154887
0.10301004541275162,0.10301004541275162
0.13372462837395455,0.13372462837395455
0.07229546245154887,0.07229546245154887
0.07229546245154887,0.07229546245154887
0.10301004541275162,0.10301004541275162
0.19822525259247603,0.19822525259247603
0.25965441851488175,0.25965441851488175
0.32415504273340323,0.32415504273340323
0.2903690014760782,0.2903690014760782
0.2903690014760782,0.2903690014760782
0.25965441851488175,0.25965441851488175
0.22893983555367897,0.22893983555367897
0.19822525259247603,0.19822525259247603
0.22893983555367897,0.22893983555367897
0.22893983555367897,0.22893983555367897
0.22893983555367897,0.22893983555367897
0.25965441851488175,0.25965441851488175
0.22893983555367897,0.22893983555367897
0.19822525259247603,0.19822525259247603
0.13372462837395455,0.13372462837395455
0.07229546245154887,0.07229546245154887
0.007794838233027209,0.007794838233027209
0.007794838233027209,0.007794838233027209
-0.022919744728175543,-0.022919744728175543
0.007794838233027209,0.007794838233027209
0.038509421194230134,0.038509421194230134
0.10301004541275162,0.10301004541275162
0.1644392113351573,0.1644392113351573
0.22893983555367897,0.22893983555367897
0.22893983555367897,0.22893983555367897
0.22893983555367897,0.22893983555367897
0.22893983555367897,0.22893983555367897
0.25965441851488175,0.25965441851488175
0.32415504273340323,0.32415504273340323
0.35486962569460634,0.35486962569460634
0.35486962569460634,0.35486962569460634
0.2903690014760782,0.2903690014760782
0.22893983555367897,0.22893983555367897
0.19822525259247603,0.19822525259247603
0.1644392113351573,0.1644392113351573
0.13372462837395455,0.13372462837395455
0.13372462837395455,0.13372462837395455
0.10301004541275162,0.10301004541275162
0.07229546245154887,0.07229546245154887
0.07229546245154887,0.07229546245154887
0.07229546245154887,0.07229546245154887
0.007794838233027209,0.007794838233027209
-0.08434891065058123,-0.08434891065058123
-0.17956411783030565,-0.17956411783030565
-0.2440647420488273,-0.2440647420488273
-0.27477932501003005,-0.27477932501003005
-0.27477932501003005,-0.27477932501003005
-0.27477932501003005,-0.27477932501003005
-0.2440647420488273,-0.2440647420488273
-0.21027870079150857,-0.21027870079150857
-0.17956411783030565,-0.17956411783030565
-0.14884953486910288,-0.14884953486910288
-0.11813495190789997,-0.11813495190789997
-0.11813495190789997,-0.11813495190789997
-0.11813495190789997,-0.11813495190789997
-0.11813495190789997,-0.11813495190789997
-0.08434891065058123,-0.08434891065058123
-0.022919744728175543,-0.022919744728175543
0.007794838233027209,0.007794838233027209
0.007794838233027209,0.007794838233027209
0.07229546245154887,0.07229546245154887
0.41629879161700556,0.41629879161700556
0.9845185763992427,0.9845185763992427
1.359236488525902,1.359236488525902
1.4237371127444236,1.4237371127444236
0.8585887862583154,0.8585887862583154
-0.33620849093243593,-0.33620849093243593
-2.5384440892505986,-2.5384440892505986
-4.455034066029588,-4.455034066029588
-4.455034066029588,-4.455034066029588
-2.851732835454859,-2.851732835454859
-1.3129322290986485,-1.3129322290986485
-0.5266389052918846,-0.5266389052918846
-0.21027870079150857,-0.21027870079150857
-0.05363432768937847,-0.05363432768937847
0.038509421194230134,0.038509421194230134
0.10301004541275162,0.10301004541275162
0.1644392113351573,0.1644392113351573
0.22893983555367897,0.22893983555367897
0.22893983555367897,0.22893983555367897
0.2903690014760782,0.2903690014760782
0.2903690014760782,0.2903690014760782
0.2903690014760782,0.2903690014760782
0.32415504273340323,0.32415504273340323
0.35486962569460634,0.35486962569460634
0.35486962569460634,0.35486962569460634
0.32415504273340323,0.32415504273340323
0.35486962569460634,0.35486962569460634
0.35486962569460634,0.35486962569460634
0.32415504273340323,0.32415504273340323
0.22893983555367897,0.22893983555367897
0.22893983555367897,0.22893983555367897
0.22893983555367897,0.22893983555367897
0.2903690014760782,0.2903690014760782
0.32415504273340323,0.32415504273340323
0.35486962569460634,0.35486962569460634
0.38558420865580906,0.38558420865580906
0.35486962569460634,0.35486962569460634
0.2903690014760782,0.2903690014760782
0.22893983555367897,0.22893983555367897
0.1644392113351573,0.1644392113351573
0.13372462837395455,0.13372462837395455
0.13372462837395455,0.13372462837395455
0.13372462837395455,0.13372462837395455
0.1644392113351573,0.1644392113351573
0.19822525259247603,0.19822525259247603
0.19822525259247603,0.19822525259247603
0.19822525259247603,0.19822525259247603
0.19822525259247603,0.19822525259247603
0.19822525259247603,0.19822525259247603
0.19822525259247603,0.19822525259247603
0.19822525259247603,0.19822525259247603
0.22893983555367897,0.22893983555367897
0.2903690014760782,0.2903690014760782
0.2903690014760782,0.2903690014760782
0.2903690014760782,0.2903690014760782
0.2903690014760782,0.2903690014760782
0.25965441851488175,0.25965441851488175
0.19822525259247603,0.19822525259247603
0.13372462837395455,0.13372462837395455
0.10301004541275162,0.10301004541275162
0.13372462837395455,0.13372462837395455
0.1644392113351573,0.1644392113351573
0.22893983555367897,0.22893983555367897
