ECG,PPG
0.026560122536606636,0.026560122536606636
0.5867064586058609,0.5867064586058609
0.026560122536606636,0.026560122536606636
-0.2672634077529505,-0.2672634077529505
0.026560122536606636,0.026560122536606636
0.2053148318506968,0.2053148318506968
0.026560122536606636,0.026560122536606636
-0.10877239018296771,-0.10877239018296771
-0.019033183887634985,-0.019033183887634985
0.03886307823838612,0.03886307823838612
-0.019033183887634985,-0.019033183887634985
-0.04146798546146817,-0.04146798546146817
0.026560122536606636,0.026560122536606636
0.05623195687619245,0.05623195687619245
0.026560122536606636,0.026560122536606636
0.007020134069074512,0.007020134069074512
0.026560122536606636,0.026560122536606636
0.03452085857893454,0.03452085857893454
0.026560122536606636,0.026560122536606636
0.018599386494278735,0.018599386494278735
0.026560122536606636,0.026560122536606636
0.028007529089757163,0.028007529089757163
0.026560122536606636,0.026560122536606636
0.012809760281676623,0.012809760281676623
0.026560122536606636,0.026560122536606636
0.051166033940165605,0.051166033940165605
0.07215342896084825,0.07215342896084825
0.051166033940165605,0.051166033940165605
0.026560122536606636,0.026560122536606636
0.012809760281676623,0.012809760281676623
0.026560122536606636,0.026560122536606636
0.027283825813181898,0.027283825813181898
0.026560122536606636,0.026560122536606636
0.019323089770853997,0.019323089770853997
0.026560122536606636,0.026560122536606636
0.024389012706880844,0.024389012706880844
0.026560122536606636,0.026560122536606636
0.020770496324004524,0.020770496324004524
0.026560122536606636,0.026560122536606636
0.022941606153730316,0.022941606153730316
0.026560122536606636,0.026560122536606636
0.02221790287715505,0.02221790287715505
0.026560122536606636,0.026560122536606636
0.02221790287715505,0.02221790287715505
0.026560122536606636,0.026560122536606636
0.022941606153730316,0.022941606153730316
0.026560122536606636,0.026560122536606636
0.02149419960057979,0.02149419960057979
0.026560122536606636,0.026560122536606636
0.023665309430305582,0.023665309430305582
0.026560122536606636,0.026560122536606636
0.020046793047429262,0.020046793047429262
0.026560122536606636,0.026560122536606636
0.02583641926003137,0.02583641926003137
0.026560122536606636,0.026560122536606636
0.014980870111402414,0.014980870111402414
0.026560122536606636,0.026560122536606636
0.04682381428071402,0.04682381428071402
0.07215342896084825,0.07215342896084825
0.07070602240769773,0.07070602240769773
0.07215342896084825,0.07215342896084825
0.07070602240769773,0.07070602240769773
0.07215342896084825,0.07215342896084825
0.04682381428071402,0.04682381428071402
0.026560122536606636,0.026560122536606636
0.014980870111402414,0.014980870111402414
0.026560122536606636,0.026560122536606636
0.026560122536606636,0.026560122536606636
0.026560122536606636,0.026560122536606636
0.019323089770853997,0.019323089770853997
0.026560122536606636,0.026560122536606636
0.024389012706880844,0.024389012706880844
0.026560122536606636,0.026560122536606636
0.020046793047429262,0.020046793047429262
0.026560122536606636,0.026560122536606636
0.024389012706880844,0.024389012706880844
0.026560122536606636,0.026560122536606636
0.019323089770853997,0.019323089770853997
0.026560122536606636,0.026560122536606636
0.027283825813181898,0.027283825813181898
0.026560122536606636,0.026560122536606636
0.0005068045798971374,0.0005068045798971374
-0.019033183887634985,-0.019033183887634985
-0.032059842865989736,-0.032059842865989736
-0.019033183887634985,-0.019033183887634985
-0.016862074057909196,-0.016862074057909196
-0.019033183887634985,-0.019033183887634985
-0.032783546142565,-0.032783546142565
-0.019033183887634985,-0.019033183887634985
0.001954211133047665,0.001954211133047665
0.026560122536606636,0.026560122536606636
0.02583641926003137,0.02583641926003137
0.026560122536606636,0.026560122536606636
0.022941606153730316,0.022941606153730316
0.026560122536606636,0.026560122536606636
0.01787568321770347,0.01787568321770347
0.026560122536606636,0.026560122536606636
0.043929001174412965,0.043929001174412965
0.07215342896084825,0.07215342896084825
0.07504824206714932,0.07504824206714932
0.07215342896084825,0.07215342896084825
0.06419269291852035,0.06419269291852035
0.07215342896084825,0.07215342896084825
0.06998231913112246,0.06998231913112246
0.07215342896084825,0.07215342896084825
0.06708750602482141,0.06708750602482141
0.07215342896084825,0.07215342896084825
0.06853491257797194,0.06853491257797194
0.07215342896084825,0.07215342896084825
0.06853491257797194,0.06853491257797194
0.07215342896084825,0.07215342896084825
0.06708750602482141,0.06708750602482141
0.07215342896084825,0.07215342896084825
0.06998231913112246,0.06998231913112246
0.07215342896084825,0.07215342896084825
0.06491639619509562,0.06491639619509562
0.07215342896084825,0.07215342896084825
0.07360083551399879,0.07360083551399879
0.07215342896084825,0.07215342896084825
0.045376407727563496,0.045376407727563496
0.026560122536606636,0.026560122536606636
0.014980870111402414,0.014980870111402414
0.026560122536606636,0.026560122536606636
0.026560122536606636,0.026560122536606636
0.026560122536606636,0.026560122536606636
0.01787568321770347,0.01787568321770347
0.026560122536606636,0.026560122536606636
0.026560122536606636,0.026560122536606636
0.026560122536606636,0.026560122536606636
0.01425716683482715,0.01425716683482715
0.026560122536606636,0.026560122536606636
0.04682381428071402,0.04682381428071402
0.07215342896084825,0.07215342896084825
0.071429725684273,0.071429725684273
0.07215342896084825,0.07215342896084825
0.06853491257797194,0.06853491257797194
0.07215342896084825,0.07215342896084825
0.0634689896419451,0.0634689896419451
0.07215342896084825,0.07215342896084825
0.08879860432207932,0.08879860432207932
0.11847043866166514,0.11847043866166514
0.13294450419317042,0.13294450419317042
0.16406374508590676,0.16406374508590676
0.20459112857412154,0.20459112857412154
0.2559740612109653,0.2559740612109653
0.279856269337949,0.279856269337949
0.3015673676352069,0.3015673676352069
0.3189362462730132,0.3189362462730132
0.3471606740594485,0.3471606740594485
0.3515028937189001,0.3515028937189001
0.3471606740594485,0.3471606740594485
0.33630512491081954,0.33630512491081954
0.3471606740594485,0.3471606740594485
0.3500554871657496,0.3500554871657496
0.3471606740594485,0.3471606740594485
0.33268660852794324,0.33268660852794324
0.3471606740594485,0.3471606740594485
0.37249028873958273,0.37249028873958273
0.39347768376026543,0.39347768376026543
0.373213992016158,0.373213992016158
0.3471606740594485,0.3471606740594485
0.32038365282616377,0.32038365282616377
0.3015673676352069,0.3015673676352069
0.2559740612109653,0.2559740612109653
0.20965705151014838,0.20965705151014838
0.17057707457508414,0.17057707457508414
0.16406374508590676,0.16406374508590676
0.15899782214987992,0.15899782214987992
0.16406374508590676,0.16406374508590676
0.16189263525618097,0.16189263525618097
0.16406374508590676,0.16406374508590676
0.13222080091659516,0.13222080091659516
0.07215342896084825,0.07215342896084825
-0.011796151121882347,-0.011796151121882347
-0.06535019358845187,-0.06535019358845187
-0.09502202792803768,-0.09502202792803768
-0.1109435000126935,-0.1109435000126935
-0.15653680643693513,-0.15653680643693513
-0.202853816137752,-0.202853816137752
-0.24338119962596677,-0.24338119962596677
-0.2484471225619936,-0.2484471225619936
-0.254960452051171,-0.254960452051171
-0.2484471225619936,-0.2484471225619936
-0.25423674877459573,-0.25423674877459573
-0.2484471225619936,-0.2484471225619936
-0.25568415532774624,-0.25568415532774624
-0.2484471225619936,-0.2484471225619936
-0.2491708258385689,-0.2491708258385689
-0.2484471225619936,-0.2484471225619936
-0.2629211880934989,-0.2629211880934989
-0.2484471225619936,-0.2484471225619936
-0.2014064095846015,-0.2014064095846015
-0.1109435000126935,-0.1109435000126935
-0.011072447845307084,-0.011072447845307084
0.11847043866166514,0.11847043866166514
0.2841984889974006,0.2841984889974006
0.5309813063095655,0.5309813063095655
0.8783588790656922,0.8783588790656922
1.3560030416053663,1.3560030416053663
1.9031227186962658,1.9031227186962658
2.4560320219997673,2.4560320219997673
2.9619006123258766,2.9619006123258766
3.4185573798448683,3.4185573798448683
3.705143877368673,3.705143877368673
3.647971318519227,3.647971318519227
3.147168651129144,3.147168651129144
2.364121705874709,2.364121705874709
1.5398236738554834,1.5398236738554834
0.8515818578324074,0.8515818578324074
0.318212542996438,0.318212542996438
-0.06535019358845187,-0.06535019358845187
-0.34542336162307896,-0.34542336162307896
-0.5690476740848355,-0.5690476740848355
-0.8056986455249467,-0.8056986455249467
-1.0278755514335527,-1.0278755514335527
-1.1921561952161377,-1.1921561952161377
-1.2565657868313362,-1.2565657868313362
-1.2681450392565403,-1.2681450392565403
-1.2565657868313362,-1.2565657868313362
-1.261631709767363,-1.261631709767363
-1.2565657868313362,-1.2565657868313362
-1.2464339409592824,-1.2464339409592824
-1.2109724804070945,-1.2109724804070945
-1.187813975556686,-1.187813975556686
-1.165379173982853,-1.165379173982853
-1.155247328110799,-1.155247328110799
-1.119062164282036,-1.119062164282036
-1.0908377364956008,-1.0908377364956008
-1.0734688578577944,-1.0734688578577944
-1.083600703729848,-1.083600703729848
-1.0734688578577944,-1.0734688578577944
-1.0510340562839613,-1.0510340562839613
-1.0278755514335527,-1.0278755514335527
-1.033665177646155,-1.033665177646155
-1.0278755514335527,-1.0278755514335527
-1.0061644531362948,-1.0061644531362948
-0.9815585417327359,-0.9815585417327359
-0.9996511236471175,-0.9996511236471175
-1.0278755514335527,-1.0278755514335527
-1.0423496169650581,-1.0423496169650581
-1.0278755514335527,-1.0278755514335527
-1.0242570350506766,-1.0242570350506766
-1.0278755514335527,-1.0278755514335527
-1.0358362874758806,-1.0358362874758806
-1.0278755514335527,-1.0278755514335527
-1.0271518481569775,-1.0271518481569775
-1.0278755514335527,-1.0278755514335527
-1.0358362874758806,-1.0358362874758806
-1.0278755514335527,-1.0278755514335527
-1.011954079348897,-1.011954079348897
-0.9815585417327359,-0.9815585417327359
-0.959847443435478,-0.959847443435478
-0.9359652353084943,-0.9359652353084943
-0.9193200599472632,-0.9193200599472632
-0.8903719288842527,-0.8903719288842527
-0.8657660174806937,-0.8657660174806937
-0.8440549191834358,-0.8440549191834358
-0.8440549191834358,-0.8440549191834358
-0.8440549191834358,-0.8440549191834358
-0.8491208421194626,-0.8491208421194626
-0.8440549191834358,-0.8440549191834358
-0.8476734355663121,-0.8476734355663121
-0.8440549191834358,-0.8440549191834358
-0.8476734355663121,-0.8476734355663121
-0.8440549191834358,-0.8440549191834358
-0.8491208421194626,-0.8491208421194626
-0.8440549191834358,-0.8440549191834358
-0.8455023257365863,-0.8455023257365863
-0.8440549191834358,-0.8440549191834358
-0.852739358502339,-0.852739358502339
-0.8440549191834358,-0.8440549191834358
-0.8259623372690542,-0.8259623372690542
-0.7984616127591941,-0.7984616127591941
-0.7941193930997426,-0.7941193930997426
-0.7984616127591941,-0.7984616127591941
-0.8093171619078231,-0.8093171619078231
-0.7984616127591941,-0.7984616127591941
-0.7810927341213878,-0.7810927341213878
-0.7528683063349525,-0.7528683063349525
-0.7326046145908451,-0.7326046145908451
-0.7065512966341356,-0.7065512966341356
-0.6877350114431787,-0.6877350114431787
-0.660957990209894,-0.660957990209894
-0.6421417050189372,-0.6421417050189372
-0.6153646837856523,-0.6153646837856523
-0.595100992041545,-0.595100992041545
-0.5690476740848355,-0.5690476740848355
-0.5516787954470291,-0.5516787954470291
-0.5234543676605938,-0.5234543676605938
-0.5010195660867607,-0.5010195660867607
-0.47786106123635225,-0.47786106123635225
-0.477137357959777,-0.477137357959777
-0.47786106123635225,-0.47786106123635225
-0.4850980940021049,-0.4850980940021049
-0.47786106123635225,-0.47786106123635225
-0.46628180881114806,-0.46628180881114806
-0.4315440515355354,-0.4315440515355354
-0.40549073357882587,-0.40549073357882587
-0.38595074511129374,-0.38595074511129374
-0.38016111889869164,-0.38016111889869164
-0.34035743868705215,-0.34035743868705215
-0.28752709949705785,-0.28752709949705785
-0.2484471225619936,-0.2484471225619936
-0.25568415532774624,-0.25568415532774624
-0.2484471225619936,-0.2484471225619936
-0.21370936528638096,-0.21370936528638096
-0.15653680643693513,-0.15653680643693513
-0.12252275243789772,-0.12252275243789772
-0.06535019358845187,-0.06535019358845187
0.018599386494278735,0.018599386494278735
0.11847043866166514,0.11847043866166514
0.18215632700028836,0.18215632700028836
0.2559740612109653,0.2559740612109653
0.3558451133783517,0.3558451133783517
0.48466429660874866,0.48466429660874866
0.5823642389464093,0.5823642389464093
0.6684849288588657,0.6684849288588657
0.7495396958352952,0.7495396958352952
0.8515818578324074,0.8515818578324074
0.9405973608511649,0.9405973608511649
1.0346787868059493,1.0346787868059493
1.1222468832715562,1.1222468832715562
1.2184994190560663,1.2184994190560663
1.300277889309071,1.300277889309071
1.4015963480296079,1.4015963480296079
1.5123229493456234,1.5123229493456234
1.6310102867039666,1.6310102867039666
1.7106176471272456,1.7106176471272456
1.7685139092532667,1.7685139092532667
1.807593886188331,1.807593886188331
1.85970052210175,1.85970052210175
1.8929908728242122,1.8929908728242122
1.9060175318025667,1.9060175318025667
1.8821353236755831,1.8821353236755831
1.85970052210175,1.85970052210175
1.835094610698191,1.835094610698191
1.8141072156775082,1.8141072156775082
1.7569346568280624,1.7569346568280624
1.6766035931282082,1.6766035931282082
1.5752851344076713,1.5752851344076713
1.4935066641546664,1.4935066641546664
1.4059385676890594,1.4059385676890594
1.3096860319045494,1.3096860319045494
1.1866564748867545,1.1866564748867545
1.080995796506766,1.080995796506766
0.9840195574456807,0.9840195574456807
0.897175164256649,0.897175164256649
0.7821063432811821,0.7821063432811821
0.6684849288588657,0.6684849288588657
0.5613768439257266,0.5613768439257266
0.48466429660874866,0.48466429660874866
0.39420138703684066,0.39420138703684066
0.3015673676352069,0.3015673676352069
0.20965705151014838,0.20965705151014838
0.16406374508590676,0.16406374508590676
0.12498376815084251,0.12498376815084251
0.07215342896084825,0.07215342896084825
-0.013243557675032876,-0.013243557675032876
-0.06535019358845187,-0.06535019358845187
-0.07765314929023136,-0.07765314929023136
-0.06535019358845187,-0.06535019358845187
-0.08633758860913453,-0.08633758860913453
-0.1109435000126935,-0.1109435000126935
-0.12541756554419878,-0.12541756554419878
-0.1109435000126935,-0.1109435000126935
-0.1109435000126935,-0.1109435000126935
-0.1109435000126935,-0.1109435000126935
-0.11818053277844613,-0.11818053277844613
-0.1109435000126935,-0.1109435000126935
-0.11528571967214507,-0.11528571967214507
-0.1109435000126935,-0.1109435000126935
-0.11166720328926875,-0.11166720328926875
-0.1109435000126935,-0.1109435000126935
-0.13554941141625246,-0.13554941141625246
-0.15653680643693513,-0.15653680643693513
-0.17028716869186514,-0.17028716869186514
-0.15653680643693513,-0.15653680643693513
-0.15219458677748354,-0.15219458677748354
-0.15653680643693513,-0.15653680643693513
-0.1847612342233704,-0.1847612342233704
-0.202853816137752,-0.202853816137752
-0.2129856620098057,-0.2129856620098057
-0.202853816137752,-0.202853816137752
-0.20213011286117674,-0.20213011286117674
-0.202853816137752,-0.202853816137752
-0.2129856620098057,-0.2129856620098057
-0.202853816137752,-0.202853816137752
-0.18620864077652094,-0.18620864077652094
-0.15653680643693513,-0.15653680643693513
-0.13844422452255353,-0.13844422452255353
-0.1109435000126935,-0.1109435000126935
-0.08923240171543557,-0.08923240171543557
-0.06535019358845187,-0.06535019358845187
-0.0646264903118766,-0.0646264903118766
-0.06535019358845187,-0.06535019358845187
-0.07186352307762925,-0.07186352307762925
-0.06535019358845187,-0.06535019358845187
-0.06752130341817766,-0.06752130341817766
-0.06535019358845187,-0.06535019358845187
-0.07041611652447873,-0.07041611652447873
-0.06535019358845187,-0.06535019358845187
-0.06752130341817766,-0.06752130341817766
-0.06535019358845187,-0.06535019358845187
-0.07113981980105398,-0.07113981980105398
-0.06535019358845187,-0.06535019358845187
-0.0667976001416024,-0.0667976001416024
-0.06535019358845187,-0.06535019358845187
-0.07331092963077977,-0.07331092963077977
-0.06535019358845187,-0.06535019358845187
-0.06245538048215082,-0.06245538048215082
-0.06535019358845187,-0.06535019358845187
-0.09357462137488716,-0.09357462137488716
-0.1109435000126935,-0.1109435000126935
-0.1189042360550214,-0.1189042360550214
-0.1109435000126935,-0.1109435000126935
-0.11600942294872034,-0.11600942294872034
-0.1109435000126935,-0.1109435000126935
-0.10949609345954296,-0.10949609345954296
-0.1109435000126935,-0.1109435000126935
-0.13844422452255353,-0.13844422452255353
-0.15653680643693513,-0.15653680643693513
-0.16449754247926301,-0.16449754247926301
-0.15653680643693513,-0.15653680643693513
-0.16377383920268776,-0.16377383920268776
-0.15653680643693513,-0.15653680643693513
-0.14061533435227933,-0.14061533435227933
-0.1109435000126935,-0.1109435000126935
-0.10804868690639244,-0.10804868690639244
-0.1109435000126935,-0.1109435000126935
-0.1189042360550214,-0.1189042360550214
-0.1109435000126935,-0.1109435000126935
-0.11311460984241929,-0.11311460984241929
-0.1109435000126935,-0.1109435000126935
-0.11673312622529561,-0.11673312622529561
-0.1109435000126935,-0.1109435000126935
-0.11383831311899455,-0.11383831311899455
-0.1109435000126935,-0.1109435000126935
-0.11600942294872034,-0.11600942294872034
-0.1109435000126935,-0.1109435000126935
-0.11456201639556982,-0.11456201639556982
-0.1109435000126935,-0.1109435000126935
-0.11600942294872034,-0.11600942294872034
-0.1109435000126935,-0.1109435000126935
-0.11383831311899455,-0.11383831311899455
-0.1109435000126935,-0.1109435000126935
-0.11745682950187086,-0.11745682950187086
-0.1109435000126935,-0.1109435000126935
-0.11239090656584402,-0.11239090656584402
-0.1109435000126935,-0.1109435000126935
-0.12107534588474719,-0.12107534588474719
-0.1109435000126935,-0.1109435000126935
-0.09212721482173664,-0.09212721482173664
-0.06535019358845187,-0.06535019358845187
-0.06317908375872608,-0.06317908375872608
-0.06535019358845187,-0.06535019358845187
-0.0725872263542045,-0.0725872263542045
-0.06535019358845187,-0.06535019358845187
-0.06752130341817766,-0.06752130341817766
-0.06535019358845187,-0.06535019358845187
-0.07041611652447873,-0.07041611652447873
-0.06535019358845187,-0.06535019358845187
-0.06824500669475293,-0.06824500669475293
-0.06535019358845187,-0.06535019358845187
-0.06969241324790346,-0.06969241324790346
-0.06535019358845187,-0.06535019358845187
-0.06896870997132819,-0.06896870997132819
-0.06535019358845187,-0.06535019358845187
-0.06969241324790346,-0.06969241324790346
-0.06535019358845187,-0.06535019358845187
-0.06896870997132819,-0.06896870997132819
-0.06535019358845187,-0.06535019358845187
-0.06969241324790346,-0.06969241324790346
-0.06535019358845187,-0.06535019358845187
-0.06969241324790346,-0.06969241324790346
-0.06535019358845187,-0.06535019358845187
-0.06969241324790346,-0.06969241324790346
-0.06535019358845187,-0.06535019358845187
-0.06969241324790346,-0.06969241324790346
-0.06535019358845187,-0.06535019358845187
-0.06969241324790346,-0.06969241324790346
-0.06535019358845187,-0.06535019358845187
-0.06969241324790346,-0.06969241324790346
-0.06535019358845187,-0.06535019358845187
-0.06969241324790346,-0.06969241324790346
-0.06535019358845187,-0.06535019358845187
-0.06969241324790346,-0.06969241324790346
-0.06535019358845187,-0.06535019358845187
-0.06969241324790346,-0.06969241324790346
-0.06535019358845187,-0.06535019358845187
-0.06969241324790346,-0.06969241324790346
-0.06535019358845187,-0.06535019358845187
-0.06969241324790346,-0.06969241324790346
-0.06535019358845187,-0.06535019358845187
-0.06969241324790346,-0.06969241324790346
-0.06535019358845187,-0.06535019358845187
-0.06896870997132819,-0.06896870997132819
-0.06535019358845187,-0.06535019358845187
-0.06969241324790346,-0.06969241324790346
-0.06535019358845187,-0.06535019358845187
-0.06896870997132819,-0.06896870997132819
-0.06535019358845187,-0.06535019358845187
-0.07041611652447873,-0.07041611652447873
-0.06535019358845187,-0.06535019358845187
-0.06824500669475293,-0.06824500669475293
-0.06535019358845187,-0.06535019358845187
-0.0725872263542045,-0.0725872263542045
-0.06535019358845187,-0.06535019358845187
-0.052323534610097124,-0.052323534610097124
-0.019033183887634985,-0.019033183887634985
0.00484902423934872,0.00484902423934872
0.026560122536606636,0.026560122536606636
0.02583641926003137,0.02583641926003137
0.026560122536606636,0.026560122536606636
0.020046793047429262,0.020046793047429262
0.026560122536606636,0.026560122536606636
0.024389012706880844,0.024389012706880844
0.026560122536606636,0.026560122536606636
0.020046793047429262,0.020046793047429262
0.026560122536606636,0.026560122536606636
0.02583641926003137,0.02583641926003137
0.026560122536606636,0.026560122536606636
0.015704573387977677,0.015704573387977677
0.026560122536606636,0.026560122536606636
0.04610011100413876,0.04610011100413876
0.07215342896084825,0.07215342896084825
0.07287713223742352,0.07287713223742352
0.07215342896084825,0.07215342896084825
0.06636380274824615,0.06636380274824615
0.07215342896084825,0.07215342896084825
0.06781120930139667,0.06781120930139667
0.07215342896084825,0.07215342896084825
0.071429725684273,0.071429725684273
0.07215342896084825,0.07215342896084825
0.04899492411043981,0.04899492411043981
0.026560122536606636,0.026560122536606636
-0.0009406019732533903,-0.0009406019732533903
-0.019033183887634985,-0.019033183887634985
-0.04942872150379607,-0.04942872150379607
-0.06535019358845187,-0.06535019358845187
-0.0747583361839303,-0.0747583361839303
-0.06535019358845187,-0.06535019358845187
-0.0667976001416024,-0.0667976001416024
-0.06535019358845187,-0.06535019358845187
-0.07113981980105398,-0.07113981980105398
-0.06535019358845187,-0.06535019358845187
-0.06824500669475293,-0.06824500669475293
-0.06535019358845187,-0.06535019358845187
-0.07041611652447873,-0.07041611652447873
-0.06535019358845187,-0.06535019358845187
-0.06824500669475293,-0.06824500669475293
-0.06535019358845187,-0.06535019358845187
-0.07041611652447873,-0.07041611652447873
-0.06535019358845187,-0.06535019358845187
-0.06752130341817766,-0.06752130341817766
-0.06535019358845187,-0.06535019358845187
-0.07331092963077977,-0.07331092963077977
-0.06535019358845187,-0.06535019358845187
-0.05159983133352186,-0.05159983133352186
-0.019033183887634985,-0.019033183887634985
0.003401617686198193,0.003401617686198193
0.026560122536606636,0.026560122536606636
0.028007529089757163,0.028007529089757163
0.026560122536606636,0.026560122536606636
0.014980870111402414,0.014980870111402414
0.026560122536606636,0.026560122536606636
0.045376407727563496,0.045376407727563496
0.07215342896084825,0.07215342896084825
0.07504824206714932,0.07504824206714932
0.07215342896084825,0.07215342896084825
0.0634689896419451,0.0634689896419451
0.07215342896084825,0.07215342896084825
0.07287713223742352,0.07287713223742352
0.07215342896084825,0.07215342896084825
0.06202158308879457,0.06202158308879457
0.07215342896084825,0.07215342896084825
0.07866675845002563,0.07866675845002563
0.07215342896084825,0.07215342896084825
0.03813937496181086,0.03813937496181086
0.026560122536606636,0.026560122536606636
0.04031048479153665,0.04031048479153665
0.07215342896084825,0.07215342896084825
0.07577194534372457,0.07577194534372457
0.07215342896084825,0.07215342896084825
0.06491639619509562,0.06491639619509562
0.07215342896084825,0.07215342896084825
0.06781120930139667,0.06781120930139667
0.07215342896084825,0.07215342896084825
0.07215342896084825,0.07215342896084825
0.07215342896084825,0.07215342896084825
0.04610011100413876,0.04610011100413876
0.026560122536606636,0.026560122536606636
0.014980870111402414,0.014980870111402414
0.026560122536606636,0.026560122536606636
0.02583641926003137,0.02583641926003137
0.026560122536606636,0.026560122536606636
0.020046793047429262,0.020046793047429262
0.026560122536606636,0.026560122536606636
0.023665309430305582,0.023665309430305582
0.026560122536606636,0.026560122536606636
0.02149419960057979,0.02149419960057979
0.026560122536606636,0.026560122536606636
0.02221790287715505,0.02221790287715505
0.026560122536606636,0.026560122536606636
0.02221790287715505,0.02221790287715505
0.026560122536606636,0.026560122536606636
0.02149419960057979,0.02149419960057979
0.026560122536606636,0.026560122536606636
0.022941606153730316,0.022941606153730316
0.026560122536606636,0.026560122536606636
0.020770496324004524,0.020770496324004524
0.026560122536606636,0.026560122536606636
0.024389012706880844,0.024389012706880844
0.026560122536606636,0.026560122536606636
0.017151979941128204,0.017151979941128204
0.026560122536606636,0.026560122536606636
0.04248159462126244,0.04248159462126244
0.07215342896084825,0.07215342896084825
0.0895223075986546,0.0895223075986546
0.11847043866166514,0.11847043866166514
0.15393189921385309,0.15393189921385309
0.20965705151014838,0.20965705151014838
0.2451185120623363,0.2451185120623363
0.2559740612109653,0.2559740612109653
0.23064444653083105,0.23064444653083105
0.20965705151014838,0.20965705151014838
0.18649854665973994,0.18649854665973994
0.16406374508590676,0.16406374508590676
0.11629932883193936,0.11629932883193936
0.07215342896084825,0.07215342896084825
0.0352445618555098,0.0352445618555098
0.026560122536606636,0.026560122536606636
0.020046793047429262,0.020046793047429262
0.026560122536606636,0.026560122536606636
0.02583641926003137,0.02583641926003137
0.026560122536606636,0.026560122536606636
0.00484902423934872,0.00484902423934872
-0.019033183887634985,-0.019033183887634985
-0.05087612805694659,-0.05087612805694659
-0.06535019358845187,-0.06535019358845187
-0.0747583361839303,-0.0747583361839303
-0.06535019358845187,-0.06535019358845187
-0.06390278703530135,-0.06390278703530135
-0.06535019358845187,-0.06535019358845187
-0.08054796239653242,-0.08054796239653242
-0.06535019358845187,-0.06535019358845187
-0.014690964228183404,-0.014690964228183404
0.07215342896084825,0.07215342896084825
0.12498376815084251,0.12498376815084251
0.11847043866166514,0.11847043866166514
0.04754751755728929,0.04754751755728929
-0.019033183887634985,-0.019033183887634985
-0.07331092963077977,-0.07331092963077977
-0.1109435000126935,-0.1109435000126935
-0.16739235558556406,-0.16739235558556406
-0.202853816137752,-0.202853816137752
-0.21805158494583254,-0.21805158494583254
-0.202853816137752,-0.202853816137752
-0.20574862924405304,-0.20574862924405304
-0.202853816137752,-0.202853816137752
-0.20864344235035412,-0.20864344235035412
-0.202853816137752,-0.202853816137752
-0.21226195873323042,-0.21226195873323042
-0.202853816137752,-0.202853816137752
-0.18548493749994566,-0.18548493749994566
-0.15653680643693513,-0.15653680643693513
-0.14423385073515563,-0.14423385073515563
-0.1109435000126935,-0.1109435000126935
-0.045086501844344484,-0.045086501844344484
0.07215342896084825,0.07215342896084825
0.22196000721192788,0.22196000721192788
0.439070990184507,0.439070990184507
0.7451974761758436,0.7451974761758436
1.1721824093552493,1.1721824093552493
1.6889065488299877,1.6889065488299877
2.2729350930262258,2.2729350930262258
2.8533451208395872,2.8533451208395872
3.3729640734206265,3.3729640734206265
3.72540756911278,3.72540756911278
3.8310682474927686,3.8310682474927686
3.6031017153715603,3.6031017153715603
3.0516398186212097,3.0516398186212097
2.265698060260473,2.265698060260473
1.4471896544538496,1.4471896544538496
0.76256635481365,0.76256635481365
0.3015673676352069,0.3015673676352069
0.00846754062222504,0.00846754062222504
-0.202853816137752,-0.202853816137752
-0.425030722046358,-0.425030722046358
-0.660957990209894,-0.660957990209894
-0.8853060059482258,-0.8853060059482258
-1.0278755514335527,-1.0278755514335527
-1.0850481102829985,-1.0850481102829985
-1.0734688578577944,-1.0734688578577944
-1.064060715262316,-1.064060715262316
-1.0734688578577944,-1.0734688578577944
-1.1212332741117619,-1.1212332741117619
-1.165379173982853,-1.165379173982853
-1.2051828541944924,-1.2051828541944924
-1.2109724804070945,-1.2109724804070945
-1.2160384033431213,-1.2160384033431213
-1.2109724804070945,-1.2109724804070945
-1.2203806230025729,-1.2203806230025729
-1.2109724804070945,-1.2109724804070945
-1.1964984148755893,-1.1964984148755893
-1.165379173982853,-1.165379173982853
-1.1443917789621703,-1.1443917789621703
-1.119062164282036,-1.119062164282036
-1.1009695823676544,-1.1009695823676544
-1.0734688578577944,-1.0734688578577944
-1.053205166113687,-1.053205166113687
-1.0278755514335527,-1.0278755514335527
-1.0213622219443754,-1.0213622219443754
-1.0278755514335527,-1.0278755514335527
-1.0445207267947838,-1.0445207267947838
-1.0278755514335527,-1.0278755514335527
-0.9851770581156122,-0.9851770581156122
-0.9359652353084943,-0.9359652353084943
-0.9265570927130159,-0.9265570927130159
-0.9359652353084943,-0.9359652353084943
-0.9475444877336985,-0.9475444877336985
-0.9359652353084943,-0.9359652353084943
-0.9323467189256179,-0.9323467189256179
-0.9359652353084943,-0.9359652353084943
-0.9482681910102737,-0.9482681910102737
-0.9359652353084943,-0.9359652353084943
-0.9142541370112364,-0.9142541370112364
-0.8903719288842527,-0.8903719288842527
-0.8903719288842527,-0.8903719288842527
-0.8903719288842527,-0.8903719288842527
-0.8809637862887743,-0.8809637862887743
-0.8440549191834358,-0.8440549191834358
-0.8151067881204253,-0.8151067881204253
-0.7984616127591941,-0.7984616127591941
-0.8049749422483715,-0.8049749422483715
-0.7984616127591941,-0.7984616127591941
-0.7810927341213878,-0.7810927341213878
-0.7528683063349525,-0.7528683063349525
-0.7470786801223505,-0.7470786801223505
-0.7528683063349525,-0.7528683063349525
-0.765171262036732,-0.765171262036732
-0.7528683063349525,-0.7528683063349525
-0.7311572080376946,-0.7311572080376946
-0.7065512966341356,-0.7065512966341356
-0.7051038900809851,-0.7051038900809851
-0.7065512966341356,-0.7065512966341356
-0.713064626123313,-0.713064626123313
-0.7065512966341356,-0.7065512966341356
-0.7079987031872862,-0.7079987031872862
-0.7065512966341356,-0.7065512966341356
-0.713064626123313,-0.713064626123313
-0.7065512966341356,-0.7065512966341356
-0.7072749999107109,-0.7072749999107109
-0.7065512966341356,-0.7065512966341356
-0.715959439229614,-0.715959439229614
-0.7065512966341356,-0.7065512966341356
-0.6891824179963293,-0.6891824179963293
-0.660957990209894,-0.660957990209894
-0.6558920672738672,-0.6558920672738672
-0.660957990209894,-0.660957990209894
-0.6732609459116735,-0.6732609459116735
-0.660957990209894,-0.660957990209894
-0.6421417050189372,-0.6421417050189372
-0.6153646837856523,-0.6153646837856523
-0.5987195084244213,-0.5987195084244213
-0.5690476740848355,-0.5690476740848355
-0.5444417626812765,-0.5444417626812765
-0.5234543676605938,-0.5234543676605938
-0.526349180766895,-0.526349180766895
-0.5234543676605938,-0.5234543676605938
-0.5249017742137444,-0.5249017742137444
-0.5234543676605938,-0.5234543676605938
-0.5350336200857981,-0.5350336200857981
-0.5234543676605938,-0.5234543676605938
-0.501743269363336,-0.501743269363336
-0.47786106123635225,-0.47786106123635225
-0.4829269841723791,-0.4829269841723791
-0.47786106123635225,-0.47786106123635225
-0.4612158858751212,-0.4612158858751212
-0.4315440515355354,-0.4315440515355354
-0.4214122056634817,-0.4214122056634817
-0.38595074511129374,-0.38595074511129374
-0.3251596698789716,-0.3251596698789716
-0.2484471225619936,-0.2484471225619936
-0.21588047511610675,-0.21588047511610675
-0.202853816137752,-0.202853816137752
-0.1825901243936446,-0.1825901243936446
-0.1109435000126935,-0.1109435000126935
-0.024099106823661832,-0.024099106823661832
0.07215342896084825,0.07215342896084825
0.15465560249042834,0.15465560249042834
0.2559740612109653,0.2559740612109653
0.36163473959095377,0.36163473959095377
0.48466429660874866,0.48466429660874866
0.5961146012013393,0.5961146012013393
0.7140782352831073,0.7140782352831073
0.8233574300459722,0.8233574300459722
0.9434921739574659,0.9434921739574659
1.0520476654437556,1.0520476654437556
1.1721824093552493,1.1721824093552493
1.29738307620277,1.29738307620277
1.4471896544538496,1.4471896544538496
1.577456244237397,1.577456244237397
1.6766035931282082,1.6766035931282082
1.7373946683605304,1.7373946683605304
1.8141072156775082,1.8141072156775082
1.8915434662710615,1.8915434662710615
1.9516108382268085,1.9516108382268085
1.9689797168646148,1.9689797168646148
1.99720414465105,1.99720414465105
2.0333893084798134,2.0333893084798134
2.043521154351867,2.043521154351867
1.9675323103114644,1.9675323103114644
1.85970052210175,1.85970052210175
1.7706850190829926,1.7706850190829926
1.72219689955245,1.72219689955245
1.6476554620651975,1.6476554620651975
1.5390999705789081,1.5390999705789081
1.4081096775187854,1.4081096775187854
1.3096860319045494,1.3096860319045494
1.2192231223326415,1.2192231223326415
1.1265891029310078,1.1265891029310078
1.0057306557429386,1.0057306557429386
0.897175164256649,0.897175164256649
0.7965804088126873,0.7965804088126873
0.7140782352831073,0.7140782352831073
0.6156545896688714,0.6156545896688714
0.5309813063095655,0.5309813063095655
0.4513739458862865,0.4513739458862865
0.39347768376026543,0.39347768376026543
0.32038365282616377,0.32038365282616377
0.2559740612109653,0.2559740612109653
0.19445928270206786,0.19445928270206786
0.16406374508590676,0.16406374508590676
0.13439191074632095,0.13439191074632095
0.11847043866166514,0.11847043866166514
0.09096971415180512,0.09096971415180512
0.07215342896084825,0.07215342896084825
0.043205297897837704,0.043205297897837704
0.026560122536606636,0.026560122536606636
0.0005068045798971374,0.0005068045798971374
-0.019033183887634985,-0.019033183887634985
-0.05087612805694659,-0.05087612805694659
-0.06535019358845187,-0.06535019358845187
-0.07403463290735504,-0.07403463290735504
-0.06535019358845187,-0.06535019358845187
-0.06752130341817766,-0.06752130341817766
-0.06535019358845187,-0.06535019358845187
-0.07113981980105398,-0.07113981980105398
-0.06535019358845187,-0.06535019358845187
-0.06896870997132819,-0.06896870997132819
-0.06535019358845187,-0.06535019358845187
-0.06969241324790346,-0.06969241324790346
-0.06535019358845187,-0.06535019358845187
-0.06896870997132819,-0.06896870997132819
-0.06535019358845187,-0.06535019358845187
-0.06969241324790346,-0.06969241324790346
-0.06535019358845187,-0.06535019358845187
-0.06969241324790346,-0.06969241324790346
-0.06535019358845187,-0.06535019358845187
-0.06969241324790346,-0.06969241324790346
-0.06535019358845187,-0.06535019358845187
-0.06969241324790346,-0.06969241324790346
-0.06535019358845187,-0.06535019358845187
-0.06969241324790346,-0.06969241324790346
-0.06535019358845187,-0.06535019358845187
-0.06969241324790346,-0.06969241324790346
-0.06535019358845187,-0.06535019358845187
-0.06969241324790346,-0.06969241324790346
-0.06535019358845187,-0.06535019358845187
-0.06969241324790346,-0.06969241324790346
-0.06535019358845187,-0.06535019358845187
-0.06969241324790346,-0.06969241324790346
-0.06535019358845187,-0.06535019358845187
-0.06896870997132819,-0.06896870997132819
-0.06535019358845187,-0.06535019358845187
-0.06969241324790346,-0.06969241324790346
-0.06535019358845187,-0.06535019358845187
-0.06896870997132819,-0.06896870997132819
-0.06535019358845187,-0.06535019358845187
-0.07041611652447873,-0.07041611652447873
-0.06535019358845187,-0.06535019358845187
-0.06824500669475293,-0.06824500669475293
-0.06535019358845187,-0.06535019358845187
-0.07113981980105398,-0.07113981980105398
-0.06535019358845187,-0.06535019358845187
-0.06607389686502714,-0.06607389686502714
-0.06535019358845187,-0.06535019358845187
-0.0747583361839303,-0.0747583361839303
-0.06535019358845187,-0.06535019358845187
-0.060284270652425025,-0.060284270652425025
-0.06535019358845187,-0.06535019358845187
-0.09864054431091401,-0.09864054431091401
-0.1109435000126935,-0.1109435000126935
-0.09864054431091401,-0.09864054431091401
-0.06535019358845187,-0.06535019358845187
-0.060284270652425025,-0.060284270652425025
-0.06535019358845187,-0.06535019358845187
-0.0747583361839303,-0.0747583361839303
-0.06535019358845187,-0.06535019358845187
-0.06607389686502714,-0.06607389686502714
-0.06535019358845187,-0.06535019358845187
-0.07113981980105398,-0.07113981980105398
-0.06535019358845187,-0.06535019358845187
-0.06824500669475293,-0.06824500669475293
-0.06535019358845187,-0.06535019358845187
-0.07041611652447873,-0.07041611652447873
-0.06535019358845187,-0.06535019358845187
-0.06896870997132819,-0.06896870997132819
-0.06535019358845187,-0.06535019358845187
-0.06969241324790346,-0.06969241324790346
-0.06535019358845187,-0.06535019358845187
-0.06896870997132819,-0.06896870997132819
-0.06535019358845187,-0.06535019358845187
-0.06969241324790346,-0.06969241324790346
-0.06535019358845187,-0.06535019358845187
-0.06969241324790346,-0.06969241324790346
-0.06535019358845187,-0.06535019358845187
-0.07041611652447873,-0.07041611652447873
-0.06535019358845187,-0.06535019358845187
-0.07113981980105398,-0.07113981980105398
-0.06535019358845187,-0.06535019358845187
-0.07041611652447873,-0.07041611652447873
-0.06535019358845187,-0.06535019358845187
-0.07113981980105398,-0.07113981980105398
-0.06535019358845187,-0.06535019358845187
-0.08416647877940873,-0.08416647877940873
-0.1109435000126935,-0.1109435000126935
-0.16522124575583827,-0.16522124575583827
-0.202853816137752,-0.202853816137752
-0.2629211880934989,-0.2629211880934989
-0.34035743868705215,-0.34035743868705215
-0.43443886464183645,-0.43443886464183645
-0.4315440515355354,-0.4315440515355354
-0.296211538815961,-0.296211538815961
-0.019033183887634985,-0.019033183887634985
0.3167651364432874,0.3167651364432874
0.7140782352831073,0.7140782352831073
1.1403394651859378,1.1403394651859378
1.5846932770031497,1.5846932770031497
2.008059693799679,2.008059693799679
2.4560320219997673,2.4560320219997673
2.9372947009223176,2.9372947009223176
3.46415068626911,3.46415068626911
4.0192310994023375,4.0192310994023375
4.610496676364328,4.610496676364328
5.114194156860711,5.114194156860711
5.389201401959312,5.389201401959312
5.418873236298897,5.418873236298897
5.389201401959312,5.389201401959312
5.395714731448489,5.395714731448489
5.389201401959312,5.389201401959312
5.34360809553507,5.34360809553507
5.389201401959312,5.389201401959312
5.499204299998752,5.499204299998752
5.389201401959312,5.389201401959312
4.801554341380197,4.801554341380197
3.8766615539170104,3.8766615539170104
2.932228777986291,2.932228777986291
2.13470776720035,2.13470776720035
1.426202259433167,1.426202259433167
0.8059885514081658,0.8059885514081658
0.318212542996438,0.318212542996438
-0.019033183887634985,-0.019033183887634985
-0.31358041745376736,-0.31358041745376736
-0.6153646837856523,-0.6153646837856523
-0.9446496746273975,-0.9446496746273975
-1.2565657868313362,-1.2565657868313362
-1.5597974597163717,-1.5597974597163717
-1.8065802770285366,-1.8065802770285366
-1.9932957223849548,-1.9932957223849548
-2.0823112254037124,-2.0823112254037124
-2.122114905615352,-2.122114905615352
-2.1279045318279537,-2.1279045318279537
-2.1416548940828837,-2.1416548940828837
-2.1279045318279537,-2.1279045318279537
-2.1076408400838464,-2.1076408400838464
-2.0823112254037124,-2.0823112254037124
-2.088100851616314,-2.088100851616314
-2.0823112254037124,-2.0823112254037124
-2.0642186434893306,-2.0642186434893306
-2.035994215702895,-2.035994215702895
-2.0367179189794706,-2.0367179189794706
-2.035994215702895,-2.035994215702895
-2.0236912600011157,-2.0236912600011157
-1.9904009092786537,-1.9904009092786537
-1.9679661077048205,-1.9679661077048205
-1.944083899577837,-1.944083899577837
-1.922372801280579,-1.922372801280579
-1.8984905931535951,-1.8984905931535951
-1.8832928243455147,-1.8832928243455147
-1.8528972867293536,-1.8528972867293536
-1.8203306392834666,-1.8203306392834666
-1.8065802770285366,-1.8065802770285366
-1.8311861884320957,-1.8311861884320957
-1.8528972867293536,-1.8528972867293536
-1.868095055537434,-1.868095055537434
-1.8984905931535951,-1.8984905931535951
-1.9701372175345464,-1.9701372175345464
-2.035994215702895,-2.035994215702895
-2.0692845664253574,-2.0692845664253574
-2.0823112254037124,-2.0823112254037124
-2.1235623121685023,-2.1235623121685023
-2.1734978382521954,-2.1734978382521954
-2.196656343102604,-2.196656343102604
-2.1734978382521954,-2.1734978382521954
-2.15902377272069,-2.15902377272069
-2.1734978382521954,-2.1734978382521954
-2.197380046379179,-2.197380046379179
-2.1734978382521954,-2.1734978382521954
-2.1213912023387764,-2.1213912023387764
-2.0823112254037124,-2.0823112254037124
-2.074350489361384,-2.074350489361384
-2.035994215702895,-2.035994215702895
-1.9484261192372885,-1.9484261192372885
-1.8528972867293536,-1.8528972867293536
-1.8152647163474398,-1.8152647163474398
-1.8065802770285366,-1.8065802770285366
-1.779803255795252,-1.779803255795252
-1.7153936641800533,-1.7153936641800533
-1.6603922151603334,-1.6603922151603334
-1.6234833480549948,-1.6234833480549948
-1.601772249757737,-1.601772249757737
-1.5778900416307533,-1.5778900416307533
-1.5721004154181513,-1.5721004154181513
-1.5778900416307533,-1.5778900416307533
-1.588021887502807,-1.588021887502807
-1.5778900416307533,-1.5778900416307533
-1.5590737564397965,-1.5590737564397965
-1.5315730319299363,-1.5315730319299363
-1.511309340185829,-1.511309340185829
-1.4859797255056948,-1.4859797255056948
-1.475124176357066,-1.475124176357066
-1.4859797255056948,-1.4859797255056948
-1.530849328653361,-1.530849328653361
-1.5778900416307533,-1.5778900416307533
-1.612627798906366,-1.612627798906366
-1.6234833480549948,-1.6234833480549948
-1.6299966775441723,-1.6299966775441723
-1.6234833480549948,-1.6234833480549948
-1.6213122382252692,-1.6213122382252692
-1.6234833480549948,-1.6234833480549948
-1.6365100070333496,-1.6365100070333496
-1.6234833480549948,-1.6234833480549948
-1.5981537333748608,-1.5981537333748608
-1.5778900416307533,-1.5778900416307533
-1.5865744809496565,-1.5865744809496565
-1.5778900416307533,-1.5778900416307533
-1.5417048778019902,-1.5417048778019902
-1.4859797255056948,-1.4859797255056948
-1.4476234518472058,-1.4476234518472058
-1.3940694093806363,-1.3940694093806363
-1.3260413013825614,-1.3260413013825614
-1.2565657868313362,-1.2565657868313362
-1.231236172151202,-1.231236172151202
-1.2109724804070945,-1.2109724804070945
-1.1646554707062777,-1.1646554707062777
-1.0734688578577944,-1.0734688578577944
-0.9945852007110907,-0.9945852007110907
-0.9359652353084943,-0.9359652353084943
-0.8867534125013763,-0.8867534125013763
-0.7984616127591941,-0.7984616127591941
-0.7000379671449583,-0.7000379671449583
-0.6153646837856523,-0.6153646837856523
-0.5603632347659323,-0.5603632347659323
-0.47786106123635225,-0.47786106123635225
-0.3656870533671864,-0.3656870533671864
-0.2484471225619936,-0.2484471225619936
-0.17535309162789198,-0.17535309162789198
-0.1109435000126935,-0.1109435000126935
-0.043639095291193954,-0.043639095291193954
0.026560122536606636,0.026560122536606636
0.06781120930139667,0.06781120930139667
0.11847043866166514,0.11847043866166514
0.1836037335534389,0.1836037335534389
0.2559740612109653,0.2559740612109653
0.29722514797575533,0.29722514797575533
0.3471606740594485,0.3471606740594485
0.4130176722277975,0.4130176722277975
0.48466429660874866,0.48466429660874866
0.5121650211186086,0.5121650211186086
0.5309813063095655,0.5309813063095655
0.5628242504788772,0.5628242504788772
0.6221679191580488,0.6221679191580488
0.6547345666039357,0.6547345666039357
0.6684849288588657,0.6684849288588657
0.6757219616246183,0.6757219616246183
0.7140782352831073,0.7140782352831073
0.7451974761758436,0.7451974761758436
0.7596715417073489,0.7596715417073489
0.7473685860055694,0.7473685860055694
0.7596715417073489,0.7596715417073489
0.7973041120892627,0.7973041120892627
0.8515818578324074,0.8515818578324074
0.8646085168107621,0.8646085168107621
0.8515818578324074,0.8515818578324074
0.8305944628117248,0.8305944628117248
0.8515818578324074,0.8515818578324074
0.8798062856188427,0.8798062856188427
0.897175164256649,0.897175164256649
0.8725692528530901,0.8725692528530901
0.8515818578324074,0.8515818578324074
0.8407263086837785,0.8407263086837785
0.8515818578324074,0.8515818578324074
0.8356603857477516,0.8356603857477516
0.8059885514081658,0.8059885514081658
0.7661848711965262,0.7661848711965262
0.7596715417073489,0.7596715417073489
0.7596715417073489,0.7596715417073489
0.7596715417073489,0.7596715417073489
0.7321708171974889,0.7321708171974889
0.7140782352831073,0.7140782352831073
0.7032226861344784,0.7032226861344784
0.7140782352831073,0.7140782352831073
0.7119071254533815,0.7119071254533815
0.7140782352831073,0.7140782352831073
0.7075649057939299,0.7075649057939299
0.7140782352831073,0.7140782352831073
0.7097360156236557,0.7097360156236557
0.7140782352831073,0.7140782352831073
0.710459718900231,0.710459718900231
0.7140782352831073,0.7140782352831073
0.6945382468155752,0.6945382468155752
0.6684849288588657,0.6684849288588657
0.6315760617535272,0.6315760617535272
0.6221679191580488,0.6221679191580488
0.6192731060517477,0.6192731060517477
0.6221679191580488,0.6221679191580488
0.5975620077544898,0.5975620077544898
0.5765746127338072,0.5765746127338072
0.5613768439257266,0.5613768439257266
0.5765746127338072,0.5765746127338072
0.581640535669834,0.581640535669834
0.5765746127338072,0.5765746127338072
0.5461790751176461,0.5461790751176461
0.5309813063095655,0.5309813063095655
0.5215731637140871,0.5215731637140871
0.5309813063095655,0.5309813063095655
0.5273627899266892,0.5273627899266892
0.5309813063095655,0.5309813063095655
0.5251916800969634,0.5251916800969634
0.5309813063095655,0.5309813063095655
0.5259153833735387,0.5259153833735387
0.5309813063095655,0.5309813063095655
0.5280864932032645,0.5280864932032645
0.5309813063095655,0.5309813063095655
0.5099939112888828,0.5099939112888828
0.48466429660874866,0.48466429660874866
0.449926539333136,0.449926539333136
0.439070990184507,0.439070990184507
0.4332813639719049,0.4332813639719049
0.439070990184507,0.439070990184507
0.43255766069532964,0.43255766069532964
0.439070990184507,0.439070990184507
0.439070990184507,0.439070990184507
0.439070990184507,0.439070990184507
0.4130176722277975,0.4130176722277975
0.39347768376026543,0.39347768376026543
0.3804510247819107,0.3804510247819107
0.39347768376026543,0.39347768376026543
0.39420138703684066,0.39420138703684066
0.39347768376026543,0.39347768376026543
0.3818984313350612,0.3818984313350612
0.39347768376026543,0.39347768376026543
0.397819903419717,0.397819903419717
0.39347768376026543,0.39347768376026543
0.36163473959095377,0.36163473959095377
0.3471606740594485,0.3471606740594485
0.3435421576765722,0.3435421576765722
0.3471606740594485,0.3471606740594485
0.32255476265588956,0.32255476265588956
0.3015673676352069,0.3015673676352069
0.28854070865685216,0.28854070865685216
0.3015673676352069,0.3015673676352069
0.3015673676352069,0.3015673676352069
0.3015673676352069,0.3015673676352069
0.293606631592879,0.293606631592879
0.3015673676352069,0.3015673676352069
0.2993962578054811,0.2993962578054811
0.3015673676352069,0.3015673676352069
0.29433033486945426,0.29433033486945426
0.3015673676352069,0.3015673676352069
0.2993962578054811,0.2993962578054811
0.3015673676352069,0.3015673676352069
0.29288292831630375,0.29288292831630375
0.3015673676352069,0.3015673676352069
0.3037384774649327,0.3037384774649327
0.3015673676352069,0.3015673676352069
0.2733429398487716,0.2733429398487716
0.2559740612109653,0.2559740612109653
0.24656591861548685,0.24656591861548685
0.2559740612109653,0.2559740612109653
0.2516318415515137,0.2516318415515137
0.2559740612109653,0.2559740612109653
0.2538029513812395,0.2538029513812395
0.2559740612109653,0.2559740612109653
0.2313681498074063,0.2313681498074063
0.20965705151014838,0.20965705151014838
0.19373557942549258,0.19373557942549258
0.20965705151014838,0.20965705151014838
0.2291970399776805,0.2291970399776805
0.2559740612109653,0.2559740612109653
0.25886887431726635,0.25886887431726635
0.2559740612109653,0.2559740612109653
0.24222369895603527,0.24222369895603527
0.2559740612109653,0.2559740612109653
0.27623775295507264,0.27623775295507264
0.3015673676352069,0.3015673676352069
0.2993962578054811,0.2993962578054811
0.3015673676352069,0.3015673676352069
0.3124229167838359,0.3124229167838359
0.3471606740594485,0.3471606740594485
0.359463629761228,0.359463629761228
0.3471606740594485,0.3471606740594485
0.3109755102306853,0.3109755102306853
0.3015673676352069,0.3015673676352069
0.3015673676352069,0.3015673676352069
0.3015673676352069,0.3015673676352069
0.27189553329562105,0.27189553329562105
0.2559740612109653,0.2559740612109653
0.2509081382749384,0.2509081382749384
0.2559740612109653,0.2559740612109653
0.2313681498074063,0.2313681498074063
0.20965705151014838,0.20965705151014838
0.19880150236151942,0.19880150236151942
0.20965705151014838,0.20965705151014838
0.19518298597864311,0.19518298597864311
0.16406374508590676,0.16406374508590676
0.12498376815084251,0.12498376815084251
0.11847043866166514,0.11847043866166514
0.11702303210851461,0.11702303210851461
0.11847043866166514,0.11847043866166514
0.1054437796833104,0.1054437796833104
0.11847043866166514,0.11847043866166514
0.1394578336823478,0.1394578336823478
0.16406374508590676,0.16406374508590676
0.15972152542645518,0.15972152542645518
0.16406374508590676,0.16406374508590676
0.1792615138939873,0.1792615138939873
0.20965705151014838,0.20965705151014838
0.2132755678930247,0.2132755678930247
0.20965705151014838,0.20965705151014838
0.2016963154678205,0.2016963154678205
0.20965705151014838,0.20965705151014838
0.20676223840384733,0.20676223840384733
0.20965705151014838,0.20965705151014838
0.2053148318506968,0.2053148318506968
0.20965705151014838,0.20965705151014838
0.203143722020971,0.203143722020971
0.20965705151014838,0.20965705151014838
0.21110445806329892,0.21110445806329892
0.20965705151014838,0.20965705151014838
0.18215632700028836,0.18215632700028836
0.16406374508590676,0.16406374508590676
0.15393189921385309,0.15393189921385309
0.16406374508590676,0.16406374508590676
0.16189263525618097,0.16189263525618097
0.16406374508590676,0.16406374508590676
0.15899782214987992,0.15899782214987992
0.16406374508590676,0.16406374508590676
0.15899782214987992,0.15899782214987992
0.16406374508590676,0.16406374508590676
0.16261633853275623,0.16261633853275623
0.16406374508590676,0.16406374508590676
0.14018153695892305,0.14018153695892305
0.11847043866166514,0.11847043866166514
0.10254896657700933,0.10254896657700933
0.11847043866166514,0.11847043866166514
0.12643117470399304,0.12643117470399304
0.11847043866166514,0.11847043866166514
0.08300897810947722,0.08300897810947722
0.07215342896084825,0.07215342896084825
0.08590379121577828,0.08590379121577828
0.11847043866166514,0.11847043866166514
0.12208895504454147,0.12208895504454147
0.11847043866166514,0.11847043866166514
0.10906229606618671,0.10906229606618671
0.11847043866166514,0.11847043866166514
0.11702303210851461,0.11702303210851461
0.11847043866166514,0.11847043866166514
0.11195710917248777,0.11195710917248777
0.11847043866166514,0.11847043866166514
0.11557562555536409,0.11557562555536409
0.11847043866166514,0.11847043866166514
0.11268081244906303,0.11268081244906303
0.11847043866166514,0.11847043866166514
0.11485192227878882,0.11485192227878882
0.11847043866166514,0.11847043866166514
0.11268081244906303,0.11268081244906303
0.11847043866166514,0.11847043866166514
0.11557562555536409,0.11557562555536409
0.11847043866166514,0.11847043866166514
0.11050970261933724,0.11050970261933724
0.11847043866166514,0.11847043866166514
0.11991784521481567,0.11991784521481567
0.11847043866166514,0.11847043866166514
0.09024601087522985,0.09024601087522985
0.07215342896084825,0.07215342896084825
0.06274528636536983,0.06274528636536983
0.07215342896084825,0.07215342896084825
0.06998231913112246,0.06998231913112246
0.07215342896084825,0.07215342896084825
0.06781120930139667,0.06781120930139667
0.07215342896084825,0.07215342896084825
0.06708750602482141,0.06708750602482141
0.07215342896084825,0.07215342896084825
0.07215342896084825,0.07215342896084825
0.07215342896084825,0.07215342896084825
0.04827122083386455,0.04827122083386455
0.026560122536606636,0.026560122536606636
-0.0009406019732533903,-0.0009406019732533903
-0.019033183887634985,-0.019033183887634985
-0.04942872150379607,-0.04942872150379607
-0.06535019358845187,-0.06535019358845187
-0.0747583361839303,-0.0747583361839303
-0.06535019358845187,-0.06535019358845187
-0.0667976001416024,-0.0667976001416024
-0.06535019358845187,-0.06535019358845187
-0.07113981980105398,-0.07113981980105398
-0.06535019358845187,-0.06535019358845187
-0.06896870997132819,-0.06896870997132819
-0.06535019358845187,-0.06535019358845187
-0.06969241324790346,-0.06969241324790346
-0.06535019358845187,-0.06535019358845187
-0.06896870997132819,-0.06896870997132819
-0.06535019358845187,-0.06535019358845187
-0.06969241324790346,-0.06969241324790346
-0.06535019358845187,-0.06535019358845187
-0.06969241324790346,-0.06969241324790346
-0.06535019358845187,-0.06535019358845187
-0.06896870997132819,-0.06896870997132819
-0.06535019358845187,-0.06535019358845187
-0.07041611652447873,-0.07041611652447873
-0.06535019358845187,-0.06535019358845187
-0.06752130341817766,-0.06752130341817766
-0.06535019358845187,-0.06535019358845187
-0.07331092963077977,-0.07331092963077977
-0.06535019358845187,-0.06535019358845187
-0.05015242478037133,-0.05015242478037133
-0.019033183887634985,-0.019033183887634985
-0.01034874456873182,-0.01034874456873182
-0.019033183887634985,-0.019033183887634985
-0.05159983133352186,-0.05159983133352186
-0.06535019358845187,-0.06535019358845187
-0.05811316082269923,-0.05811316082269923
-0.019033183887634985,-0.019033183887634985
0.01063865045195083,0.01063865045195083
0.026560122536606636,0.026560122536606636
0.007020134069074512,0.007020134069074512
-0.019033183887634985,-0.019033183887634985
-0.053047237886672385,-0.053047237886672385
-0.06535019358845187,-0.06535019358845187
-0.07186352307762925,-0.07186352307762925
-0.06535019358845187,-0.06535019358845187
-0.06824500669475293,-0.06824500669475293
-0.06535019358845187,-0.06535019358845187
-0.06969241324790346,-0.06969241324790346
-0.06535019358845187,-0.06535019358845187
-0.06969241324790346,-0.06969241324790346
-0.06535019358845187,-0.06535019358845187
-0.06896870997132819,-0.06896870997132819
-0.06535019358845187,-0.06535019358845187
-0.07113981980105398,-0.07113981980105398
-0.06535019358845187,-0.06535019358845187
-0.0667976001416024,-0.0667976001416024
-0.06535019358845187,-0.06535019358845187
-0.07331092963077977,-0.07331092963077977
-0.06535019358845187,-0.06535019358845187
-0.06317908375872608,-0.06317908375872608
-0.06535019358845187,-0.06535019358845187
-0.08199536894968294,-0.08199536894968294
-0.06535019358845187,-0.06535019358845187
-0.02337540354708657,-0.02337540354708657
0.026560122536606636,0.026560122536606636
0.03379715530235927,0.03379715530235927
0.026560122536606636,0.026560122536606636
0.016428276664552943,0.016428276664552943
0.026560122536606636,0.026560122536606636
0.02511271598345611,0.02511271598345611
0.026560122536606636,0.026560122536606636
0.022941606153730316,0.022941606153730316
0.026560122536606636,0.026560122536606636
0.007020134069074512,0.007020134069074512
-0.019033183887634985,-0.019033183887634985
-0.053770941163247654,-0.053770941163247654
-0.06535019358845187,-0.06535019358845187
-0.07113981980105398,-0.07113981980105398
-0.06535019358845187,-0.06535019358845187
-0.06896870997132819,-0.06896870997132819
-0.06535019358845187,-0.06535019358845187
-0.06896870997132819,-0.06896870997132819
-0.06535019358845187,-0.06535019358845187
-0.07186352307762925,-0.07186352307762925
-0.06535019358845187,-0.06535019358845187
-0.053770941163247654,-0.053770941163247654
-0.019033183887634985,-0.019033183887634985
0.006296430792499248,0.006296430792499248
0.026560122536606636,0.026560122536606636
0.023665309430305582,0.023665309430305582
0.026560122536606636,0.026560122536606636
0.022941606153730316,0.022941606153730316
0.026560122536606636,0.026560122536606636
0.020046793047429262,0.020046793047429262
0.026560122536606636,0.026560122536606636
0.027283825813181898,0.027283825813181898
0.026560122536606636,0.026560122536606636
0.0005068045798971374,0.0005068045798971374
-0.019033183887634985,-0.019033183887634985
-0.03061243631283921,-0.03061243631283921
-0.019033183887634985,-0.019033183887634985
-0.018309480611059723,-0.018309480611059723
-0.019033183887634985,-0.019033183887634985
-0.028441326483113417,-0.028441326483113417
-0.019033183887634985,-0.019033183887634985
-0.016862074057909196,-0.016862074057909196
-0.019033183887634985,-0.019033183887634985
-0.046533908397495015,-0.046533908397495015
-0.06535019358845187,-0.06535019358845187
-0.07620574273708083,-0.07620574273708083
-0.06535019358845187,-0.06535019358845187
-0.0646264903118766,-0.0646264903118766
-0.06535019358845187,-0.06535019358845187
-0.07548203946050557,-0.07548203946050557
-0.06535019358845187,-0.06535019358845187
-0.04798131495064554,-0.04798131495064554
-0.019033183887634985,-0.019033183887634985
-0.013243557675032876,-0.013243557675032876
-0.019033183887634985,-0.019033183887634985
-0.04725761167407028,-0.04725761167407028
-0.06535019358845187,-0.06535019358845187
-0.07692944601365609,-0.07692944601365609
-0.06535019358845187,-0.06535019358845187
-0.06317908375872608,-0.06317908375872608
-0.06535019358845187,-0.06535019358845187
-0.07837685256680663,-0.07837685256680663
-0.06535019358845187,-0.06535019358845187
-0.04291539201461869,-0.04291539201461869
-0.019033183887634985,-0.019033183887634985
-0.02337540354708657,-0.02337540354708657
-0.019033183887634985,-0.019033183887634985
-0.00455911835612971,-0.00455911835612971
0.026560122536606636,0.026560122536606636
0.03234974874920875,0.03234974874920875
0.026560122536606636,0.026560122536606636
0.014980870111402414,0.014980870111402414
0.026560122536606636,0.026560122536606636
0.030178638919482956,0.030178638919482956
0.026560122536606636,0.026560122536606636
0.011362353728526096,0.011362353728526096
0.026560122536606636,0.026560122536606636
0.052613440493316135,0.052613440493316135
0.07215342896084825,0.07215342896084825
0.05044233066359034,0.05044233066359034
0.026560122536606636,0.026560122536606636
0.013533463558251886,0.013533463558251886
0.026560122536606636,0.026560122536606636
0.026560122536606636,0.026560122536606636
0.026560122536606636,0.026560122536606636
0.020046793047429262,0.020046793047429262
0.026560122536606636,0.026560122536606636
0.023665309430305582,0.023665309430305582
0.026560122536606636,0.026560122536606636
0.02221790287715505,0.02221790287715505
0.026560122536606636,0.026560122536606636
0.020770496324004524,0.020770496324004524
0.026560122536606636,0.026560122536606636
0.02583641926003137,0.02583641926003137
0.026560122536606636,0.026560122536606636
0.002677914409622929,0.002677914409622929
-0.019033183887634985,-0.019033183887634985
-0.03495465597229079,-0.03495465597229079
-0.019033183887634985,-0.019033183887634985
-0.011796151121882347,-0.011796151121882347
-0.019033183887634985,-0.019033183887634985
-0.053047237886672385,-0.053047237886672385
-0.06535019358845187,-0.06535019358845187
-0.06752130341817766,-0.06752130341817766
-0.06535019358845187,-0.06535019358845187
-0.07910055584338188,-0.07910055584338188
-0.06535019358845187,-0.06535019358845187
-0.03712576580201658,-0.03712576580201658
-0.019033183887634985,-0.019033183887634985
-0.0487050182272208,-0.0487050182272208
-0.06535019358845187,-0.06535019358845187
-0.052323534610097124,-0.052323534610097124
-0.019033183887634985,-0.019033183887634985
-0.020480590440785516,-0.020480590440785516
-0.019033183887634985,-0.019033183887634985
-0.0038354150795544455,-0.0038354150795544455
0.026560122536606636,0.026560122536606636
0.02583641926003137,0.02583641926003137
0.026560122536606636,0.026560122536606636
0.03886307823838612,0.03886307823838612
0.07215342896084825,0.07215342896084825
0.0895223075986546,0.0895223075986546
0.11847043866166514,0.11847043866166514
0.1575504155967294,0.1575504155967294
0.20965705151014838,0.20965705151014838
0.23426296291370735,0.23426296291370735
0.2559740612109653,0.2559740612109653
0.2755140496784974,0.2755140496784974
0.3015673676352069,0.3015673676352069
0.29071181848657796,0.29071181848657796
0.2559740612109653,0.2559740612109653
0.2009726121912452,0.2009726121912452
0.16406374508590676,0.16406374508590676
0.13294450419317042,0.13294450419317042
0.11847043866166514,0.11847043866166514
0.09241712070495564,0.09241712070495564
0.07215342896084825,0.07215342896084825
0.05478455032304193,0.05478455032304193
0.07215342896084825,0.07215342896084825
0.09820674691755775,0.09820674691755775
0.11847043866166514,0.11847043866166514
0.0974830436409825,0.0974830436409825
0.07215342896084825,0.07215342896084825
0.05767936342934298,0.05767936342934298
0.07215342896084825,0.07215342896084825
0.06419269291852035,0.06419269291852035
0.026560122536606636,0.026560122536606636
-0.025546513376812362,-0.025546513376812362
-0.019033183887634985,-0.019033183887634985
0.02511271598345611,0.02511271598345611
0.07215342896084825,0.07215342896084825
0.08445638466262774,0.08445638466262774
0.11847043866166514,0.11847043866166514
0.16044522870303043,0.16044522870303043
0.16406374508590676,0.16406374508590676
0.07577194534372457,0.07577194534372457
-0.019033183887634985,-0.019033183887634985
-0.0667976001416024,-0.0667976001416024
-0.06535019358845187,-0.06535019358845187
-0.08850869843886032,-0.08850869843886032
-0.1109435000126935,-0.1109435000126935
-0.12252275243789772,-0.12252275243789772
-0.1109435000126935,-0.1109435000126935
-0.12179904916132245,-0.12179904916132245
-0.1109435000126935,-0.1109435000126935
-0.08850869843886032,-0.08850869843886032
-0.06535019358845187,-0.06535019358845187
-0.08995610499201084,-0.08995610499201084
-0.1109435000126935,-0.1109435000126935
-0.10587757707666665,-0.10587757707666665
-0.06535019358845187,-0.06535019358845187
-0.032059842865989736,-0.032059842865989736
0.026560122536606636,0.026560122536606636
0.13294450419317042,0.13294450419317042
0.3015673676352069,0.3015673676352069
0.4875591097150497,0.4875591097150497
0.7140782352831073,0.7140782352831073
1.0303365671464977,1.0303365671464977
1.4935066641546664,1.4935066641546664
2.041350044522141,2.041350044522141
2.5935356445490676,2.5935356445490676
3.0842064660670965,3.0842064660670965
3.510467695969927,3.510467695969927
3.7652112493244196,3.7652112493244196
3.6935646249434684,3.6935646249434684
3.1934856608299613,3.1934856608299613
2.4104387155755256,2.4104387155755256
1.582522167173424,1.582522167173424
0.897175164256649,0.897175164256649
0.35801622320807747,0.35801622320807747
-0.06535019358845187,-0.06535019358845187
-0.40766184340855166,-0.40766184340855166
-0.660957990209894,-0.660957990209894
-0.8628712043743926,-0.8628712043743926
-1.0278755514335527,-1.0278755514335527
-1.1726162067486054,-1.1726162067486054
-1.2565657868313362,-1.2565657868313362
-1.2826191047880457,-1.2826191047880457
-1.2565657868313362,-1.2565657868313362
-1.2348546885340783,-1.2348546885340783
-1.2109724804070945,-1.2109724804070945
-1.1964984148755893,-1.1964984148755893
-1.165379173982853,-1.165379173982853
-1.146562888791896,-1.146562888791896
-1.119062164282036,-1.119062164282036
-1.1031406921973803,-1.1031406921973803
-1.0734688578577944,-1.0734688578577944
-1.0546525726668377,-1.0546525726668377
-1.0278755514335527,-1.0278755514335527
-1.0220859252209507,-1.0220859252209507
-1.0278755514335527,-1.0278755514335527
-1.045244430071359,-1.045244430071359
-1.0278755514335527,-1.0278755514335527
-0.984453354839037,-0.984453354839037
-0.9359652353084943,-0.9359652353084943
-0.9280044992661663,-0.9280044992661663
-0.9359652353084943,-0.9359652353084943
-0.9446496746273975,-0.9446496746273975
-0.9359652353084943,-0.9359652353084943
-0.9366889385850695,-0.9366889385850695
-0.9359652353084943,-0.9359652353084943
-0.9403074549679459,-0.9403074549679459
-0.9359652353084943,-0.9359652353084943
-0.9395837516913705,-0.9395837516913705
-0.9359652353084943,-0.9359652353084943
-0.9381363451382201,-0.9381363451382201
-0.9359652353084943,-0.9359652353084943
-0.9439259713508221,-0.9439259713508221
-0.9359652353084943,-0.9359652353084943
-0.9200437632238385,-0.9200437632238385
-0.8903719288842527,-0.8903719288842527
-0.8701082371401453,-0.8701082371401453
-0.8440549191834358,-0.8440549191834358
-0.8223438208861779,-0.8223438208861779
-0.7984616127591941,-0.7984616127591941
-0.7962905029294683,-0.7962905029294683
-0.7984616127591941,-0.7984616127591941
-0.8056986455249467,-0.8056986455249467
-0.7984616127591941,-0.7984616127591941
-0.7984616127591941,-0.7984616127591941
-0.7984616127591941,-0.7984616127591941
-0.8064223488015221,-0.8064223488015221
-0.7984616127591941,-0.7984616127591941
-0.7948430963763178,-0.7948430963763178
-0.7984616127591941,-0.7984616127591941
-0.8259623372690542,-0.8259623372690542
-0.8440549191834358,-0.8440549191834358
-0.8534630617789142,-0.8534630617789142
-0.8440549191834358,-0.8440549191834358
-0.8455023257365863,-0.8455023257365863
-0.8440549191834358,-0.8440549191834358
-0.8483971388428874,-0.8483971388428874
-0.8440549191834358,-0.8440549191834358
-0.8498445453960378,-0.8498445453960378
-0.8440549191834358,-0.8440549191834358
-0.8317519634816563,-0.8317519634816563
-0.7984616127591941,-0.7984616127591941
-0.7745794046322104,-0.7745794046322104
-0.7528683063349525,-0.7528683063349525
-0.7383942408034473,-0.7383942408034473
-0.7065512966341356,-0.7065512966341356
-0.6797742754008509,-0.6797742754008509
-0.660957990209894,-0.660957990209894
-0.6667476164224961,-0.6667476164224961
-0.660957990209894,-0.660957990209894
-0.6457602214018134,-0.6457602214018134
-0.6153646837856523,-0.6153646837856523
-0.5958246953181202,-0.5958246953181202
-0.5690476740848355,-0.5690476740848355
-0.5466128725110023,-0.5466128725110023
-0.5234543676605938,-0.5234543676605938
-0.5256254774903196,-0.5256254774903196
-0.5234543676605938,-0.5234543676605938
-0.5118751152353896,-0.5118751152353896
-0.47786106123635225,-0.47786106123635225
-0.4670055120877233,-0.4670055120877233
-0.47786106123635225,-0.47786106123635225
-0.4988484562570349,-0.4988484562570349
-0.47786106123635225,-0.47786106123635225
-0.44601811706704064,-0.44601811706704064
-0.4315440515355354,-0.4315440515355354
-0.4510840400030675,-0.4510840400030675
-0.4315440515355354,-0.4315440515355354
-0.3685818664734874,-0.3685818664734874
-0.2940404289862352,-0.2940404289862352
-0.2708819241358268,-0.2708819241358268
-0.2484471225619936,-0.2484471225619936
-0.1970641899251499,-0.1970641899251499
-0.1109435000126935,-0.1109435000126935
-0.05811316082269923,-0.05811316082269923
-0.019033183887634985,-0.019033183887634985
0.027283825813181898,0.027283825813181898
0.11847043866166514,0.11847043866166514
0.20965705151014838,0.20965705151014838
0.3015673676352069,0.3015673676352069
0.3811747280584859,0.3811747280584859
0.48466429660874866,0.48466429660874866
0.5939434913716135,0.5939434913716135
0.7140782352831073,0.7140782352831073
0.8096070677910421,0.8096070677910421
0.897175164256649,0.897175164256649
0.9753351181267775,0.9753351181267775
1.080995796506766,1.080995796506766
1.1924461010993568,1.1924461010993568
1.3096860319045494,1.3096860319045494
1.402320051306183,1.402320051306183
1.4935066641546664,1.4935066641546664
1.5789036507905476,1.5789036507905476
1.6766035931282082,1.6766035931282082
1.7525924371686108,1.7525924371686108
1.8141072156775082,1.8141072156775082
1.853910895889148,1.853910895889148
1.9060175318025667,1.9060175318025667
1.94220269563133,1.94220269563133
1.9516108382268085,1.9516108382268085
1.9089123449088679,1.9089123449088679
1.85970052210175,1.85970052210175
1.810488699294632,1.810488699294632
1.7685139092532667,1.7685139092532667
1.6881828455534125,1.6881828455534125
1.5846932770031497,1.5846932770031497
1.4631111265385053,1.4631111265385053
1.3560030416053663,1.3560030416053663
1.240210517353324,1.240210517353324
1.1265891029310078,1.1265891029310078
1.0021121393600623,1.0021121393600623
0.897175164256649,0.897175164256649
0.7973041120892627,0.7973041120892627
0.7140782352831073,0.7140782352831073
0.6192731060517477,0.6192731060517477
0.5309813063095655,0.5309813063095655
0.4318339574187544,0.4318339574187544
0.3471606740594485,0.3471606740594485
0.26465850052986845,0.26465850052986845
0.20965705151014838,0.20965705151014838
0.15827411887330464,0.15827411887330464
0.11847043866166514,0.11847043866166514
0.06491639619509562,0.06491639619509562
0.026560122536606636,0.026560122536606636
-0.017585777334484458,-0.017585777334484458
-0.06535019358845187,-0.06535019358845187
-0.14061533435227933,-0.14061533435227933
-0.202853816137752,-0.202853816137752
-0.24338119962596677,-0.24338119962596677
-0.2484471225619936,-0.2484471225619936
-0.2650922979232247,-0.2650922979232247
-0.2940404289862352,-0.2940404289862352
-0.3468707681762295,-0.3468707681762295
-0.38595074511129374,-0.38595074511129374
-0.41996479911033113,-0.41996479911033113
-0.4315440515355354,-0.4315440515355354
-0.44095219413101383,-0.44095219413101383
-0.4315440515355354,-0.4315440515355354
-0.4315440515355354,-0.4315440515355354
-0.4315440515355354,-0.4315440515355354
-0.44384700723731485,-0.44384700723731485
-0.4315440515355354,-0.4315440515355354
-0.41055665651485274,-0.41055665651485274
-0.38595074511129374,-0.38595074511129374
-0.3888455582175948,-0.3888455582175948
-0.38595074511129374,-0.38595074511129374
-0.372924086132939,-0.372924086132939
-0.34035743868705215,-0.34035743868705215
-0.3193700436663695,-0.3193700436663695
-0.2940404289862352,-0.2940404289862352
-0.2730530339655526,-0.2730530339655526
-0.2484471225619936,-0.2484471225619936
-0.24772341928541836,-0.24772341928541836
-0.2484471225619936,-0.2484471225619936
-0.254960452051171,-0.254960452051171
-0.2484471225619936,-0.2484471225619936
-0.25206563894486994,-0.25206563894486994
-0.2484471225619936,-0.2484471225619936
-0.25134193566829466,-0.25134193566829466
-0.2484471225619936,-0.2484471225619936
-0.2564078586043215,-0.2564078586043215
-0.2484471225619936,-0.2484471225619936
-0.2325256504773378,-0.2325256504773378
-0.202853816137752,-0.202853816137752
-0.1948930800954241,-0.1948930800954241
-0.202853816137752,-0.202853816137752
-0.23180194720076255,-0.23180194720076255
-0.2484471225619936,-0.2484471225619936
-0.25785526515747204,-0.25785526515747204
-0.2484471225619936,-0.2484471225619936
-0.2484471225619936,-0.2484471225619936
-0.2484471225619936,-0.2484471225619936
-0.2571315618808968,-0.2571315618808968
-0.2484471225619936,-0.2484471225619936
-0.2469997160088431,-0.2469997160088431
-0.2484471225619936,-0.2484471225619936
-0.2621974848169236,-0.2621974848169236
-0.2484471225619936,-0.2484471225619936
-0.22311750788185938,-0.22311750788185938
-0.202853816137752,-0.202853816137752
-0.22384121115843467,-0.22384121115843467
-0.2484471225619936,-0.2484471225619936
-0.2614737815403484,-0.2614737815403484
-0.2484471225619936,-0.2484471225619936
-0.24772341928541836,-0.24772341928541836
-0.2484471225619936,-0.2484471225619936
-0.25568415532774624,-0.25568415532774624
-0.2484471225619936,-0.2484471225619936
-0.25134193566829466,-0.25134193566829466
-0.2484471225619936,-0.2484471225619936
-0.2527893422214452,-0.2527893422214452
-0.2484471225619936,-0.2484471225619936
-0.25351304549802045,-0.25351304549802045
-0.2484471225619936,-0.2484471225619936
-0.25061823239171943,-0.25061823239171943
-0.2484471225619936,-0.2484471225619936
-0.2571315618808968,-0.2571315618808968
-0.2484471225619936,-0.2484471225619936
-0.23180194720076255,-0.23180194720076255
-0.202853816137752,-0.202853816137752
-0.19634048664857462,-0.19634048664857462
-0.202853816137752,-0.202853816137752
-0.22963083737103676,-0.22963083737103676
-0.2484471225619936,-0.2484471225619936
-0.2629211880934989,-0.2629211880934989
-0.2484471225619936,-0.2484471225619936
-0.22745972754131097,-0.22745972754131097
-0.202853816137752,-0.202853816137752
-0.20213011286117674,-0.20213011286117674
-0.202853816137752,-0.202853816137752
-0.20936714562692937,-0.20936714562692937
-0.202853816137752,-0.202853816137752
-0.20574862924405304,-0.20574862924405304
-0.202853816137752,-0.202853816137752
-0.20719603579720358,-0.20719603579720358
-0.202853816137752,-0.202853816137752
-0.20719603579720358,-0.20719603579720358
-0.202853816137752,-0.202853816137752
-0.20574862924405304,-0.20574862924405304
-0.202853816137752,-0.202853816137752
-0.20864344235035412,-0.20864344235035412
-0.202853816137752,-0.202853816137752
-0.202853816137752,-0.202853816137752
-0.202853816137752,-0.202853816137752
-0.21370936528638096,-0.21370936528638096
-0.202853816137752,-0.202853816137752
-0.1825901243936446,-0.1825901243936446
-0.15653680643693513,-0.15653680643693513
-0.15870791626666092,-0.15870791626666092
-0.15653680643693513,-0.15653680643693513
-0.14495755401173088,-0.14495755401173088
-0.1109435000126935,-0.1109435000126935
-0.10008795086406454,-0.10008795086406454
-0.1109435000126935,-0.1109435000126935
-0.14423385073515563,-0.14423385073515563
-0.15653680643693513,-0.15653680643693513
-0.16160272937296197,-0.16160272937296197
-0.15653680643693513,-0.15653680643693513
-0.16522124575583827,-0.16522124575583827
-0.15653680643693513,-0.15653680643693513
-0.13989163107570404,-0.13989163107570404
-0.1109435000126935,-0.1109435000126935
-0.10732498362981717,-0.10732498362981717
-0.1109435000126935,-0.1109435000126935
-0.12107534588474719,-0.12107534588474719
-0.1109435000126935,-0.1109435000126935
-0.10877239018296771,-0.10877239018296771
-0.1109435000126935,-0.1109435000126935
-0.136996817969403,-0.136996817969403
-0.15653680643693513,-0.15653680643693513
-0.17173457524501565,-0.17173457524501565
-0.15653680643693513,-0.15653680643693513
-0.13627311469282774,-0.13627311469282774
-0.1109435000126935,-0.1109435000126935
-0.10949609345954296,-0.10949609345954296
-0.1109435000126935,-0.1109435000126935
-0.1189042360550214,-0.1189042360550214
-0.1109435000126935,-0.1109435000126935
-0.10949609345954296,-0.10949609345954296
-0.1109435000126935,-0.1109435000126935
-0.13554941141625246,-0.13554941141625246
-0.15653680643693513,-0.15653680643693513
-0.17245827852159093,-0.17245827852159093
-0.15653680643693513,-0.15653680643693513
-0.13554941141625246,-0.13554941141625246
-0.1109435000126935,-0.1109435000126935
-0.1109435000126935,-0.1109435000126935
-0.1109435000126935,-0.1109435000126935
-0.11745682950187086,-0.11745682950187086
-0.1109435000126935,-0.1109435000126935
-0.11383831311899455,-0.11383831311899455
-0.1109435000126935,-0.1109435000126935
-0.11600942294872034,-0.11600942294872034
-0.1109435000126935,-0.1109435000126935
-0.11456201639556982,-0.11456201639556982
-0.1109435000126935,-0.1109435000126935
-0.11528571967214507,-0.11528571967214507
-0.1109435000126935,-0.1109435000126935
-0.11456201639556982,-0.11456201639556982
-0.1109435000126935,-0.1109435000126935
-0.11528571967214507,-0.11528571967214507
-0.1109435000126935,-0.1109435000126935
-0.11456201639556982,-0.11456201639556982
-0.1109435000126935,-0.1109435000126935
-0.11600942294872034,-0.11600942294872034
-0.1109435000126935,-0.1109435000126935
-0.11383831311899455,-0.11383831311899455
-0.1109435000126935,-0.1109435000126935
-0.11673312622529561,-0.11673312622529561
-0.1109435000126935,-0.1109435000126935
-0.11239090656584402,-0.11239090656584402
-0.1109435000126935,-0.1109435000126935
-0.12107534588474719,-0.12107534588474719
-0.1109435000126935,-0.1109435000126935
-0.0928509180983119,-0.0928509180983119
-0.06535019358845187,-0.06535019358845187
-0.061731677205575555,-0.061731677205575555
-0.06535019358845187,-0.06535019358845187
-0.07548203946050557,-0.07548203946050557
-0.06535019358845187,-0.06535019358845187
-0.05015242478037133,-0.05015242478037133
-0.019033183887634985,-0.019033183887634985
0.003401617686198193,0.003401617686198193
0.026560122536606636,0.026560122536606636
0.027283825813181898,0.027283825813181898
0.026560122536606636,0.026560122536606636
0.018599386494278735,0.018599386494278735
0.026560122536606636,0.026560122536606636
0.027283825813181898,0.027283825813181898
0.026560122536606636,0.026560122536606636
0.003401617686198193,0.003401617686198193
-0.019033183887634985,-0.019033183887634985
-0.05015242478037133,-0.05015242478037133
-0.06535019358845187,-0.06535019358845187
-0.07620574273708083,-0.07620574273708083
-0.06535019358845187,-0.06535019358845187
-0.061007973929000286,-0.061007973929000286
-0.06535019358845187,-0.06535019358845187
-0.09429832465146243,-0.09429832465146243
-0.1109435000126935,-0.1109435000126935
-0.11745682950187086,-0.11745682950187086
-0.1109435000126935,-0.1109435000126935
-0.13120719175680087,-0.13120719175680087
-0.15653680643693513,-0.15653680643693513
-0.17680049818104251,-0.17680049818104251
-0.15653680643693513,-0.15653680643693513
-0.13048348848022562,-0.13048348848022562
-0.1109435000126935,-0.1109435000126935
-0.11818053277844613,-0.11818053277844613
-0.1109435000126935,-0.1109435000126935
-0.09357462137488716,-0.09357462137488716
-0.06535019358845187,-0.06535019358845187
-0.06317908375872608,-0.06317908375872608
-0.06535019358845187,-0.06535019358845187
-0.07186352307762925,-0.07186352307762925
-0.06535019358845187,-0.06535019358845187
-0.06824500669475293,-0.06824500669475293
-0.06535019358845187,-0.06535019358845187
-0.06969241324790346,-0.06969241324790346
-0.06535019358845187,-0.06535019358845187
-0.05811316082269923,-0.05811316082269923
-0.019033183887634985,-0.019033183887634985
0.01787568321770347,0.01787568321770347
0.026560122536606636,0.026560122536606636
-0.021204293717360777,-0.021204293717360777
-0.06535019358845187,-0.06535019358845187
-0.08127166567310767,-0.08127166567310767
-0.06535019358845187,-0.06535019358845187
-0.06535019358845187,-0.06535019358845187
-0.06535019358845187,-0.06535019358845187
-0.06824500669475293,-0.06824500669475293
-0.06535019358845187,-0.06535019358845187
-0.07620574273708083,-0.07620574273708083
-0.06535019358845187,-0.06535019358845187
-0.04219168873804343,-0.04219168873804343
-0.019033183887634985,-0.019033183887634985
-0.039296875631742376,-0.039296875631742376
-0.06535019358845187,-0.06535019358845187
-0.07910055584338188,-0.07910055584338188
-0.06535019358845187,-0.06535019358845187
-0.06390278703530135,-0.06390278703530135
-0.06535019358845187,-0.06535019358845187
-0.0725872263542045,-0.0725872263542045
-0.06535019358845187,-0.06535019358845187
-0.06824500669475293,-0.06824500669475293
-0.06535019358845187,-0.06535019358845187
-0.06969241324790346,-0.06969241324790346
-0.06535019358845187,-0.06535019358845187
-0.07041611652447873,-0.07041611652447873
-0.06535019358845187,-0.06535019358845187
-0.06824500669475293,-0.06824500669475293
-0.06535019358845187,-0.06535019358845187
-0.0725872263542045,-0.0725872263542045
-0.06535019358845187,-0.06535019358845187
-0.06390278703530135,-0.06390278703530135
-0.06535019358845187,-0.06535019358845187
-0.07982425911995715,-0.07982425911995715
-0.06535019358845187,-0.06535019358845187
-0.02771762320653815,-0.02771762320653815
0.026560122536606636,0.026560122536606636
0.06419269291852035,0.06419269291852035
0.11847043866166514,0.11847043866166514
0.1836037335534389,0.1836037335534389
0.2559740612109653,0.2559740612109653
0.28854070865685216,0.28854070865685216
0.3015673676352069,0.3015673676352069
0.29794885125233056,0.29794885125233056
0.3015673676352069,0.3015673676352069
0.29433033486945426,0.29433033486945426
0.3015673676352069,0.3015673676352069
0.3051858840180832,0.3051858840180832
0.3015673676352069,0.3015673676352069
0.2711718300190458,0.2711718300190458
0.2559740612109653,0.2559740612109653
0.25452665465781477,0.25452665465781477
0.2559740612109653,0.2559740612109653
0.2154466777227505,0.2154466777227505
0.16406374508590676,0.16406374508590676
0.12281265832111672,0.12281265832111672
0.11847043866166514,0.11847043866166514
0.11629932883193936,0.11629932883193936
0.11847043866166514,0.11847043866166514
0.09893045019413302,0.09893045019413302
0.07215342896084825,0.07215342896084825
0.03379715530235927,0.03379715530235927
0.026560122536606636,0.026560122536606636
0.04248159462126244,0.04248159462126244
0.07215342896084825,0.07215342896084825
0.06419269291852035,0.06419269291852035
0.026560122536606636,0.026560122536606636
-0.04219168873804343,-0.04219168873804343
-0.1109435000126935,-0.1109435000126935
-0.18982715715939724,-0.18982715715939724
-0.2484471225619936,-0.2484471225619936
-0.2904219126033589,-0.2904219126033589
-0.2940404289862352,-0.2940404289862352
-0.2969352420925363,-0.2969352420925363
-0.2940404289862352,-0.2940404289862352
-0.30706708796459,-0.30706708796459
-0.2940404289862352,-0.2940404289862352
-0.27811895690157945,-0.27811895690157945
-0.2484471225619936,-0.2484471225619936
-0.24772341928541836,-0.24772341928541836
-0.2484471225619936,-0.2484471225619936
-0.2564078586043215,-0.2564078586043215
-0.2484471225619936,-0.2484471225619936
-0.2527893422214452,-0.2527893422214452
-0.2484471225619936,-0.2484471225619936
-0.23035454064761202,-0.23035454064761202
-0.15653680643693513,-0.15653680643693513
-0.04219168873804343,-0.04219168873804343
0.11847043866166514,0.11847043866166514
0.3088044004009595,0.3088044004009595
0.5765746127338072,0.5765746127338072
0.9615847558718476,0.9615847558718476
1.4935066641546664,1.4935066641546664
2.0949040869887106,2.0949040869887106
2.685445960674126,2.685445960674126
3.203617506702015,3.203617506702015
3.647971318519227,3.647971318519227
3.9099519046394726,3.9099519046394726
3.8310682474927686,3.8310682474927686
3.3121729981883044,3.3121729981883044
2.501625328424009,2.501625328424009
1.6433132424057462,1.6433132424057462
0.9434921739574659,0.9434921739574659
0.4419658032908081,0.4419658032908081
0.11847043866166514,0.11847043866166514
-0.1189042360550214,-0.1189042360550214
-0.34035743868705215,-0.34035743868705215
-0.6001669149775718,-0.6001669149775718
-0.8440549191834358,-0.8440549191834358
-1.014848892455198,-1.014848892455198
-1.0734688578577944,-1.0734688578577944
-1.077811077517246,-1.077811077517246
-1.0734688578577944,-1.0734688578577944
-1.1103777249631328,-1.1103777249631328
-1.165379173982853,-1.165379173982853
-1.229065062321476,-1.229065062321476
-1.2565657868313362,-1.2565657868313362
-1.2681450392565403,-1.2681450392565403
-1.2565657868313362,-1.2565657868313362
-1.2609080064907878,-1.2609080064907878
-1.2565657868313362,-1.2565657868313362
-1.2630791163205135,-1.2630791163205135
-1.2565657868313362,-1.2565657868313362
-1.261631709767363,-1.261631709767363
-1.2565657868313362,-1.2565657868313362
-1.247881347512433,-1.247881347512433
-1.2109724804070945,-1.2109724804070945
-1.1675502838125786,-1.1675502838125786
-1.119062164282036,-1.119062164282036
-1.0930088463253265,-1.0930088463253265
-1.0734688578577944,-1.0734688578577944
-1.0720214513046438,-1.0720214513046438
-1.0734688578577944,-1.0734688578577944
-1.083600703729848,-1.083600703729848
-1.0734688578577944,-1.0734688578577944
-1.0539288693902622,-1.0539288693902622
-1.0278755514335527,-1.0278755514335527
-1.0249807383272518,-1.0249807383272518
-1.0278755514335527,-1.0278755514335527
-1.0343888809227302,-1.0343888809227302
-1.0278755514335527,-1.0278755514335527
-1.0285992547101281,-1.0285992547101281
-1.0278755514335527,-1.0278755514335527
-1.033665177646155,-1.033665177646155
-1.0278755514335527,-1.0278755514335527
-1.0162962990083486,-1.0162962990083486
-0.9815585417327359,-0.9815585417327359
-0.9518867073931501,-0.9518867073931501
-0.9359652353084943,-0.9359652353084943
-0.9439259713508221,-0.9439259713508221
-0.9359652353084943,-0.9359652353084943
-0.9149778402878116,-0.9149778402878116
-0.8903719288842527,-0.8903719288842527
-0.8925430387139784,-0.8925430387139784
-0.8903719288842527,-0.8903719288842527
-0.8744504567995969,-0.8744504567995969
-0.8440549191834358,-0.8440549191834358
-0.838988996247409,-0.838988996247409
-0.8440549191834358,-0.8440549191834358
-0.852739358502339,-0.852739358502339
-0.8440549191834358,-0.8440549191834358
-0.8440549191834358,-0.8440549191834358
-0.8440549191834358,-0.8440549191834358
-0.8505682486726132,-0.8505682486726132
-0.8440549191834358,-0.8440549191834358
-0.8455023257365863,-0.8455023257365863
-0.8440549191834358,-0.8440549191834358
-0.8505682486726132,-0.8505682486726132
-0.8440549191834358,-0.8440549191834358
-0.8440549191834358,-0.8440549191834358
-0.8440549191834358,-0.8440549191834358
-0.8549104683320647,-0.8549104683320647
-0.8440549191834358,-0.8440549191834358
-0.8237912274393284,-0.8237912274393284
-0.7984616127591941,-0.7984616127591941
-0.7977379094826189,-0.7977379094826189
-0.7984616127591941,-0.7984616127591941
-0.8020801291420705,-0.8020801291420705
-0.7984616127591941,-0.7984616127591941
-0.8056986455249467,-0.8056986455249467
-0.7984616127591941,-0.7984616127591941
-0.781816437397963,-0.781816437397963
-0.7528683063349525,-0.7528683063349525
-0.7347757244205709,-0.7347757244205709
-0.7065512966341356,-0.7065512966341356
-0.6819453852305767,-0.6819453852305767
-0.660957990209894,-0.660957990209894
-0.6667476164224961,-0.6667476164224961
-0.660957990209894,-0.660957990209894
-0.6435891115720876,-0.6435891115720876
-0.6153646837856523,-0.6153646837856523
-0.6131935739559266,-0.6131935739559266
-0.6153646837856523,-0.6153646837856523
-0.6211543099982545,-0.6211543099982545
-0.6153646837856523,-0.6153646837856523
-0.6218780132748297,-0.6218780132748297
-0.6153646837856523,-0.6153646837856523
-0.6016143215307224,-0.6016143215307224
-0.5690476740848355,-0.5690476740848355
-0.5502313888938787,-0.5502313888938787
-0.5234543676605938,-0.5234543676605938
-0.4916114234912823,-0.4916114234912823
-0.4315440515355354,-0.4315440515355354
-0.38233222872841743,-0.38233222872841743
-0.34035743868705215,-0.34035743868705215
-0.31140930762404156,-0.31140930762404156
-0.2484471225619936,-0.2484471225619936
-0.16594494903241355,-0.16594494903241355
-0.06535019358845187,-0.06535019358845187
0.019323089770853997,0.019323089770853997
0.11847043866166514,0.11847043866166514
0.22413111704165367,0.22413111704165367
0.3471606740594485,0.3471606740594485
0.45571616554573807,0.45571616554573807
0.5765746127338072,0.5765746127338072
0.7046700926876288,0.7046700926876288
0.8515818578324074,0.8515818578324074
0.9724403050204765,0.9724403050204765
1.080995796506766,1.080995796506766
1.179419442121002,1.179419442121002
1.3096860319045494,1.3096860319045494
1.448637061007,1.448637061007
1.5846932770031497,1.5846932770031497
1.6831169226173857,1.6831169226173857
1.7685139092532667,1.7685139092532667
1.8358183139747661,1.8358183139747661
1.9060175318025667,1.9060175318025667
1.9545056513331096,1.9545056513331096
1.99720414465105,1.99720414465105
2.0095071003528298,2.0095071003528298
1.99720414465105,1.99720414465105
1.950163431673658,1.950163431673658
1.9060175318025667,1.9060175318025667
1.8466738631233952,1.8466738631233952
1.7685139092532667,1.7685139092532667
1.648379165341773,1.648379165341773
1.5390999705789081,1.5390999705789081
1.442847434794398,1.442847434794398
1.3560030416053663,1.3560030416053663
1.237315704247023,1.237315704247023
1.1265891029310078,1.1265891029310078
1.0267180507636213,1.0267180507636213
0.9434921739574659,0.9434921739574659
0.8291470562585742,0.8291470562585742
0.7140782352831073,0.7140782352831073
0.6055227437968177,0.6055227437968177
0.5309813063095655,0.5309813063095655
0.45426875899258756,0.45426875899258756
0.39347768376026543,0.39347768376026543
0.3355814216342443,0.3355814216342443
0.3015673676352069,0.3015673676352069
0.25452665465781477,0.25452665465781477
0.20965705151014838,0.20965705151014838
0.15465560249042834,0.15465560249042834
0.11847043866166514,0.11847043866166514
0.07215342896084825,0.07215342896084825
0.026560122536606636,0.026560122536606636
-0.032783546142565,-0.032783546142565
-0.06535019358845187,-0.06535019358845187
-0.07837685256680663,-0.07837685256680663
-0.06535019358845187,-0.06535019358845187
-0.06607389686502714,-0.06607389686502714
-0.06535019358845187,-0.06535019358845187
-0.0725872263542045,-0.0725872263542045
-0.06535019358845187,-0.06535019358845187
-0.06752130341817766,-0.06752130341817766
-0.06535019358845187,-0.06535019358845187
-0.07186352307762925,-0.07186352307762925
-0.06535019358845187,-0.06535019358845187
-0.0667976001416024,-0.0667976001416024
-0.06535019358845187,-0.06535019358845187
-0.07403463290735504,-0.07403463290735504
-0.06535019358845187,-0.06535019358845187
-0.061731677205575555,-0.061731677205575555
-0.06535019358845187,-0.06535019358845187
-0.09429832465146243,-0.09429832465146243
-0.1109435000126935,-0.1109435000126935
-0.11818053277844613,-0.11818053277844613
-0.1109435000126935,-0.1109435000126935
-0.11818053277844613,-0.11818053277844613
-0.1109435000126935,-0.1109435000126935
-0.09429832465146243,-0.09429832465146243
-0.06535019358845187,-0.06535019358845187
-0.061731677205575555,-0.061731677205575555
-0.06535019358845187,-0.06535019358845187
-0.07331092963077977,-0.07331092963077977
-0.06535019358845187,-0.06535019358845187
-0.0667976001416024,-0.0667976001416024
-0.06535019358845187,-0.06535019358845187
-0.07113981980105398,-0.07113981980105398
-0.06535019358845187,-0.06535019358845187
-0.06824500669475293,-0.06824500669475293
-0.06535019358845187,-0.06535019358845187
-0.06969241324790346,-0.06969241324790346
-0.06535019358845187,-0.06535019358845187
-0.06896870997132819,-0.06896870997132819
-0.06535019358845187,-0.06535019358845187
-0.06969241324790346,-0.06969241324790346
-0.06535019358845187,-0.06535019358845187
-0.06896870997132819,-0.06896870997132819
-0.06535019358845187,-0.06535019358845187
-0.06969241324790346,-0.06969241324790346
-0.06535019358845187,-0.06535019358845187
-0.06969241324790346,-0.06969241324790346
-0.06535019358845187,-0.06535019358845187
-0.06969241324790346,-0.06969241324790346
-0.06535019358845187,-0.06535019358845187
-0.06969241324790346,-0.06969241324790346
-0.06535019358845187,-0.06535019358845187
-0.06969241324790346,-0.06969241324790346
-0.06535019358845187,-0.06535019358845187
-0.06969241324790346,-0.06969241324790346
-0.06535019358845187,-0.06535019358845187
-0.06969241324790346,-0.06969241324790346
-0.06535019358845187,-0.06535019358845187
-0.06969241324790346,-0.06969241324790346
-0.06535019358845187,-0.06535019358845187
-0.06896870997132819,-0.06896870997132819
-0.06535019358845187,-0.06535019358845187
-0.06969241324790346,-0.06969241324790346
-0.06535019358845187,-0.06535019358845187
-0.06896870997132819,-0.06896870997132819
-0.06535019358845187,-0.06535019358845187
-0.06969241324790346,-0.06969241324790346
-0.06535019358845187,-0.06535019358845187
-0.06896870997132819,-0.06896870997132819
-0.06535019358845187,-0.06535019358845187
-0.07041611652447873,-0.07041611652447873
-0.06535019358845187,-0.06535019358845187
-0.06752130341817766,-0.06752130341817766
-0.06535019358845187,-0.06535019358845187
-0.07186352307762925,-0.07186352307762925
-0.06535019358845187,-0.06535019358845187
-0.06390278703530135,-0.06390278703530135
-0.06535019358845187,-0.06535019358845187
-0.09140351154516137,-0.09140351154516137
-0.1109435000126935,-0.1109435000126935
-0.12324645571447299,-0.12324645571447299
-0.1109435000126935,-0.1109435000126935
-0.10877239018296771,-0.10877239018296771
-0.1109435000126935,-0.1109435000126935
-0.12324645571447299,-0.12324645571447299
-0.1109435000126935,-0.1109435000126935
-0.09140351154516137,-0.09140351154516137
-0.06535019358845187,-0.06535019358845187
-0.06390278703530135,-0.06390278703530135
-0.06535019358845187,-0.06535019358845187
-0.07186352307762925,-0.07186352307762925
-0.06535019358845187,-0.06535019358845187
-0.06752130341817766,-0.06752130341817766
-0.06535019358845187,-0.06535019358845187
-0.07041611652447873,-0.07041611652447873
-0.06535019358845187,-0.06535019358845187
-0.06896870997132819,-0.06896870997132819
-0.06535019358845187,-0.06535019358845187
-0.06969241324790346,-0.06969241324790346
-0.06535019358845187,-0.06535019358845187
-0.06896870997132819,-0.06896870997132819
-0.06535019358845187,-0.06535019358845187
-0.06969241324790346,-0.06969241324790346
-0.06535019358845187,-0.06535019358845187
-0.06896870997132819,-0.06896870997132819
-0.06535019358845187,-0.06535019358845187
-0.06969241324790346,-0.06969241324790346
-0.06535019358845187,-0.06535019358845187
-0.06969241324790346,-0.06969241324790346
-0.06535019358845187,-0.06535019358845187
-0.06969241324790346,-0.06969241324790346
-0.06535019358845187,-0.06535019358845187
-0.06969241324790346,-0.06969241324790346
-0.06535019358845187,-0.06535019358845187
-0.06969241324790346,-0.06969241324790346
-0.06535019358845187,-0.06535019358845187
-0.06969241324790346,-0.06969241324790346
-0.06535019358845187,-0.06535019358845187
-0.06969241324790346,-0.06969241324790346
-0.06535019358845187,-0.06535019358845187
-0.06969241324790346,-0.06969241324790346
-0.06535019358845187,-0.06535019358845187
-0.06969241324790346,-0.06969241324790346
-0.06535019358845187,-0.06535019358845187
-0.06969241324790346,-0.06969241324790346
-0.06535019358845187,-0.06535019358845187
-0.06969241324790346,-0.06969241324790346
-0.06535019358845187,-0.06535019358845187
-0.06969241324790346,-0.06969241324790346
-0.06535019358845187,-0.06535019358845187
-0.06969241324790346,-0.06969241324790346
-0.06535019358845187,-0.06535019358845187
-0.06969241324790346,-0.06969241324790346
-0.06535019358845187,-0.06535019358845187
-0.06969241324790346,-0.06969241324790346
-0.06535019358845187,-0.06535019358845187
-0.06896870997132819,-0.06896870997132819
-0.06535019358845187,-0.06535019358845187
-0.06969241324790346,-0.06969241324790346
-0.06535019358845187,-0.06535019358845187
-0.06896870997132819,-0.06896870997132819
-0.06535019358845187,-0.06535019358845187
-0.07041611652447873,-0.07041611652447873
-0.06535019358845187,-0.06535019358845187
-0.06824500669475293,-0.06824500669475293
-0.06535019358845187,-0.06535019358845187
-0.0725872263542045,-0.0725872263542045
-0.06535019358845187,-0.06535019358845187
-0.052323534610097124,-0.052323534610097124
-0.019033183887634985,-0.019033183887634985
0.0055727275159239845,0.0055727275159239845
0.026560122536606636,0.026560122536606636
0.02511271598345611,0.02511271598345611
0.026560122536606636,0.026560122536606636
0.020770496324004524,0.020770496324004524
0.026560122536606636,0.026560122536606636
0.022941606153730316,0.022941606153730316
0.026560122536606636,0.026560122536606636
0.02149419960057979,0.02149419960057979
0.026560122536606636,0.026560122536606636
0.02221790287715505,0.02221790287715505
0.026560122536606636,0.026560122536606636
0.02221790287715505,0.02221790287715505
0.026560122536606636,0.026560122536606636
0.02221790287715505,0.02221790287715505
0.026560122536606636,0.026560122536606636
0.02221790287715505,0.02221790287715505
0.026560122536606636,0.026560122536606636
0.02221790287715505,0.02221790287715505
0.026560122536606636,0.026560122536606636
0.02221790287715505,0.02221790287715505
0.026560122536606636,0.026560122536606636
0.02221790287715505,0.02221790287715505
0.026560122536606636,0.026560122536606636
0.02221790287715505,0.02221790287715505
0.026560122536606636,0.026560122536606636
0.02221790287715505,0.02221790287715505
0.026560122536606636,0.026560122536606636
0.02221790287715505,0.02221790287715505
0.026560122536606636,0.026560122536606636
0.022941606153730316,0.022941606153730316
0.026560122536606636,0.026560122536606636
0.02149419960057979,0.02149419960057979
0.026560122536606636,0.026560122536606636
0.023665309430305582,0.023665309430305582
0.026560122536606636,0.026560122536606636
0.020046793047429262,0.020046793047429262
0.026560122536606636,0.026560122536606636
0.02583641926003137,0.02583641926003137
0.026560122536606636,0.026560122536606636
0.014980870111402414,0.014980870111402414
0.026560122536606636,0.026560122536606636
0.04682381428071402,0.04682381428071402
0.07215342896084825,0.07215342896084825
0.071429725684273,0.071429725684273
0.07215342896084825,0.07215342896084825
0.07070602240769773,0.07070602240769773
0.07215342896084825,0.07215342896084825
0.04754751755728929,0.04754751755728929
0.026560122536606636,0.026560122536606636
0.01425716683482715,0.01425716683482715
0.026560122536606636,0.026560122536606636
0.026560122536606636,0.026560122536606636
0.026560122536606636,0.026560122536606636
0.018599386494278735,0.018599386494278735
0.026560122536606636,0.026560122536606636
0.026560122536606636,0.026560122536606636
0.026560122536606636,0.026560122536606636
0.0041253209627734565,0.0041253209627734565
-0.019033183887634985,-0.019033183887634985
-0.052323534610097124,-0.052323534610097124
-0.06535019358845187,-0.06535019358845187
-0.0725872263542045,-0.0725872263542045
-0.06535019358845187,-0.06535019358845187
-0.06824500669475293,-0.06824500669475293
-0.06535019358845187,-0.06535019358845187
-0.07041611652447873,-0.07041611652447873
-0.06535019358845187,-0.06535019358845187
-0.06824500669475293,-0.06824500669475293
-0.06535019358845187,-0.06535019358845187
-0.07041611652447873,-0.07041611652447873
-0.06535019358845187,-0.06535019358845187
-0.06824500669475293,-0.06824500669475293
-0.06535019358845187,-0.06535019358845187
-0.0725872263542045,-0.0725872263542045
-0.06535019358845187,-0.06535019358845187
-0.052323534610097124,-0.052323534610097124
-0.019033183887634985,-0.019033183887634985
0.00484902423934872,0.00484902423934872
0.026560122536606636,0.026560122536606636
0.02583641926003137,0.02583641926003137
0.026560122536606636,0.026560122536606636
0.020046793047429262,0.020046793047429262
0.026560122536606636,0.026560122536606636
0.024389012706880844,0.024389012706880844
0.026560122536606636,0.026560122536606636
0.019323089770853997,0.019323089770853997
0.026560122536606636,0.026560122536606636
0.02583641926003137,0.02583641926003137
0.026560122536606636,0.026560122536606636
0.014980870111402414,0.014980870111402414
0.026560122536606636,0.026560122536606636
0.04682381428071402,0.04682381428071402
0.07215342896084825,0.07215342896084825
0.071429725684273,0.071429725684273
0.07215342896084825,0.07215342896084825
0.06781120930139667,0.06781120930139667
0.07215342896084825,0.07215342896084825
0.07504824206714932,0.07504824206714932
0.11847043866166514,0.11847043866166514
0.1857748433831647,0.1857748433831647
0.2559740612109653,0.2559740612109653
0.2820273791676748,0.2820273791676748
0.3015673676352069,0.3015673676352069
0.3218310593793143,0.3218310593793143
0.3471606740594485,0.3471606740594485
0.3442658609531475,0.3442658609531475
0.3471606740594485,0.3471606740594485
0.36235844286752905,0.36235844286752905
0.39347768376026543,0.39347768376026543
0.3956487935899912,0.3956487935899912
0.39347768376026543,0.39347768376026543
0.3876880575476633,0.3876880575476633
0.39347768376026543,0.39347768376026543
0.3739376952927333,0.3739376952927333
0.3471606740594485,0.3471606740594485
0.3153177298901369,0.3153177298901369
0.3015673676352069,0.3015673676352069
0.2784088627847984,0.2784088627847984
0.2559740612109653,0.2559740612109653
0.22268371048850313,0.22268371048850313
0.20965705151014838,0.20965705151014838
0.20242001874439575,0.20242001874439575
0.20965705151014838,0.20965705151014838
0.20603853512727208,0.20603853512727208
0.20965705151014838,0.20965705151014838
0.2190651941056268,0.2190651941056268
0.2559740612109653,0.2559740612109653
0.27406664312534684,0.27406664312534684
0.2559740612109653,0.2559740612109653
0.1850511401065894,0.1850511401065894
0.11847043866166514,0.11847043866166514
0.0634689896419451,0.0634689896419451
0.026560122536606636,0.026560122536606636
-0.028441326483113417,-0.028441326483113417
-0.06535019358845187,-0.06535019358845187
-0.08199536894968294,-0.08199536894968294
-0.06535019358845187,-0.06535019358845187
-0.06535019358845187,-0.06535019358845187
-0.06535019358845187,-0.06535019358845187
-0.07548203946050557,-0.07548203946050557
-0.06535019358845187,-0.06535019358845187
-0.06896870997132819,-0.06896870997132819
-0.06535019358845187,-0.06535019358845187
-0.0725872263542045,-0.0725872263542045
-0.06535019358845187,-0.06535019358845187
-0.06896870997132819,-0.06896870997132819
-0.06535019358845187,-0.06535019358845187
-0.061007973929000286,-0.061007973929000286
-0.019033183887634985,-0.019033183887634985
0.051166033940165605,0.051166033940165605
0.16406374508590676,0.16406374508590676
0.3080806971243843,0.3080806971243843
0.5309813063095655,0.5309813063095655
0.8544766709387085,0.8544766709387085
1.3096860319045494,1.3096860319045494
1.8683849614206531,1.8683849614206531
2.501625328424009,2.501625328424009
3.1203916298958596,3.1203916298958596
3.647971318519227,3.647971318519227
3.991730374892477,3.991730374892477
4.106075492591369,4.106075492591369
3.9063333882565963,3.9063333882565963
3.3729640734206265,3.3729640734206265
2.5826800954004385,2.5826800954004385
1.7685139092532667,1.7685139092532667
1.1092202242932014,1.1092202242932014
0.6684849288588657,0.6684849288588657
0.359463629761228,0.359463629761228
0.11847043866166514,0.11847043866166514
-0.11456201639556982,-0.11456201639556982
-0.34035743868705215,-0.34035743868705215
-0.5589158282127819,-0.5589158282127819
-0.7065512966341356,-0.7065512966341356
-0.7658949653133073,-0.7658949653133073
-0.7528683063349525,-0.7528683063349525
-0.7572105259944041,-0.7572105259944041
-0.7984616127591941,-0.7984616127591941
-0.8643186109275431,-0.8643186109275431
-0.8903719288842527,-0.8903719288842527
-0.907740807522059,-0.907740807522059
-0.9359652353084943,-0.9359652353084943
-1.001098530200268,-1.001098530200268
-1.0278755514335527,-1.0278755514335527
-1.0162962990083486,-1.0162962990083486
-0.9815585417327359,-0.9815585417327359
-0.9837296515624617,-0.9837296515624617
-0.9815585417327359,-0.9815585417327359
-0.9649133663715048,-0.9649133663715048
-0.9359652353084943,-0.9359652353084943
-0.9381363451382201,-0.9381363451382201
-0.9359652353084943,-0.9359652353084943
-0.9193200599472632,-0.9193200599472632
-0.8903719288842527,-0.8903719288842527
-0.8903719288842527,-0.8903719288842527
-0.8903719288842527,-0.8903719288842527
-0.8758978633527473,-0.8758978633527473
-0.8440549191834358,-0.8440549191834358
-0.838988996247409,-0.838988996247409
-0.8440549191834358,-0.8440549191834358
-0.8520156552257636,-0.8520156552257636
-0.8440549191834358,-0.8440549191834358
-0.8462260290131616,-0.8462260290131616
-0.8440549191834358,-0.8440549191834358
-0.8469497322897368,-0.8469497322897368
-0.8440549191834358,-0.8440549191834358
-0.852739358502339,-0.852739358502339
-0.8440549191834358,-0.8440549191834358
-0.8259623372690542,-0.8259623372690542
-0.7984616127591941,-0.7984616127591941
-0.7948430963763178,-0.7948430963763178
-0.7984616127591941,-0.7984616127591941
-0.8071460520780973,-0.8071460520780973
-0.7984616127591941,-0.7984616127591941
-0.7847112505042642,-0.7847112505042642
-0.7528683063349525,-0.7528683063349525
-0.726814988378243,-0.726814988378243
-0.7065512966341356,-0.7065512966341356
-0.7108935162935872,-0.7108935162935872
-0.7065512966341356,-0.7065512966341356
-0.6920772311026303,-0.6920772311026303
-0.660957990209894,-0.660957990209894
-0.6529972541675662,-0.6529972541675662
-0.660957990209894,-0.660957990209894
-0.6768794622945499,-0.6768794622945499
-0.660957990209894,-0.660957990209894
-0.6356283755297598,-0.6356283755297598
-0.6153646837856523,-0.6153646837856523
-0.6211543099982545,-0.6211543099982545
-0.6153646837856523,-0.6153646837856523
-0.5972721018712708,-0.5972721018712708
-0.5690476740848355,-0.5690476740848355
-0.5683239708082602,-0.5683239708082602
-0.5690476740848355,-0.5690476740848355
-0.5603632347659323,-0.5603632347659323
-0.5234543676605938,-0.5234543676605938
-0.4945062365975833,-0.4945062365975833
-0.47786106123635225,-0.47786106123635225
-0.4814795776192286,-0.4814795776192286
-0.47786106123635225,-0.47786106123635225
-0.48003217106607804,-0.48003217106607804
-0.47786106123635225,-0.47786106123635225
-0.4843743907255296,-0.4843743907255296
-0.47786106123635225,-0.47786106123635225
-0.47568995140662645,-0.47568995140662645
-0.47786106123635225,-0.47786106123635225
-0.5039143791930618,-0.5039143791930618
-0.5234543676605938,-0.5234543676605938
-0.5335862135326476,-0.5335862135326476
-0.5234543676605938,-0.5234543676605938
-0.5241780709371692,-0.5241780709371692
-0.5234543676605938,-0.5234543676605938
-0.5299676971497712,-0.5299676971497712
-0.5234543676605938,-0.5234543676605938
-0.526349180766895,-0.526349180766895
-0.5234543676605938,-0.5234543676605938
-0.5299676971497712,-0.5299676971497712
-0.5234543676605938,-0.5234543676605938
-0.5133225217885402,-0.5133225217885402
-0.47786106123635225,-0.47786106123635225
-0.4510840400030675,-0.4510840400030675
-0.4315440515355354,-0.4315440515355354
-0.4279255351526591,-0.4279255351526591
-0.38595074511129374,-0.38595074511129374
-0.32009374694294473,-0.32009374694294473
-0.2484471225619936,-0.2484471225619936
-0.22311750788185938,-0.22311750788185938
-0.202853816137752,-0.202853816137752
-0.16015532281981143,-0.16015532281981143
-0.06535019358845187,-0.06535019358845187
0.030178638919482956,0.030178638919482956
0.11847043866166514,0.11847043866166514
0.19301187614891732,0.19301187614891732
0.3015673676352069,0.3015673676352069
0.4173598918872491,0.4173598918872491
0.5309813063095655,0.5309813063095655
0.6127597765625703,0.6127597765625703
0.7140782352831073,0.7140782352831073
0.8385551988540527,0.8385551988540527
0.9890854803817075,0.9890854803817075
1.110667630846352,1.110667630846352
1.2184994190560663,1.2184994190560663
1.3190941745000277,1.3190941745000277
1.4471896544538496,1.4471896544538496
1.5673243983653433,1.5673243983653433
1.6766035931282082,1.6766035931282082
1.7620005797640894,1.7620005797640894
1.85970052210175,1.85970052210175
1.9545056513331096,1.9545056513331096
2.043521154351867,2.043521154351867
2.0949040869887106,2.0949040869887106
2.13470776720035,2.13470776720035
2.158589975327334,2.158589975327334
2.1810247769011673,2.1810247769011673
2.1679981179228123,2.1679981179228123
2.13470776720035,2.13470776720035
2.0702981755851515,2.0702981755851515
1.99720414465105,1.99720414465105
1.9023990154196906,1.9023990154196906
1.8141072156775082,1.8141072156775082
1.7193020864461488,1.7193020864461488
1.6310102867039666,1.6310102867039666
1.5181125755582254,1.5181125755582254
1.4015963480296079,1.4015963480296079
1.2756719779055121,1.2756719779055121
1.1721824093552493,1.1721824093552493
1.073035060464438,1.073035060464438
0.9890854803817075,0.9890854803817075
0.8921092413206222,0.8921092413206222
0.8059885514081658,0.8059885514081658
0.7220389713254352,0.7220389713254352
0.6684849288588657,0.6684849288588657
0.6055227437968177,0.6055227437968177
0.5309813063095655,0.5309813063095655
0.42532062792957703,0.42532062792957703
0.3471606740594485,0.3471606740594485
0.3037384774649327,0.3037384774649327
0.3015673676352069,0.3015673676352069
0.28275108244425,0.28275108244425
0.2559740612109653,0.2559740612109653
0.21834149082905155,0.21834149082905155
0.20965705151014838,0.20965705151014838
0.20676223840384733,0.20676223840384733
0.20965705151014838,0.20965705151014838
0.1872222499363152,0.1872222499363152
0.16406374508590676,0.16406374508590676
0.13294450419317042,0.13294450419317042
0.11847043866166514,0.11847043866166514
0.09386452725810618,0.09386452725810618
0.07215342896084825,0.07215342896084825
0.03958678151496139,0.03958678151496139
0.026560122536606636,0.026560122536606636
0.019323089770853997,0.019323089770853997
0.026560122536606636,0.026560122536606636
0.02221790287715505,0.02221790287715505
0.026560122536606636,0.026560122536606636
0.024389012706880844,0.024389012706880844
0.026560122536606636,0.026560122536606636
0.0055727275159239845,0.0055727275159239845
-0.019033183887634985,-0.019033183887634985
-0.053047237886672385,-0.053047237886672385
-0.06535019358845187,-0.06535019358845187
-0.07186352307762925,-0.07186352307762925
-0.06535019358845187,-0.06535019358845187
-0.06896870997132819,-0.06896870997132819
-0.06535019358845187,-0.06535019358845187
-0.06969241324790346,-0.06969241324790346
-0.06535019358845187,-0.06535019358845187
-0.06969241324790346,-0.06969241324790346
-0.06535019358845187,-0.06535019358845187
-0.06824500669475293,-0.06824500669475293
-0.06535019358845187,-0.06535019358845187
-0.07113981980105398,-0.07113981980105398
-0.06535019358845187,-0.06535019358845187
-0.0667976001416024,-0.0667976001416024
-0.06535019358845187,-0.06535019358845187
-0.07548203946050557,-0.07548203946050557
-0.06535019358845187,-0.06535019358845187
-0.04798131495064554,-0.04798131495064554
-0.019033183887634985,-0.019033183887634985
-0.003111711802979182,-0.003111711802979182
0.026560122536606636,0.026560122536606636
0.052613440493316135,0.052613440493316135
0.07215342896084825,0.07215342896084825
0.052613440493316135,0.052613440493316135
0.026560122536606636,0.026560122536606636
0.009914947175375567,0.009914947175375567
0.026560122536606636,0.026560122536606636
0.03379715530235927,0.03379715530235927
0.026560122536606636,0.026560122536606636
-0.00455911835612971,-0.00455911835612971
-0.019033183887634985,-0.019033183887634985
-0.026270216653387624,-0.026270216653387624
-0.019033183887634985,-0.019033183887634985
-0.024822810100237097,-0.024822810100237097
-0.019033183887634985,-0.019033183887634985
-0.018309480611059723,-0.018309480611059723
-0.019033183887634985,-0.019033183887634985
-0.045810205120919746,-0.045810205120919746
-0.06535019358845187,-0.06535019358845187
-0.07620574273708083,-0.07620574273708083
-0.06535019358845187,-0.06535019358845187
-0.06607389686502714,-0.06607389686502714
-0.06535019358845187,-0.06535019358845187
-0.07113981980105398,-0.07113981980105398
-0.06535019358845187,-0.06535019358845187
-0.06824500669475293,-0.06824500669475293
-0.06535019358845187,-0.06535019358845187
-0.06969241324790346,-0.06969241324790346
-0.06535019358845187,-0.06535019358845187
-0.06969241324790346,-0.06969241324790346
-0.06535019358845187,-0.06535019358845187
-0.06824500669475293,-0.06824500669475293
-0.06535019358845187,-0.06535019358845187
-0.0725872263542045,-0.0725872263542045
-0.06535019358845187,-0.06535019358845187
-0.052323534610097124,-0.052323534610097124
-0.019033183887634985,-0.019033183887634985
0.00484902423934872,0.00484902423934872
0.026560122536606636,0.026560122536606636
0.02583641926003137,0.02583641926003137
0.026560122536606636,0.026560122536606636
0.019323089770853997,0.019323089770853997
0.026560122536606636,0.026560122536606636
0.026560122536606636,0.026560122536606636
0.026560122536606636,0.026560122536606636
0.003401617686198193,0.003401617686198193
-0.019033183887634985,-0.019033183887634985
-0.03712576580201658,-0.03712576580201658
-0.019033183887634985,-0.019033183887634985
0.0055727275159239845,0.0055727275159239845
0.026560122536606636,0.026560122536606636
0.020770496324004524,0.020770496324004524
0.026560122536606636,0.026560122536606636
0.043205297897837704,0.043205297897837704
0.07215342896084825,0.07215342896084825
0.07504824206714932,0.07504824206714932
0.07215342896084825,0.07215342896084825
0.06419269291852035,0.06419269291852035
0.07215342896084825,0.07215342896084825
0.07070602240769773,0.07070602240769773
0.07215342896084825,0.07215342896084825
0.06636380274824615,0.06636380274824615
0.07215342896084825,0.07215342896084825
0.06853491257797194,0.06853491257797194
0.07215342896084825,0.07215342896084825
0.06781120930139667,0.06781120930139667
0.07215342896084825,0.07215342896084825
0.06781120930139667,0.06781120930139667
0.07215342896084825,0.07215342896084825
0.06853491257797194,0.06853491257797194
0.07215342896084825,0.07215342896084825
0.06708750602482141,0.06708750602482141
0.07215342896084825,0.07215342896084825
0.06998231913112246,0.06998231913112246
0.07215342896084825,0.07215342896084825
0.06491639619509562,0.06491639619509562
0.07215342896084825,0.07215342896084825
0.07432453879057405,0.07432453879057405
0.07215342896084825,0.07215342896084825
0.045376407727563496,0.045376407727563496
0.026560122536606636,0.026560122536606636
0.015704573387977677,0.015704573387977677
0.026560122536606636,0.026560122536606636
0.02583641926003137,0.02583641926003137
0.026560122536606636,0.026560122536606636
0.020046793047429262,0.020046793047429262
0.026560122536606636,0.026560122536606636
0.024389012706880844,0.024389012706880844
0.026560122536606636,0.026560122536606636
0.020046793047429262,0.020046793047429262
0.026560122536606636,0.026560122536606636
0.024389012706880844,0.024389012706880844
0.026560122536606636,0.026560122536606636
0.019323089770853997,0.019323089770853997
0.026560122536606636,0.026560122536606636
0.028007529089757163,0.028007529089757163
0.026560122536606636,0.026560122536606636
0.0005068045798971374,0.0005068045798971374
-0.019033183887634985,-0.019033183887634985
-0.031336139589414475,-0.031336139589414475
-0.019033183887634985,-0.019033183887634985
-0.017585777334484458,-0.017585777334484458
-0.019033183887634985,-0.019033183887634985
-0.03061243631283921,-0.03061243631283921
-0.019033183887634985,-0.019033183887634985
-0.0009406019732533903,-0.0009406019732533903
0.026560122536606636,0.026560122536606636
0.030178638919482956,0.030178638919482956
0.026560122536606636,0.026560122536606636
0.015704573387977677,0.015704573387977677
0.026560122536606636,0.026560122536606636
0.030902342196058218,0.030902342196058218
0.026560122536606636,0.026560122536606636
-0.0038354150795544455,-0.0038354150795544455
-0.019033183887634985,-0.019033183887634985
-0.024822810100237097,-0.024822810100237097
-0.019033183887634985,-0.019033183887634985
-0.0407442821848929,-0.0407442821848929
-0.06535019358845187,-0.06535019358845187
-0.08344277550283347,-0.08344277550283347
-0.06535019358845187,-0.06535019358845187
-0.04219168873804343,-0.04219168873804343
-0.019033183887634985,-0.019033183887634985
-0.020480590440785516,-0.020480590440785516
-0.019033183887634985,-0.019033183887634985
-0.024822810100237097,-0.024822810100237097
-0.019033183887634985,-0.019033183887634985
-0.02337540354708657,-0.02337540354708657
-0.019033183887634985,-0.019033183887634985
-0.02337540354708657,-0.02337540354708657
-0.019033183887634985,-0.019033183887634985
-0.024099106823661832,-0.024099106823661832
-0.019033183887634985,-0.019033183887634985
-0.021927996993936043,-0.021927996993936043
-0.019033183887634985,-0.019033183887634985
-0.02771762320653815,-0.02771762320653815
-0.019033183887634985,-0.019033183887634985
-0.0038354150795544455,-0.0038354150795544455
0.026560122536606636,0.026560122536606636
0.03379715530235927,0.03379715530235927
0.026560122536606636,0.026560122536606636
-0.002388008526403918,-0.002388008526403918
-0.019033183887634985,-0.019033183887634985
-0.029888733036263944,-0.029888733036263944
-0.019033183887634985,-0.019033183887634985
-0.018309480611059723,-0.018309480611059723
-0.019033183887634985,-0.019033183887634985
-0.03061243631283921,-0.03061243631283921
-0.019033183887634985,-0.019033183887634985
-0.0002168986966781265,-0.0002168986966781265
0.026560122536606636,0.026560122536606636
0.028007529089757163,0.028007529089757163
0.026560122536606636,0.026560122536606636
0.019323089770853997,0.019323089770853997
0.026560122536606636,0.026560122536606636
0.024389012706880844,0.024389012706880844
0.026560122536606636,0.026560122536606636
0.020046793047429262,0.020046793047429262
0.026560122536606636,0.026560122536606636
0.02583641926003137,0.02583641926003137
0.026560122536606636,0.026560122536606636
0.00484902423934872,0.00484902423934872
-0.019033183887634985,-0.019033183887634985
-0.052323534610097124,-0.052323534610097124
-0.06535019358845187,-0.06535019358845187
-0.0725872263542045,-0.0725872263542045
-0.06535019358845187,-0.06535019358845187
-0.06824500669475293,-0.06824500669475293
-0.06535019358845187,-0.06535019358845187
-0.07041611652447873,-0.07041611652447873
-0.06535019358845187,-0.06535019358845187
-0.06896870997132819,-0.06896870997132819
-0.06535019358845187,-0.06535019358845187
-0.06969241324790346,-0.06969241324790346
-0.06535019358845187,-0.06535019358845187
-0.06969241324790346,-0.06969241324790346
-0.06535019358845187,-0.06535019358845187
-0.06896870997132819,-0.06896870997132819
-0.06535019358845187,-0.06535019358845187
-0.07041611652447873,-0.07041611652447873
-0.06535019358845187,-0.06535019358845187
-0.06824500669475293,-0.06824500669475293
-0.06535019358845187,-0.06535019358845187
-0.07113981980105398,-0.07113981980105398
-0.06535019358845187,-0.06535019358845187
-0.06607389686502714,-0.06607389686502714
-0.06535019358845187,-0.06535019358845187
-0.07692944601365609,-0.07692944601365609
-0.06535019358845187,-0.06535019358845187
-0.03350724941914026,-0.03350724941914026
0.026560122536606636,0.026560122536606636
0.07504824206714932,0.07504824206714932
0.11847043866166514,0.11847043866166514
0.1394578336823478,0.1394578336823478
0.16406374508590676,0.16406374508590676
0.1814326237237131,0.1814326237237131
0.20965705151014838,0.20965705151014838
0.2197888973822021,0.2197888973822021
0.20965705151014838,0.20965705151014838
0.16261633853275623,0.16261633853275623
0.11847043866166514,0.11847043866166514
0.08373268138605248,0.08373268138605248
0.07215342896084825,0.07215342896084825
0.04899492411043981,0.04899492411043981
0.026560122536606636,0.026560122536606636
0.00846754062222504,0.00846754062222504
0.026560122536606636,0.026560122536606636
0.052613440493316135,0.052613440493316135
0.07215342896084825,0.07215342896084825
0.05406084704646666,0.05406084704646666
0.026560122536606636,0.026560122536606636
-0.006006524909280237,-0.006006524909280237
-0.019033183887634985,-0.019033183887634985
-0.04291539201461869,-0.04291539201461869
-0.06535019358845187,-0.06535019358845187
-0.08561388533255926,-0.08561388533255926
-0.06535019358845187,-0.06535019358845187
-0.026270216653387624,-0.026270216653387624
0.026560122536606636,0.026560122536606636
0.06708750602482141,0.06708750602482141
0.11847043866166514,0.11847043866166514
0.14307635006522412,0.14307635006522412
0.11847043866166514,0.11847043866166514
0.022941606153730316,0.022941606153730316
-0.06535019358845187,-0.06535019358845187
-0.11166720328926875,-0.11166720328926875
-0.1109435000126935,-0.1109435000126935
-0.13048348848022562,-0.13048348848022562
-0.15653680643693513,-0.15653680643693513
-0.17969531128734356,-0.17969531128734356
-0.15653680643693513,-0.15653680643693513
-0.13337830158652667,-0.13337830158652667
-0.1109435000126935,-0.1109435000126935
-0.11600942294872034,-0.11600942294872034
-0.1109435000126935,-0.1109435000126935
-0.11311460984241929,-0.11311460984241929
-0.1109435000126935,-0.1109435000126935
-0.12179904916132245,-0.12179904916132245
-0.1109435000126935,-0.1109435000126935
-0.08199536894968294,-0.08199536894968294
-0.019033183887634985,-0.019033183887634985
0.06419269291852035,0.06419269291852035
0.20965705151014838,0.20965705151014838
0.42025470499355017,0.42025470499355017
0.7140782352831073,0.7140782352831073
1.0904039391022444,1.0904039391022444
1.5846932770031497,1.5846932770031497
2.152800349114732,2.152800349114732
2.7310392670983674,2.7310392670983674
3.2484871098496813,3.2484871098496813
3.6935646249434684,3.6935646249434684
3.9562689143402894,3.9562689143402894
3.8766615539170104,3.8766615539170104
3.354871491506245,3.354871491506245
2.547942338124826,2.547942338124826
1.7077228340209445,1.7077228340209445
1.0346787868059493,1.0346787868059493
0.5454553718410708,0.5454553718410708
0.20965705151014838,0.20965705151014838
-0.04146798546146817,-0.04146798546146817
-0.2484471225619936,-0.2484471225619936
-0.4626632924282717,-0.4626632924282717
-0.660957990209894,-0.660957990209894
-0.8180016012267263,-0.8180016012267263
-0.8903719288842527,-0.8903719288842527
-0.9062934009689084,-0.9062934009689084
-0.8903719288842527,-0.8903719288842527
-0.9005037747563064,-0.9005037747563064
-0.9359652353084943,-0.9359652353084943
-0.9960326072642411,-0.9960326072642411
-1.0278755514335527,-1.0278755514335527
