ECG,PPG
-1.3177160187752055,-1.3177160187752055
-0.36071856060029195,-0.36071856060029195
-1.150918004214128,-1.150918004214128
-1.5499539623528709,-1.5499539623528709
-1.0677650117043282,-1.0677650117043282
-0.7917364389351116,-0.7917364389351116
-1.0677650117043282,-1.0677650117043282
-1.2508000011341833,-1.2508000011341833
-1.0677650117043282,-1.0677650117043282
-0.9550902467058424,-0.9550902467058424
-1.0677650117043282,-1.0677650117043282
-1.146981767882303,-1.146981767882303
-1.0677650117043282,-1.0677650117043282
-1.0224982938883427,-1.0224982938883427
-1.0677650117043282,-1.0677650117043282
-1.109095493188489,-1.109095493188489
-1.0677650117043282,-1.0677650117043282
-0.9939605804826126,-0.9939605804826126
-0.9004749676017728,-0.9004749676017728
-0.8138777683016264,-0.8138777683016264
-0.7336769530406952,-0.7336769530406952
-0.6908703829321002,-0.6908703829321002
-0.6505239605308956,-0.6505239605308956
-0.6303507493302933,-0.6303507493302933
-0.5668789384796178,-0.5668789384796178
-0.4660128824766064,-0.4660128824766064
-0.31643590186726256,-0.31643590186726256
-0.21114157999094815,-0.21114157999094815
-0.14963788730618507,-0.14963788730618507
-0.1294646761055828,-0.1294646761055828
-0.06599286525490729,-0.06599286525490729
-0.006457290736056628,-0.006457290736056628
0.017160127254892396,0.017160127254892396
-0.039915299556567745,-0.039915299556567745
-0.06599286525490729,-0.06599286525490729
-0.021218176980399767,-0.021218176980399767
0.10080514930617018,0.10080514930617018
0.19232264402109764,0.19232264402109764
0.26760316386724764,0.26760316386724764
0.3335351224253137,0.3335351224253137
0.43440117842832515,0.43440117842832515
0.4963969006545663,0.4963969006545663
0.5180462004796029,0.5180462004796029
0.49344472340569767,0.49344472340569767
0.5180462004796029,0.5180462004796029
0.584470188579147,0.584470188579147
0.6848442150406804,0.6848442150406804
0.7153500466123229,0.7153500466123229
0.6848442150406804,0.6848442150406804
0.6115318133604428,0.6115318133604428
0.6011991929894026,0.6011991929894026
0.6336731427269575,0.6336731427269575
0.6848442150406804,0.6848442150406804
0.6617188265912095,0.6617188265912095
0.6011991929894026,0.6011991929894026
0.527394761767687,0.527394761767687
0.5180462004796029,0.5180462004796029
0.5200143186455153,0.5200143186455153
0.5180462004796029,0.5180462004796029
0.46539903954144574,0.46539903954144574
0.43440117842832515,0.43440117842832515
0.4181642035595477,0.4181642035595477
0.43440117842832515,0.43440117842832515
0.42603667622319735,0.42603667622319735
0.43440117842832515,0.43440117842832515
0.43046494209650027,0.43046494209650027
0.43440117842832515,0.43440117842832515
0.41275187860328855,0.41275187860328855
0.43440117842832515,0.43440117842832515
0.47179542358066107,0.47179542358066107
0.5180462004796029,0.5180462004796029
0.5111577868989094,0.5111577868989094
0.5180462004796029,0.5180462004796029
0.5205063481869935,0.5205063481869935
0.5180462004796029,0.5180462004796029
0.45851062596075226,0.45851062596075226
0.43440117842832515,0.43440117842832515
0.4540823600874493,0.4540823600874493
0.5180462004796029,0.5180462004796029
0.5490440615927236,0.5490440615927236
0.6011991929894026,0.6011991929894026
0.6518782357616474,0.6518782357616474
0.6848442150406804,0.6848442150406804
0.6356412608928699,0.6356412608928699
0.6011991929894026,0.6011991929894026
0.6159600792337457,0.6159600792337457
0.6848442150406804,0.6848442150406804
0.6986210422020673,0.6986210422020673
0.6848442150406804,0.6848442150406804
0.6617188265912095,0.6617188265912095
0.6848442150406804,0.6848442150406804
0.687796392289549,0.687796392289549
0.6848442150406804,0.6848442150406804
0.6636869447571219,0.6636869447571219
0.6848442150406804,0.6848442150406804
0.6956688649531987,0.6956688649531987
0.6848442150406804,0.6848442150406804
0.6016912225308807,0.6016912225308807
0.5180462004796029,0.5180462004796029
0.4467019169652777,0.4467019169652777
0.43440117842832515,0.43440117842832515
0.4270207353061536,0.4270207353061536
0.43440117842832515,0.43440117842832515
0.39995911052485783,0.39995911052485783
0.35124818591852547,0.35124818591852547
0.28039593194567836,0.28039593194567836
0.26760316386724764,0.26760316386724764
0.2720314297405506,0.2720314297405506
0.26760316386724764,0.26760316386724764
0.18199002365005745,0.18199002365005745
0.10080514930617018,0.10080514930617018
0.06193481552939992,0.06193481552939992
0.10080514930617018,0.10080514930617018
0.11458197646755712,0.11458197646755712
0.10080514930617018,0.10080514930617018
0.06587105186122476,0.06587105186122476
0.10080514930617018,0.10080514930617018
0.15246825116137117,0.15246825116137117
0.18395814181596987,0.18395814181596987
0.13573924675111562,0.13573924675111562
0.10080514930617018,0.10080514930617018
0.10966168105277607,0.10966168105277607
0.18395814181596987,0.18395814181596987
0.23168500733934602,0.23168500733934602
0.26760316386724764,0.26760316386724764
0.2897444932337624,0.2897444932337624
0.35124818591852547,0.35124818591852547
0.3970069332759892,0.3970069332759892
0.43440117842832515,0.43440117842832515
0.4294808830135441,0.4294808830135441
0.43440117842832515,0.43440117842832515
0.4299729125550222,0.4299729125550222
0.43440117842832515,0.43440117842832515
0.3748656039094745,0.3748656039094745
0.26760316386724764,0.26760316386724764
0.13869142399998424,0.13869142399998424
0.10080514930617018,0.10080514930617018
0.10867762196981985,0.10867762196981985
0.10080514930617018,0.10080514930617018
0.005351418259417883,0.005351418259417883
-0.06599286525490729,-0.06599286525490729
-0.08518201737255338,-0.08518201737255338
-0.06599286525490729,-0.06599286525490729
-0.10830740582202429,-0.10830740582202429
-0.14963788730618507,-0.14963788730618507
-0.16981109850678736,-0.16981109850678736
-0.14963788730618507,-0.14963788730618507
-0.16144659630165958,-0.16144659630165958
-0.14963788730618507,-0.14963788730618507
-0.11864002619306449,-0.11864002619306449
-0.06599286525490729,-0.06599286525490729
-0.0669769243378635,-0.0669769243378635
-0.06599286525490729,-0.06599286525490729
-0.07091316066968834,-0.07091316066968834
-0.06599286525490729,-0.06599286525490729
-0.09305449003620304,-0.09305449003620304
-0.06599286525490729,-0.06599286525490729
0.007811565966808406,0.007811565966808406
0.10080514930617018,0.10080514930617018
0.11113776967721038,0.11113776967721038
0.10080514930617018,0.10080514930617018
0.11015371059425418,0.11015371059425418
0.18395814181596987,0.18395814181596987
0.23660530275412706,0.23660530275412706
0.26760316386724764,0.26760316386724764
0.259730691203598,0.259730691203598
0.26760316386724764,0.26760316386724764
0.2612067798280323,0.2612067798280323
0.26760316386724764,0.26760316386724764
0.25776257303768557,0.25776257303768557
0.26760316386724764,0.26760316386724764
0.2612067798280323,0.2612067798280323
0.26760316386724764,0.26760316386724764
0.25628648441325125,0.25628648441325125
0.26760316386724764,0.26760316386724764
0.2656350457013352,0.2656350457013352
0.26760316386724764,0.26760316386724764
0.22725674146604308,0.22725674146604308
0.18395814181596987,0.18395814181596987
0.12688271500450973,0.12688271500450973
0.10080514930617018,0.10080514930617018
0.05799857919757508,0.05799857919757508
0.017160127254892396,0.017160127254892396
-0.04483559497134879,-0.04483559497134879
-0.06599286525490729,-0.06599286525490729
-0.07583345608446938,-0.07583345608446938
-0.06599286525490729,-0.06599286525490729
-0.08075375149925043,-0.08075375149925043
-0.06599286525490729,-0.06599286525490729
-0.06156459938160435,-0.06156459938160435
-0.06599286525490729,-0.06599286525490729
-0.10141899224133083,-0.10141899224133083
-0.06599286525490729,-0.06599286525490729
0.017160127254892396,0.017160127254892396
0.10080514930617018,0.10080514930617018
0.10031311976469208,0.10031311976469208
0.10080514930617018,0.10080514930617018
0.10375732655503882,0.10375732655503882
0.10080514930617018,0.10080514930617018
0.05750654965609697,0.05750654965609697
0.10080514930617018,0.10080514930617018
0.2060994711824846,0.2060994711824846
0.26760316386724764,0.26760316386724764
0.17313349190345156,0.17313349190345156
0.10080514930617018,0.10080514930617018
0.14164360124885286,0.14164360124885286
0.26760316386724764,0.26760316386724764
0.29122058185819666,0.29122058185819666
0.26760316386724764,0.26760316386724764
0.24595386404221106,0.24595386404221106
0.26760316386724764,0.26760316386724764
0.24939807083255777,0.24939807083255777
0.26760316386724764,0.26760316386724764
0.335011211049748,0.335011211049748
0.43440117842832515,0.43440117842832515
0.4511301828385807,0.4511301828385807
0.43440117842832515,0.43440117842832515
0.41570405585215714,0.41570405585215714
0.43440117842832515,0.43440117842832515
0.452606271463015,0.452606271463015
0.6011991929894026,0.6011991929894026
1.0376293962804815,1.0376293962804815
1.9365673685609786,1.9365673685609786
3.2138760582381383,3.2138760582381383
4.606811690162653,4.606811690162653
5.646470111305888,5.646470111305888
6.025332858244028,6.025332858244028
5.682388267833789,5.682388267833789
4.940407719284807,4.940407719284807
4.154144512002796,4.154144512002796
3.5218865512034316,3.5218865512034316
2.8596147883739027,2.8596147883739027
2.019720361070778,2.019720361070778
1.1188142706243687,1.1188142706243687
0.5180462004796029,0.5180462004796029
0.21249585522169995,0.21249585522169995
-0.06599286525490729,-0.06599286525490729
-0.422222253285055,-0.422222253285055
-0.48323391642834,-0.48323391642834
-0.12602046931523606,-0.12602046931523606
0.26760316386724764,0.26760316386724764
0.21397194384613424,0.21397194384613424
-0.14963788730618507,-0.14963788730618507
-0.47585347330616845,-0.47585347330616845
-0.6505239605308956,-0.6505239605308956
-0.8645568110738712,-0.8645568110738712
-1.0677650117043282,-1.0677650117043282
-1.1671549790829054,-1.1671549790829054
-1.150918004214128,-1.150918004214128
-1.1912644266153325,-1.1912644266153325
-1.2345630262654057,-1.2345630262654057
-1.2271825831432341,-1.2271825831432341
-1.150918004214128,-1.150918004214128
-1.1164759363106607,-1.1164759363106607
-1.0677650117043282,-1.0677650117043282
-0.9910084032337441,-0.9910084032337441
-0.9004749676017728,-0.9004749676017728
-0.8916184358551669,-0.8916184358551669
-0.9004749676017728,-0.9004749676017728
-0.8837459631915172,-0.8837459631915172
-0.817321975091973,-0.817321975091973
-0.7971487638913708,-0.7971487638913708
-0.817321975091973,-0.817321975091973
-0.8719372541960427,-0.8719372541960427
-0.9004749676017728,-0.9004749676017728
-0.9427895081688897,-0.9427895081688897
-0.9841199896530506,-0.9841199896530506
-1.0411954164645107,-1.0411954164645107
-1.0677650117043282,-1.0677650117043282
-1.104667227315186,-1.104667227315186
-1.150918004214128,-1.150918004214128
-1.221278228645497,-1.221278228645497
-1.2345630262654057,-1.2345630262654057
-1.202089076527851,-1.202089076527851
-1.150918004214128,-1.150918004214128
-1.174043392663599,-1.174043392663599
-1.2345630262654057,-1.2345630262654057
-1.3034471620723405,-1.3034471620723405
-1.3177160187752055,-1.3177160187752055
-1.325096461897377,-1.325096461897377
-1.3177160187752055,-1.3177160187752055
-1.3280486391462456,-1.3280486391462456
-1.3177160187752055,-1.3177160187752055
-1.3221442846485085,-1.3221442846485085
-1.3177160187752055,-1.3177160187752055
-1.3324769050195486,-1.3324769050195486
-1.3177160187752055,-1.3177160187752055
-1.2955746894086908,-1.2955746894086908
-1.2345630262654057,-1.2345630262654057
-1.1681390381658616,-1.1681390381658616
-1.0677650117043282,-1.0677650117043282
-0.98165984194566,-0.98165984194566
-0.9004749676017728,-0.9004749676017728
-0.8419234521658783,-0.8419234521658783
-0.7336769530406952,-0.7336769530406952
-0.6077173904223006,-0.6077173904223006
-0.48323391642834,-0.48323391642834
-0.41287369199697105,-0.41287369199697105
-0.31643590186726256,-0.31643590186726256
-0.19539663466364882,-0.19539663466364882
-0.06599286525490729,-0.06599286525490729
-0.013345704316750093,-0.013345704316750093
0.017160127254892396,0.017160127254892396
0.04422175203618815,0.04422175203618815
0.10080514930617018,0.10080514930617018
0.1342631581266813,0.1342631581266813
0.18395814181596987,0.18395814181596987
0.22676471192456496,0.22676471192456496
0.26760316386724764,0.26760316386724764
0.25874663212064175,0.25874663212064175
0.26760316386724764,0.26760316386724764
0.2966329068144558,0.2966329068144558
0.35124818591852547,0.35124818591852547
0.35420036316739406,0.35420036316739406
0.35124818591852547,0.35124818591852547
0.3615808062895656,0.3615808062895656
0.43440117842832515,0.43440117842832515
0.4924606643227415,0.4924606643227415
0.5180462004796029,0.5180462004796029
0.4742555712880516,0.4742555712880516
0.43440117842832515,0.43440117842832515
0.40635549456407316,0.40635549456407316
0.43440117842832515,0.43440117842832515
0.4688432463317925,0.4688432463317925
0.5180462004796029,0.5180462004796029
0.5259186731432526,0.5259186731432526
0.5180462004796029,0.5180462004796029
0.46835121679031433,0.46835121679031433
0.43440117842832515,0.43440117842832515
0.410291730895898,0.410291730895898
0.43440117842832515,0.43440117842832515
0.4407975624675405,0.4407975624675405
0.43440117842832515,0.43440117842832515
0.40635549456407316,0.40635549456407316
0.43440117842832515,0.43440117842832515
0.45801859641927417,0.45801859641927417
0.43440117842832515,0.43440117842832515
0.32812279746905454,0.32812279746905454
0.26760316386724764,0.26760316386724764
0.25825460257916366,0.25825460257916366
0.26760316386724764,0.26760316386724764
0.2321770368808241,0.2321770368808241
0.26760316386724764,0.26760316386724764
0.3645329835384343,0.3645329835384343
0.43440117842832515,0.43440117842832515
0.35469239270887215,0.35469239270887215
0.26760316386724764,0.26760316386724764
0.29072855231671857,0.29072855231671857
0.43440117842832515,0.43440117842832515
0.5180462004796029,0.5180462004796029
0.5180462004796029,0.5180462004796029
0.45900265550223035,0.45900265550223035
0.43440117842832515,0.43440117842832515
0.41521202631067905,0.41521202631067905
0.43440117842832515,0.43440117842832515
0.4629388918340552,0.4629388918340552
0.5180462004796029,0.5180462004796029
0.527886791309165,0.527886791309165
0.5180462004796029,0.5180462004796029
0.49147660523978526,0.49147660523978526
0.5180462004796029,0.5180462004796029
0.5337911458069022,0.5337911458069022
0.5180462004796029,0.5180462004796029
0.4491620646726683,0.4491620646726683
0.43440117842832515,0.43440117842832515
0.4442417692578872,0.4442417692578872
0.43440117842832515,0.43440117842832515
0.3591206585821751,0.3591206585821751
0.35124818591852547,0.35124818591852547
0.40438737639816075,0.40438737639816075
0.43440117842832515,0.43440117842832515
0.3374713587571385,0.3374713587571385
0.26760316386724764,0.26760316386724764
0.3123778521417552,0.3123778521417552
0.43440117842832515,0.43440117842832515
0.461954832751099,0.461954832751099
0.43440117842832515,0.43440117842832515
0.4097997013544199,0.4097997013544199
0.43440117842832515,0.43440117842832515
0.428988853472066,0.428988853472066
0.43440117842832515,0.43440117842832515
0.43636929659423757,0.43636929659423757
0.43440117842832515,0.43440117842832515
0.3748656039094745,0.3748656039094745
0.35124818591852547,0.35124818591852547
0.377325751616865,0.377325751616865
0.43440117842832515,0.43440117842832515
0.41078376043737613,0.41078376043737613
0.35124818591852547,0.35124818591852547
0.28482419781898133,0.28482419781898133
0.26760316386724764,0.26760316386724764
0.24890604129107968,0.24890604129107968
0.26760316386724764,0.26760316386724764
0.3025372613121931,0.3025372613121931
0.35124818591852547,0.35124818591852547
0.3049974090195836,0.3049974090195836
0.18395814181596987,0.18395814181596987
0.042745663411753836,0.042745663411753836
0.017160127254892396,0.017160127254892396
0.06291887461235612,0.06291887461235612
0.10080514930617018,0.10080514930617018
0.025524629460020175,0.025524629460020175
-0.06599286525490729,-0.06599286525490729
-0.1097834944464586,-0.1097834944464586
-0.06599286525490729,-0.06599286525490729
-0.04778777222021742,-0.04778777222021742
-0.06599286525490729,-0.06599286525490729
-0.12749655793967038,-0.12749655793967038
-0.14963788730618507,-0.14963788730618507
-0.14078135555957919,-0.14078135555957919
-0.06599286525490729,-0.06599286525490729
0.013223890923067557,0.013223890923067557
0.10080514930617018,0.10080514930617018
0.16870522603014862,0.16870522603014862
0.26760316386724764,0.26760316386724764
0.3143459703076676,0.3143459703076676
0.26760316386724764,0.26760316386724764
0.13573924675111562,0.13573924675111562
0.10080514930617018,0.10080514930617018
0.1765776986937983,0.1765776986937983
0.26760316386724764,0.26760316386724764
0.23414515504673655,0.23414515504673655
0.18395814181596987,0.18395814181596987
0.19429076218701005,0.19429076218701005
0.26760316386724764,0.26760316386724764
0.2794118728627222,0.2794118728627222
0.26760316386724764,0.26760316386724764
0.25677851395472934,0.25677851395472934
0.26760316386724764,0.26760316386724764
0.22184441650978393,0.22184441650978393
0.18395814181596987,0.18395814181596987
0.19183061447961955,0.19183061447961955
0.26760316386724764,0.26760316386724764
0.29515681819002154,0.29515681819002154
0.26760316386724764,0.26760316386724764
0.19675090989440058,0.19675090989440058
0.18395814181596987,0.18395814181596987
0.21200382568022183,0.21200382568022183
0.26760316386724764,0.26760316386724764
0.25185821853994833,0.25185821853994833
0.18395814181596987,0.18395814181596987
0.09490079480843293,0.09490079480843293
0.10080514930617018,0.10080514930617018
0.17264146236197347,0.17264146236197347
0.26760316386724764,0.26760316386724764
0.28482419781898133,0.28482419781898133
0.26760316386724764,0.26760316386724764
0.22086035742682772,0.22086035742682772
0.18395814181596987,0.18395814181596987
0.10129717884764829,0.10129717884764829
0.017160127254892396,0.017160127254892396
-0.0679609834208197,-0.0679609834208197
-0.06599286525490729,-0.06599286525490729
-0.013345704316750093,-0.013345704316750093
0.10080514930617018,0.10080514930617018
0.1662450783227581,0.1662450783227581
0.18395814181596987,0.18395814181596987
0.12639068546303162,0.12639068546303162
0.10080514930617018,0.10080514930617018
0.13869142399998424,0.13869142399998424
0.26760316386724764,0.26760316386724764
0.33107497471792313,0.33107497471792313
0.26760316386724764,0.26760316386724764
0.14459577849772148,0.14459577849772148
0.18395814181596987,0.18395814181596987
0.32959888609348886,0.32959888609348886
0.43440117842832515,0.43440117842832515
0.5697093023348039,0.5697093023348039
1.1857302882653908,1.1857302882653908
2.3779178672668384,2.3779178672668384
3.772329587815787,3.772329587815787
4.9359794534115045,4.9359794534115045
5.858534843682951,5.858534843682951
6.395831102977041,6.395831102977041
6.192130872805105,6.192130872805105
5.2001993171852465,5.2001993171852465
4.105925616937942,4.105925616937942
3.3978951067509495,3.3978951067509495
2.8542024634176437,2.8542024634176437
2.0433377790617273,2.0433377790617273
1.1857302882653908,1.1857302882653908
0.6233405223559173,0.6233405223559173
0.26760316386724764,0.26760316386724764
-0.22147420036198837,-0.22147420036198837
-0.6505239605308956,-0.6505239605308956
-0.6298587197888152,-0.6298587197888152
-0.14963788730618507,-0.14963788730618507
0.2631748979939447,0.2631748979939447
0.26760316386724764,0.26760316386724764
-0.09010231278733442,-0.09010231278733442
-0.48323391642834,-0.48323391642834
-0.7666429323197282,-0.7666429323197282
-0.9004749676017728,-0.9004749676017728
-0.9988808758973937,-0.9988808758973937
-1.0677650117043282,-1.0677650117043282
-1.1637107722925588,-1.1637107722925588
-1.2345630262654057,-1.2345630262654057
-1.2862261281206069,-1.2862261281206069
-1.2345630262654057,-1.2345630262654057
-1.1396013247601315,-1.1396013247601315
-1.0677650117043282,-1.0677650117043282
-1.1076194045640548,-1.1076194045640548
-1.150918004214128,-1.150918004214128
-1.1396013247601315,-1.1396013247601315
-1.0677650117043282,-1.0677650117043282
-1.0500519482111166,-1.0500519482111166
-1.0677650117043282,-1.0677650117043282
-1.0913824296952774,-1.0913824296952774
-1.0677650117043282,-1.0677650117043282
-1.0603845685821567,-1.0603845685821567
-1.0677650117043282,-1.0677650117043282
-1.1135237590617921,-1.1135237590617921
-1.150918004214128,-1.150918004214128
-1.2035651651522852,-1.2035651651522852
-1.2345630262654057,-1.2345630262654057
-1.2552282670074861,-1.2552282670074861
-1.2345630262654057,-1.2345630262654057
-1.2286586717676686,-1.2286586717676686
-1.2345630262654057,-1.2345630262654057
-1.2621166805881796,-1.2621166805881796
-1.2345630262654057,-1.2345630262654057
-1.1637107722925588,-1.1637107722925588
-1.0677650117043282,-1.0677650117043282
-1.043163534630423,-1.043163534630423
-1.0677650117043282,-1.0677650117043282
-1.1022070796077956,-1.1022070796077956
-1.0677650117043282,-1.0677650117043282
-1.043163534630423,-1.043163534630423
-1.0677650117043282,-1.0677650117043282
-1.1243484089743103,-1.1243484089743103
-1.0677650117043282,-1.0677650117043282
-0.948693862666627,-0.948693862666627
-0.9004749676017728,-0.9004749676017728
-1.0062613190195653,-1.0062613190195653
-1.0677650117043282,-1.0677650117043282
-0.9821518714871381,-0.9821518714871381
-0.817321975091973,-0.817321975091973
-0.7548342233242538,-0.7548342233242538
-0.7336769530406952,-0.7336769530406952
-0.676109496687757,-0.676109496687757
-0.5668789384796178,-0.5668789384796178
-0.5191520729562417,-0.5191520729562417
-0.48323391642834,-0.48323391642834
-0.42074616466062076,-0.42074616466062076
-0.31643590186726256,-0.31643590186726256
-0.2662488886364959,-0.2662488886364959
-0.23328290935746288,-0.23328290935746288
-0.2067133141176452,-0.2067133141176452
-0.14963788730618507,-0.14963788730618507
-0.09502260820211546,-0.09502260820211546
0.017160127254892396,0.017160127254892396
0.15246825116137117,0.15246825116137117
0.26760316386724764,0.26760316386724764
0.2769517251553316,0.2769517251553316
0.26760316386724764,0.26760316386724764
0.30844161580993035,0.30844161580993035
0.43440117842832515,0.43440117842832515
0.494920812030132,0.494920812030132
0.43440117842832515,0.43440117842832515
0.29810899543889013,0.29810899543889013
0.26760316386724764,0.26760316386724764
0.3153300293906238,0.3153300293906238
0.35124818591852547,0.35124818591852547
0.3340271519667918,0.3340271519667918
0.43440117842832515,0.43440117842832515
0.6154680496922676,0.6154680496922676
0.6848442150406804,0.6848442150406804
0.5131259050648219,0.5131259050648219
0.35124818591852547,0.35124818591852547
0.35469239270887215,0.35469239270887215
0.43440117842832515,0.43440117842832515
0.38913446061233953,0.38913446061233953
0.35124818591852547,0.35124818591852547
0.43784538521867183,0.43784538521867183
0.6011991929894026,0.6011991929894026
0.6577825902593847,0.6577825902593847
0.6848442150406804,0.6848442150406804
0.7360152873544032,0.7360152873544032
0.7684892370919582,0.7684892370919582
0.6730355060452059,0.6730355060452059
0.6011991929894026,0.6011991929894026
0.6307209654780889,0.6307209654780889
0.6848442150406804,0.6848442150406804
0.5834861294961908,0.5834861294961908
0.43440117842832515,0.43440117842832515
0.37240545620208393,0.37240545620208393
0.43440117842832515,0.43440117842832515
0.45703453733631794,0.45703453733631794
0.43440117842832515,0.43440117842832515
0.4029112877737264,0.4029112877737264
0.43440117842832515,0.43440117842832515
0.44571785788232154,0.44571785788232154
0.43440117842832515,0.43440117842832515
0.40241925823224833,0.40241925823224833
0.43440117842832515,0.43440117842832515
0.48262007349317937,0.48262007349317937
0.5180462004796029,0.5180462004796029
0.47622368945396404,0.47622368945396404
0.43440117842832515,0.43440117842832515
0.4097997013544199,0.4097997013544199
0.43440117842832515,0.43440117842832515
0.43489320796980324,0.43489320796980324
0.43440117842832515,0.43440117842832515
0.41964029218398197,0.41964029218398197
0.43440117842832515,0.43440117842832515
0.4299729125550222,0.4299729125550222
0.43440117842832515,0.43440117842832515
0.4230844989743287,0.4230844989743287
0.43440117842832515,0.43440117842832515
0.42849682393058786,0.42849682393058786
0.43440117842832515,0.43440117842832515
0.4230844989743287,0.4230844989743287
0.43440117842832515,0.43440117842832515
0.4309569716379784,0.4309569716379784
0.43440117842832515,0.43440117842832515
0.3965149037345111,0.3965149037345111
0.35124818591852547,0.35124818591852547
0.28728434552637183,0.28728434552637183
0.26760316386724764,0.26760316386724764
0.25776257303768557,0.25776257303768557
0.26760316386724764,0.26760316386724764
0.25431836624733883,0.25431836624733883
0.26760316386724764,0.26760316386724764
0.2705553411161163,0.2705553411161163
0.26760316386724764,0.26760316386724764
0.2169241210950029,0.2169241210950029
0.18395814181596987,0.18395814181596987
0.14361171941476528,0.14361171941476528
0.10080514930617018,0.10080514930617018
0.02700071808445449,0.02700071808445449
0.017160127254892396,0.017160127254892396
0.05504640194870645,0.05504640194870645
0.10080514930617018,0.10080514930617018
0.06193481552939992,0.06193481552939992
0.017160127254892396,0.017160127254892396
-0.0015369953212755816,-0.0015369953212755816
0.017160127254892396,0.017160127254892396
-0.01826599973153114,-0.01826599973153114
-0.06599286525490729,-0.06599286525490729
-0.0999429036168965,-0.0999429036168965
-0.06599286525490729,-0.06599286525490729
-0.030074708727005652,-0.030074708727005652
0.017160127254892396,0.017160127254892396
0.047665958826534884,0.047665958826534884
0.10080514930617018,0.10080514930617018
0.1362312762925937,0.1362312762925937
0.18395814181596987,0.18395814181596987
0.21741615063648098,0.21741615063648098
0.26760316386724764,0.26760316386724764
0.2794118728627222,0.2794118728627222
0.26760316386724764,0.26760316386724764
0.21347991430465615,0.21347991430465615
0.18395814181596987,0.18395814181596987
0.14754795574659013,0.14754795574659013
0.10080514930617018,0.10080514930617018
0.0014151819275930462,0.0014151819275930462
-0.06599286525490729,-0.06599286525490729
-0.09256246049472494,-0.09256246049472494
-0.06599286525490729,-0.06599286525490729
-0.06402474708899487,-0.06402474708899487
-0.06599286525490729,-0.06599286525490729
-0.10289508086576514,-0.10289508086576514
-0.14963788730618507,-0.14963788730618507
-0.22196622990346646,-0.22196622990346646
-0.23328290935746288,-0.23328290935746288
-0.20130098916138606,-0.20130098916138606
-0.14963788730618507,-0.14963788730618507
-0.15554224180392234,-0.15554224180392234
-0.14963788730618507,-0.14963788730618507
-0.12208423298341121,-0.12208423298341121
-0.06599286525490729,-0.06599286525490729
-0.06304068800603867,-0.06304068800603867
-0.06599286525490729,-0.06599286525490729
-0.07681751516742559,-0.07681751516742559
-0.06599286525490729,-0.06599286525490729
-0.07927766287481612,-0.07927766287481612
-0.06599286525490729,-0.06599286525490729
-0.06156459938160435,-0.06156459938160435
-0.06599286525490729,-0.06599286525490729
-0.10240305132428704,-0.10240305132428704
-0.06599286525490729,-0.06599286525490729
0.02109636358671723,0.02109636358671723
0.10080514930617018,0.10080514930617018
0.09096455847660809,0.09096455847660809
0.10080514930617018,0.10080514930617018
0.16870522603014862,0.16870522603014862
0.26760316386724764,0.26760316386724764
0.2818720205701127,0.2818720205701127
0.26760316386724764,0.26760316386724764
0.25677851395472934,0.25677851395472934
0.26760316386724764,0.26760316386724764
0.22627268238308687,0.22627268238308687
0.18395814181596987,0.18395814181596987
0.14016751262441857,0.14016751262441857
0.10080514930617018,0.10080514930617018
0.007319536425330302,0.007319536425330302
-0.06599286525490729,-0.06599286525490729
-0.11667190802715206,-0.11667190802715206
-0.14963788730618507,-0.14963788730618507
-0.24115538202111253,-0.24115538202111253
-0.31643590186726256,-0.31643590186726256
-0.3464497038974269,-0.3464497038974269
-0.31643590186726256,-0.31643590186726256
-0.33710114260934293,-0.33710114260934293
-0.40008092391854033,-0.40008092391854033
-0.4802817391794714,-0.4802817391794714
-0.48323391642834,-0.48323391642834
-0.45174402577374134,-0.45174402577374134
-0.40008092391854033,-0.40008092391854033
-0.3769555354690694,-0.3769555354690694
-0.31643590186726256,-0.31643590186726256
-0.24017132293815632,-0.24017132293815632
-0.14963788730618507,-0.14963788730618507
-0.1092914649049805,-0.1092914649049805
-0.06599286525490729,-0.06599286525490729
-0.03105876780996186,-0.03105876780996186
0.017160127254892396,0.017160127254892396
0.039301456621407105,0.039301456621407105
0.10080514930617018,0.10080514930617018
0.18248205319153554,0.18248205319153554
0.26760316386724764,0.26760316386724764
0.27793578423828785,0.27793578423828785
0.26760316386724764,0.26760316386724764
0.2528422776229045,0.2528422776229045
0.26760316386724764,0.26760316386724764
0.2602227207450761,0.2602227207450761
0.26760316386724764,0.26760316386724764
0.2661270752428133,0.2661270752428133
0.26760316386724764,0.26760316386724764
0.22282847559274013,0.22282847559274013
0.18395814181596987,0.18395814181596987
0.13869142399998424,0.13869142399998424
0.10080514930617018,0.10080514930617018
0.014207950006023767,0.014207950006023767
-0.06599286525490729,-0.06599286525490729
-0.13290888289592953,-0.13290888289592953
-0.14963788730618507,-0.14963788730618507
-0.18752416199999913,-0.18752416199999913
-0.23328290935746288,-0.23328290935746288
-0.2982308088325727,-0.2982308088325727
-0.31643590186726256,-0.31643590186726256
-0.3243083745309122,-0.3243083745309122
-0.31643590186726256,-0.31643590186726256
-0.33611708352638675,-0.33611708352638675
-0.31643590186726256,-0.31643590186726256
-0.2588684455143243,-0.2588684455143243
-0.14963788730618507,-0.14963788730618507
-0.08518201737255338,-0.08518201737255338
-0.06599286525490729,-0.06599286525490729
-0.09207043095324684,-0.09207043095324684
-0.06599286525490729,-0.06599286525490729
0.0019072114690711509,0.0019072114690711509
0.10080514930617018,0.10080514930617018
0.12737474454598782,0.12737474454598782
0.10080514930617018,0.10080514930617018
0.05553843149018456,0.05553843149018456
0.10080514930617018,0.10080514930617018
0.1888784372307509,0.1888784372307509
0.26760316386724764,0.26760316386724764
0.26711113432576955,0.26711113432576955
0.26760316386724764,0.26760316386724764
0.27153940019907247,0.27153940019907247
0.26760316386724764,0.26760316386724764
0.18395814181596987,0.18395814181596987
0.10080514930617018,0.10080514930617018
0.061442785987921814,0.061442785987921814
0.10080514930617018,0.10080514930617018
0.11162979921868849,0.11162979921868849
0.10080514930617018,0.10080514930617018
0.04422175203618815,0.04422175203618815
0.017160127254892396,0.017160127254892396
-0.0074413498190128375,-0.0074413498190128375
0.017160127254892396,0.017160127254892396
0.02650868854297638,0.02650868854297638
0.017160127254892396,0.017160127254892396
-0.045327624512826896,-0.045327624512826896
-0.06599286525490729,-0.06599286525490729
-0.0674689538793416,-0.0674689538793416
-0.06599286525490729,-0.06599286525490729
-0.09551463774359356,-0.09551463774359356
-0.06599286525490729,-0.06599286525490729
-0.04385153588839258,-0.04385153588839258
-0.06599286525490729,-0.06599286525490729
0.01125577275715514,0.01125577275715514
0.6011991929894026,0.6011991929894026
1.7510722314237332,1.7510722314237332
3.104645500029999,3.104645500029999
4.261406952045023,4.261406952045023
5.190850755897163,5.190850755897163
5.737987606020815,5.737987606020815
5.608091807070595,5.608091807070595
4.801655388587982,4.801655388587982
3.9391276023768644,3.9391276023768644
3.3806740727992155,3.3806740727992155
2.8542024634176437,2.8542024634176437
1.994626854455395,1.994626854455395
1.1020852662141132,1.1020852662141132
0.5347752048898585,0.5347752048898585
0.18395814181596987,0.18395814181596987
-0.2805177453393609,-0.2805177453393609
-0.6505239605308956,-0.6505239605308956
-0.582131854265439,-0.582131854265439
-0.14963788730618507,-0.14963788730618507
0.1244225672971192,0.1244225672971192
0.017160127254892396,0.017160127254892396
-0.3307047585701276,-0.3307047585701276
-0.6505239605308956,-0.6505239605308956
-0.9019510562262071,-0.9019510562262071
-1.0677650117043282,-1.0677650117043282
-1.1912644266153325,-1.1912644266153325
-1.2345630262654057,-1.2345630262654057
-1.25424420792453,-1.25424420792453
-1.2345630262654057,-1.2345630262654057
-1.2380072330557526,-1.2380072330557526
-1.2345630262654057,-1.2345630262654057
-1.2483398534267927,-1.2483398534267927
-1.2345630262654057,-1.2345630262654057
-1.2360391148898402,-1.2360391148898402
-1.2345630262654057,-1.2345630262654057
-1.2719572714177418,-1.2719572714177418
-1.3177160187752055,-1.3177160187752055
-1.3792197114599685,-1.3792197114599685
-1.4013610408264834,-1.4013610408264834
-1.43334296102256,-1.43334296102256
-1.485006062877761,-1.485006062877761
-1.565206878138692,-1.565206878138692
-1.5681590553875608,-1.5681590553875608
-1.5184640716982722,-1.5184640716982722
-1.485006062877761,-1.485006062877761
-1.5607786122653893,-1.5607786122653893
-1.6518040774388385,-1.6518040774388385
-1.690674411215609,-1.690674411215609
-1.6518040774388385,-1.6518040774388385
-1.6188380981598056,-1.6188380981598056
-1.5681590553875608,-1.5681590553875608
-1.5017350672880165,-1.5017350672880165
-1.4013610408264834,-1.4013610408264834
-1.3236203732729428,-1.3236203732729428
-1.2345630262654057,-1.2345630262654057
-1.1494419155896938,-1.1494419155896938
-1.0677650117043282,-1.0677650117043282
-1.0544802140844196,-1.0544802140844196
-1.0677650117043282,-1.0677650117043282
-1.0879382229049306,-1.0879382229049306
-1.0677650117043282,-1.0677650117043282
-1.0633367458310254,-1.0633367458310254
-1.0677650117043282,-1.0677650117043282
-1.0884302524464087,-1.0884302524464087
-1.0677650117043282,-1.0677650117043282
-1.0559563027088539,-1.0559563027088539
-1.0677650117043282,-1.0677650117043282
-1.1066353454810987,-1.1066353454810987
-1.0677650117043282,-1.0677650117043282
-0.976739546530879,-0.976739546530879
-0.9004749676017728,-0.9004749676017728
-0.9122836765972473,-0.9122836765972473
-0.9004749676017728,-0.9004749676017728
-0.8315908317948381,-0.8315908317948381
-0.7336769530406952,-0.7336769530406952
-0.6997269146787061,-0.6997269146787061
-0.6505239605308956,-0.6505239605308956
-0.5683550271040522,-0.5683550271040522
-0.48323391642834,-0.48323391642834
-0.48618609367720866,-0.48618609367720866
-0.48323391642834,-0.48323391642834
-0.42369834190948935,-0.42369834190948935
-0.31643590186726256,-0.31643590186726256
-0.2908503657104011,-0.2908503657104011
-0.31643590186726256,-0.31643590186726256
-0.34792579252186123,-0.34792579252186123
-0.31643590186726256,-0.31643590186726256
-0.28199383396379524,-0.28199383396379524
-0.23328290935746288,-0.23328290935746288
-0.1968727232880831,-0.1968727232880831
-0.14963788730618507,-0.14963788730618507
-0.14668571005731645,-0.14668571005731645
-0.14963788730618507,-0.14963788730618507
-0.14520962143288213,-0.14520962143288213
-0.06599286525490729,-0.06599286525490729
0.02700071808445449,0.02700071808445449
0.10080514930617018,0.10080514930617018
0.09834500159877967,0.09834500159877967
0.10080514930617018,0.10080514930617018
0.12196241958972869,0.12196241958972869
0.18395814181596987,0.18395814181596987
0.2213523869683058,0.2213523869683058
0.26760316386724764,0.26760316386724764
0.3030292908536712,0.3030292908536712
0.35124818591852547,0.35124818591852547
0.37634169253390876,0.37634169253390876
0.43440117842832515,0.43440117842832515
0.4860642802835261,0.4860642802835261
0.5180462004796029,0.5180462004796029
0.49344472340569767,0.49344472340569767
0.5180462004796029,0.5180462004796029
0.5928346907842749,0.5928346907842749
0.6848442150406804,0.6848442150406804
0.6961608944946768,0.6961608944946768
0.6848442150406804,0.6848442150406804
0.6499101175957349,0.6499101175957349
0.6011991929894026,0.6011991929894026
0.5180462004796029,0.5180462004796029
0.5180462004796029,0.5180462004796029
0.5741375682081068,0.5741375682081068
0.6011991929894026,0.6011991929894026
0.5077135801085627,0.5077135801085627
0.43440117842832515,0.43440117842832515
0.4270207353061536,0.4270207353061536
0.43440117842832515,0.43440117842832515
0.3423916541719196,0.3423916541719196
0.26760316386724764,0.26760316386724764
0.25677851395472934,0.25677851395472934
0.26760316386724764,0.26760316386724764
0.17608566915232018,0.17608566915232018
0.10080514930617018,0.10080514930617018
0.13278706950224697,0.13278706950224697
0.26760316386724764,0.26760316386724764
0.3359952701327042,0.3359952701327042
0.35124818591852547,0.35124818591852547
0.36108877674808754,0.36108877674808754
0.43440117842832515,0.43440117842832515
0.48704833936648234,0.48704833936648234
0.5180462004796029,0.5180462004796029
0.5072215505670846,0.5072215505670846
0.5180462004796029,0.5180462004796029
0.5362512935142928,0.5362512935142928
0.6011991929894026,0.6011991929894026
0.6523702653031255,0.6523702653031255
0.6848442150406804,0.6848442150406804
0.6705753583378153,0.6705753583378153
0.6848442150406804,0.6848442150406804
0.6966529240361549,0.6966529240361549
0.6848442150406804,0.6848442150406804
0.5943107794087091,0.5943107794087091
0.5180462004796029,0.5180462004796029
0.4880323984494385,0.4880323984494385
0.5180462004796029,0.5180462004796029
0.49934907790343497,0.49934907790343497
0.43440117842832515,0.43440117842832515
0.33009091563496695,0.33009091563496695
0.26760316386724764,0.26760316386724764
0.21544803247056857,0.21544803247056857
0.18395814181596987,0.18395814181596987
0.13131098087781268,0.13131098087781268
0.10080514930617018,0.10080514930617018
0.05603046103166266,0.05603046103166266
0.017160127254892396,0.017160127254892396
-0.04483559497134879,-0.04483559497134879
-0.06599286525490729,-0.06599286525490729
-0.07386533791855697,-0.07386533791855697
-0.06599286525490729,-0.06599286525490729
-0.1097834944464586,-0.1097834944464586
-0.14963788730618507,-0.14963788730618507
-0.17817560071191516,-0.17817560071191516
-0.14963788730618507,-0.14963788730618507
-0.11864002619306449,-0.11864002619306449
-0.06599286525490729,-0.06599286525490729
-0.030566738268483756,-0.030566738268483756
0.017160127254892396,0.017160127254892396
0.04520581111914436,0.04520581111914436
0.10080514930617018,0.10080514930617018
0.14459577849772148,0.14459577849772148
0.18395814181596987,0.18395814181596987
0.1775617577767545,0.1775617577767545
0.18395814181596987,0.18395814181596987
0.18199002365005745,0.18199002365005745
0.18395814181596987,0.18395814181596987
0.16083275336649894,0.16083275336649894
0.18395814181596987,0.18395814181596987
0.22627268238308687,0.22627268238308687
0.26760316386724764,0.26760316386724764
0.25382633670586074,0.25382633670586074
0.26760316386724764,0.26760316386724764
0.306965527185496,0.306965527185496
0.35124818591852547,0.35124818591852547
0.3148379998491457,0.3148379998491457
0.26760316386724764,0.26760316386724764
0.2420176277103862,0.2420176277103862
0.26760316386724764,0.26760316386724764
0.26661910478429146,0.26661910478429146
0.26760316386724764,0.26760316386724764
0.2612067798280323,0.2612067798280323
0.26760316386724764,0.26760316386724764
0.20560744164100647,0.20560744164100647
0.10080514930617018,0.10080514930617018
-0.019742088355965453,-0.019742088355965453
-0.06599286525490729,-0.06599286525490729
-0.09797478545098409,-0.09797478545098409
-0.14963788730618507,-0.14963788730618507
-0.2569003273484119,-0.2569003273484119
-0.31643590186726256,-0.31643590186726256
-0.3307047585701276,-0.3307047585701276
-0.31643590186726256,-0.31643590186726256
-0.3395612903167335,-0.3395612903167335
-0.31643590186726256,-0.31643590186726256
-0.24459958881145927,-0.24459958881145927
-0.14963788730618507,-0.14963788730618507
-0.13832120785218868,-0.13832120785218868
-0.14963788730618507,-0.14963788730618507
-0.13782917831071057,-0.13782917831071057
-0.06599286525490729,-0.06599286525490729
-0.04237544726395827,-0.04237544726395827
-0.06599286525490729,-0.06599286525490729
-0.1097834944464586,-0.1097834944464586
-0.06599286525490729,-0.06599286525490729
0.016176068171936186,0.016176068171936186
0.10080514930617018,0.10080514930617018
0.13180301041929077,0.13180301041929077
0.18395814181596987,0.18395814181596987
0.23709733229560517,0.23709733229560517
0.26760316386724764,0.26760316386724764
0.2179081801779591,0.2179081801779591
0.18395814181596987,0.18395814181596987
0.20019511668474732,0.20019511668474732
0.26760316386724764,0.26760316386724764
0.2808879614871565,0.2808879614871565
0.26760316386724764,0.26760316386724764
0.24841401174960157,0.24841401174960157
0.26760316386724764,0.26760316386724764
0.24300168679334241,0.24300168679334241
0.18395814181596987,0.18395814181596987
0.1027732674720826,0.1027732674720826
0.10080514930617018,0.10080514930617018
0.11113776967721038,0.11113776967721038
0.10080514930617018,0.10080514930617018
0.004859388717939779,0.004859388717939779
-0.06599286525490729,-0.06599286525490729
-0.11519581940271775,-0.11519581940271775
-0.14963788730618507,-0.14963788730618507
-0.2470597365188498,-0.2470597365188498
-0.31643590186726256,-0.31643590186726256
-0.3400533198582116,-0.3400533198582116
-0.31643590186726256,-0.31643590186726256
-0.32726055177978086,-0.32726055177978086
-0.31643590186726256,-0.31643590186726256
-0.2913423952518792,-0.2913423952518792
-0.23328290935746288,-0.23328290935746288
-0.10289508086576514,-0.10289508086576514
0.35124818591852547,0.35124818591852547
1.2674071921507564,1.2674071921507564
2.6042514563467667,2.6042514563467667
4.045898012877613,4.045898012877613
5.274495777948441,5.274495777948441
5.926434920406929,5.926434920406929
5.858534843682951,5.858534843682951
5.2115159966392435,5.2115159966392435
4.440013675601575,4.440013675601575
3.7885665626845646,3.7885665626845646
3.1882905220812767,3.1882905220812767
2.4020273147992657,2.4020273147992657
1.5193263173875458,1.5193263173875458
0.7862023005851699,0.7862023005851699
0.35124818591852547,0.35124818591852547
0.0023992410105492554,0.0023992410105492554
-0.40008092391854033,-0.40008092391854033
-0.7262965099185237,-0.7262965099185237
-0.6505239605308956,-0.6505239605308956
-0.2583764159728462,-0.2583764159728462
0.017160127254892396,0.017160127254892396
-0.18211183704373998,-0.18211183704373998
-0.6505239605308956,-0.6505239605308956
-1.0466077414207697,-1.0466077414207697
-1.2345630262654057,-1.2345630262654057
-1.3802037705429249,-1.3802037705429249
-1.485006062877761,-1.485006062877761
-1.527320603444878,-1.527320603444878
-1.485006062877761,-1.485006062877761
-1.4825459151703706,-1.4825459151703706
-1.485006062877761,-1.485006062877761
-1.4909104173754983,-1.4909104173754983
-1.485006062877761,-1.485006062877761
-1.5155118944494035,-1.5155118944494035
-1.485006062877761,-1.485006062877761
-1.399884952202049,-1.399884952202049
-1.3177160187752055,-1.3177160187752055
-1.3241124028144209,-1.3241124028144209
-1.3177160187752055,-1.3177160187752055
-1.2763855372910446,-1.2763855372910446
-1.2345630262654057,-1.2345630262654057
-1.258672473797833,-1.258672473797833
-1.2345630262654057,-1.2345630262654057
-1.1440295906334346,-1.1440295906334346
-1.0677650117043282,-1.0677650117043282
-1.132712911179438,-1.132712911179438
-1.2345630262654057,-1.2345630262654057
-1.2709732123347857,-1.2709732123347857
-1.2345630262654057,-1.2345630262654057
-1.2571963851733987,-1.2571963851733987
-1.3177160187752055,-1.3177160187752055
-1.3570783820934538,-1.3570783820934538
-1.3177160187752055,-1.3177160187752055
-1.296558748491647,-1.296558748491647
-1.3177160187752055,-1.3177160187752055
-1.381187829625881,-1.381187829625881
-1.4013610408264834,-1.4013610408264834
-1.4028371294509177,-1.4028371294509177
-1.4013610408264834,-1.4013610408264834
-1.4490879063498594,-1.4490879063498594
-1.485006062877761,-1.485006062877761
-1.5037031854539291,-1.5037031854539291
-1.485006062877761,-1.485006062877761
-1.4879582401266298,-1.4879582401266298
-1.485006062877761,-1.485006062877761
-1.494354624165845,-1.494354624165845
-1.485006062877761,-1.485006062877761
-1.474673442506721,-1.474673442506721
-1.4013610408264834,-1.4013610408264834
-1.2906543939939097,-1.2906543939939097
-1.150918004214128,-1.150918004214128
-1.03873526875712,-1.03873526875712
-0.9004749676017728,-0.9004749676017728
-0.765166843695294,-0.765166843695294
-0.6505239605308956,-0.6505239605308956
-0.6141137744615158,-0.6141137744615158
-0.5668789384796178,-0.5668789384796178
-0.47142520743286553,-0.47142520743286553
-0.31643590186726256,-0.31643590186726256
-0.21015752090799195,-0.21015752090799195
-0.14963788730618507,-0.14963788730618507
-0.12700452839819226,-0.12700452839819226
-0.06599286525490729,-0.06599286525490729
0.007319536425330302,0.007319536425330302
0.10080514930617018,0.10080514930617018
0.15296028070284928,0.15296028070284928
0.18395814181596987,0.18395814181596987
0.1972429394358787,0.1972429394358787
0.26760316386724764,0.26760316386724764
0.3566605108747846,0.3566605108747846
0.43440117842832515,0.43440117842832515
0.43833741476015,0.43833741476015
0.43440117842832515,0.43440117842832515
0.4270207353061536,0.4270207353061536
0.43440117842832515,0.43440117842832515
0.41570405585215714,0.41570405585215714
0.43440117842832515,0.43440117842832515
0.4737635417465735,0.4737635417465735
0.5180462004796029,0.5180462004796029
0.4865563098250042,0.4865563098250042
0.43440117842832515,0.43440117842832515
0.3768337220753869,0.3768337220753869
0.35124818591852547,0.35124818591852547
0.3025372613121931,0.3025372613121931
0.26760316386724764,0.26760316386724764
0.2203683278853496,0.2203683278853496
0.18395814181596987,0.18395814181596987
0.123438508214163,0.123438508214163
0.10080514930617018,0.10080514930617018
0.09391673572547672,0.09391673572547672
0.10080514930617018,0.10080514930617018
0.053078283782794035,0.053078283782794035
0.017160127254892396,0.017160127254892396
0.019128245420804813,0.019128245420804813
0.10080514930617018,0.10080514930617018
0.16181681244945517,0.16181681244945517
0.18395814181596987,0.18395814181596987
0.15935666474206464,0.15935666474206464
0.18395814181596987,0.18395814181596987
0.22774877100752117,0.22774877100752117
0.26760316386724764,0.26760316386724764
0.24939807083255777,0.24939807083255777
0.26760316386724764,0.26760316386724764
0.3330430928838356,0.3330430928838356
0.43440117842832515,0.43440117842832515
0.45801859641927417,0.45801859641927417
0.43440117842832515,0.43440117842832515
0.39995911052485783,0.39995911052485783
0.43440117842832515,0.43440117842832515
0.47868383716135454,0.47868383716135454
0.5180462004796029,0.5180462004796029
0.5111577868989094,0.5111577868989094
0.5180462004796029,0.5180462004796029
0.5131259050648219,0.5131259050648219
0.5180462004796029,0.5180462004796029
0.5008251665278692,0.5008251665278692
0.5180462004796029,0.5180462004796029
0.5259186731432526,0.5259186731432526
0.5180462004796029,0.5180462004796029
0.45801859641927417,0.45801859641927417
0.43440117842832515,0.43440117842832515
0.4334171193453689,0.4334171193453689
0.43440117842832515,0.43440117842832515
0.3748656039094745,0.3748656039094745
0.35124818591852547,0.35124818591852547
0.37634169253390876,0.37634169253390876
0.43440117842832515,0.43440117842832515
0.433909148886847,0.433909148886847
0.43440117842832515,0.43440117842832515
0.4358772670527594,0.4358772670527594
0.43440117842832515,0.43440117842832515
0.37388154482651825,0.37388154482651825
0.35124818591852547,0.35124818591852547
0.3778177811583431,0.3778177811583431
0.43440117842832515,0.43440117842832515
0.43046494209650027,0.43046494209650027
0.43440117842832515,0.43440117842832515
0.4427656806334529,0.4427656806334529
0.43440117842832515,0.43440117842832515
0.34042353600600717,0.34042353600600717
0.26760316386724764,0.26760316386724764
0.2508741594569921,0.2508741594569921
0.26760316386724764,0.26760316386724764
0.198719028060313,0.198719028060313
0.10080514930617018,0.10080514930617018
0.023556511294107754,0.023556511294107754
0.017160127254892396,0.017160127254892396
0.008795625049764616,0.008795625049764616
0.017160127254892396,0.017160127254892396
0.015192009088979976,0.015192009088979976
0.017160127254892396,0.017160127254892396
-0.030074708727005652,-0.030074708727005652
-0.06599286525490729,-0.06599286525490729
-0.08764216507994389,-0.08764216507994389
-0.06599286525490729,-0.06599286525490729
-0.0679609834208197,-0.0679609834208197
-0.06599286525490729,-0.06599286525490729
-0.078785633333338,-0.078785633333338
-0.06599286525490729,-0.06599286525490729
-0.07238924929412265,-0.07238924929412265
-0.06599286525490729,-0.06599286525490729
-0.07632548562594749,-0.07632548562594749
-0.06599286525490729,-0.06599286525490729
-0.07337330837707885,-0.07337330837707885
-0.06599286525490729,-0.06599286525490729
-0.07583345608446938,-0.07583345608446938
-0.06599286525490729,-0.06599286525490729
-0.07288127883560075,-0.07288127883560075
-0.06599286525490729,-0.06599286525490729
-0.07632548562594749,-0.07632548562594749
-0.06599286525490729,-0.06599286525490729
-0.07091316066968834,-0.07091316066968834
-0.06599286525490729,-0.06599286525490729
-0.08124578104072853,-0.08124578104072853
-0.06599286525490729,-0.06599286525490729
-0.04089935863952395,-0.04089935863952395
0.017160127254892396,0.017160127254892396
0.05750654965609697,0.05750654965609697
0.10080514930617018,0.10080514930617018
0.10670950380390744,0.10670950380390744
0.10080514930617018,0.10080514930617018
0.05357031332427214,0.05357031332427214
0.017160127254892396,0.017160127254892396
-0.03105876780996186,-0.03105876780996186
-0.06599286525490729,-0.06599286525490729
-0.12306829206636742,-0.12306829206636742
-0.14963788730618507,-0.14963788730618507
-0.16538283263348444,-0.16538283263348444
-0.14963788730618507,-0.14963788730618507
-0.15505021226244423,-0.15505021226244423
-0.14963788730618507,-0.14963788730618507
-0.15800238951131285,-0.15800238951131285
-0.14963788730618507,-0.14963788730618507
-0.1599705076772253,-0.1599705076772253
-0.14963788730618507,-0.14963788730618507
-0.1530820940965318,-0.1530820940965318
-0.14963788730618507,-0.14963788730618507
-0.16833500988235306,-0.16833500988235306
-0.14963788730618507,-0.14963788730618507
-0.11716393756863017,-0.11716393756863017
-0.06599286525490729,-0.06599286525490729
-0.06254865846456056,-0.06254865846456056
-0.06599286525490729,-0.06599286525490729
-0.08124578104072853,-0.08124578104072853
-0.06599286525490729,-0.06599286525490729
-0.06943707204525403,-0.06943707204525403
-0.06599286525490729,-0.06599286525490729
-0.078785633333338,-0.078785633333338
-0.06599286525490729,-0.06599286525490729
-0.07140519021116644,-0.07140519021116644
-0.06599286525490729,-0.06599286525490729
-0.05762836304977951,-0.05762836304977951
0.017160127254892396,0.017160127254892396
0.10720153334538554,0.10720153334538554
0.18395814181596987,0.18395814181596987
0.18592625998188228,0.18592625998188228
0.18395814181596987,0.18395814181596987
0.20216323485065973,0.20216323485065973
0.26760316386724764,0.26760316386724764
0.28925246369228425,0.28925246369228425
0.26760316386724764,0.26760316386724764
0.2060994711824846,0.2060994711824846
0.18395814181596987,0.18395814181596987
0.1549283988687617,0.1549283988687617
0.10080514930617018,0.10080514930617018
-0.006457290736056628,-0.006457290736056628
-0.06599286525490729,-0.06599286525490729
-0.078785633333338,-0.078785633333338
-0.06599286525490729,-0.06599286525490729
-0.11076755352941481,-0.11076755352941481
-0.14963788730618507,-0.14963788730618507
-0.16882703942383115,-0.16882703942383115
-0.14963788730618507,-0.14963788730618507
-0.15751035996983476,-0.15751035996983476
-0.14963788730618507,-0.14963788730618507
-0.14766976914027266,-0.14766976914027266
-0.14963788730618507,-0.14963788730618507
-0.2042531664102547,-0.2042531664102547
-0.23328290935746288,-0.23328290935746288
-0.24017132293815632,-0.24017132293815632
-0.23328290935746288,-0.23328290935746288
-0.281009774880839,-0.281009774880839
-0.31643590186726256,-0.31643590186726256
-0.3316888176530838,-0.3316888176530838
-0.31643590186726256,-0.31643590186726256
-0.3336569358189962,-0.3336569358189962
-0.31643590186726256,-0.31643590186726256
-0.2544401796410214,-0.2544401796410214
-0.14963788730618507,-0.14963788730618507
-0.1196240852760207,-0.1196240852760207
-0.14963788730618507,-0.14963788730618507
-0.1934285164977364,-0.1934285164977364
-0.14963788730618507,-0.14963788730618507
-0.088134194621422,-0.088134194621422
-0.06599286525490729,-0.06599286525490729
-0.12552843977375794,-0.12552843977375794
-0.14963788730618507,-0.14963788730618507
-0.1206081443589769,-0.1206081443589769
-0.06599286525490729,-0.06599286525490729
-0.09403854911915925,-0.09403854911915925
-0.14963788730618507,-0.14963788730618507
-0.1845719847511305,-0.1845719847511305
-0.14963788730618507,-0.14963788730618507
-0.13635308968627624,-0.13635308968627624
-0.14963788730618507,-0.14963788730618507
-0.1816198075022619,-0.1816198075022619
-0.14963788730618507,-0.14963788730618507
-0.10043493315837461,-0.10043493315837461
-0.06599286525490729,-0.06599286525490729
-0.10683131719758998,-0.10683131719758998
-0.14963788730618507,-0.14963788730618507
-0.1752234234630465,-0.1752234234630465
-0.14963788730618507,-0.14963788730618507
-0.14422556234992592,-0.14422556234992592
-0.14963788730618507,-0.14963788730618507
-0.1939205460392145,-0.1939205460392145
-0.23328290935746288,-0.23328290935746288
-0.290358336168923,-0.290358336168923
-0.31643590186726256,-0.31643590186726256
-0.33267287673604,-0.33267287673604
-0.31643590186726256,-0.31643590186726256
-0.3203721381990874,-0.3203721381990874
-0.31643590186726256,-0.31643590186726256
-0.32775258132125895,-0.32775258132125895
-0.31643590186726256,-0.31643590186726256
-0.3213561972820436,-0.3213561972820436
-0.31643590186726256,-0.31643590186726256
-0.3307047585701276,-0.3307047585701276
-0.31643590186726256,-0.31643590186726256
-0.2938025429592697,-0.2938025429592697
-0.23328290935746288,-0.23328290935746288
-0.18850822108295534,-0.18850822108295534
-0.14963788730618507,-0.14963788730618507
-0.1525900645550537,-0.1525900645550537
-0.14963788730618507,-0.14963788730618507
-0.15751035996983476,-0.15751035996983476
-0.14963788730618507,-0.14963788730618507
-0.1826038665852181,-0.1826038665852181
-0.23328290935746288,-0.23328290935746288
-0.3011829860814413,-0.3011829860814413
-0.31643590186726256,-0.31643590186726256
-0.318404020033175,-0.318404020033175
-0.31643590186726256,-0.31643590186726256
-0.3439895561900364,-0.3439895561900364
-0.31643590186726256,-0.31643590186726256
-0.24312350018702497,-0.24312350018702497
-0.14963788730618507,-0.14963788730618507
-0.13290888289592953,-0.13290888289592953
-0.14963788730618507,-0.14963788730618507
-0.1732553052971341,-0.1732553052971341
-0.14963788730618507,-0.14963788730618507
-0.14274947372549163,-0.14274947372549163
-0.14963788730618507,-0.14963788730618507
-0.1968727232880831,-0.1968727232880831
-0.23328290935746288,-0.23328290935746288
-0.2829778930467514,-0.2829778930467514
-0.31643590186726256,-0.31643590186726256
-0.36711494463950733,-0.36711494463950733
-0.40008092391854033,-0.40008092391854033
-0.450267937149307,-0.450267937149307
-0.48323391642834,-0.48323391642834
-0.5122636593755482,-0.5122636593755482
-0.48323391642834,-0.48323391642834
-0.4443635826515698,-0.4443635826515698
-0.40008092391854033,-0.40008092391854033
-0.38236786042532855,-0.38236786042532855
-0.31643590186726256,-0.31643590186726256
-0.22934667302563802,-0.22934667302563802
-0.14963788730618507,-0.14963788730618507
-0.14914585776470698,-0.14914585776470698
-0.14963788730618507,-0.14963788730618507
-0.12700452839819226,-0.12700452839819226
-0.06599286525490729,-0.06599286525490729
-0.05320009717647657,-0.05320009717647657
-0.06599286525490729,-0.06599286525490729
-0.11421176031976155,-0.11421176031976155
-0.14963788730618507,-0.14963788730618507
-0.1826038665852181,-0.1826038665852181
-0.14963788730618507,-0.14963788730618507
-0.09748275590950599,-0.09748275590950599
-0.06599286525490729,-0.06599286525490729
-0.11617987848567396,-0.11617987848567396
-0.14963788730618507,-0.14963788730618507
-0.13340091243740762,-0.13340091243740762
-0.06599286525490729,-0.06599286525490729
-0.051724008552042254,-0.051724008552042254
-0.06599286525490729,-0.06599286525490729
-0.0896102832458563,-0.0896102832458563
-0.06599286525490729,-0.06599286525490729
-0.05812039259125761,-0.05812039259125761
-0.06599286525490729,-0.06599286525490729
-0.11814799665158639,-0.11814799665158639
-0.14963788730618507,-0.14963788730618507
-0.16931906896530927,-0.16931906896530927
-0.14963788730618507,-0.14963788730618507
-0.14471759189140404,-0.14471759189140404
-0.14963788730618507,-0.14963788730618507
-0.22245825944494457,-0.22245825944494457
-0.31643590186726256,-0.31643590186726256
-0.3833519195082848,-0.3833519195082848
-0.31643590186726256,-0.31643590186726256
-0.20179301870286417,-0.20179301870286417
-0.14963788730618507,-0.14963788730618507
-0.2362350866063315,-0.2362350866063315
-0.31643590186726256,-0.31643590186726256
-0.33660911306786484,-0.33660911306786484
-0.31643590186726256,-0.31643590186726256
-0.3415294084826459,-0.3415294084826459
-0.31643590186726256,-0.31643590186726256
-0.23033073210859423,-0.23033073210859423
-0.14963788730618507,-0.14963788730618507
-0.21261766861538248,-0.21261766861538248
-0.31643590186726256,-0.31643590186726256
-0.34103737894116776,-0.34103737894116776
-0.23328290935746288,-0.23328290935746288
-0.14816179868175075,-0.14816179868175075
-0.14963788730618507,-0.14963788730618507
-0.24509161835293738,-0.24509161835293738
-0.31643590186726256,-0.31643590186726256
-0.32676852223830277,-0.32676852223830277
-0.23328290935746288,-0.23328290935746288
-0.12798858748114847,-0.12798858748114847
-0.06599286525490729,-0.06599286525490729
-0.10338711040724324,-0.10338711040724324
-0.14963788730618507,-0.14963788730618507
-0.17669951208748083,-0.17669951208748083
-0.14963788730618507,-0.14963788730618507
-0.1201161148174988,-0.1201161148174988
-0.06599286525490729,-0.06599286525490729
-0.0463116835957831,-0.0463116835957831
-0.06599286525490729,-0.06599286525490729
-0.13832120785218868,-0.13832120785218868
-0.14963788730618507,-0.14963788730618507
-0.10830740582202429,-0.10830740582202429
-0.06599286525490729,-0.06599286525490729
-0.13192482381297332,-0.13192482381297332
-0.23328290935746288,-0.23328290935746288
-0.313975754159872,-0.313975754159872
-0.31643590186726256,-0.31643590186726256
-0.2962626906666603,-0.2962626906666603
-0.23328290935746288,-0.23328290935746288
-0.17817560071191516,-0.17817560071191516
-0.14963788730618507,-0.14963788730618507
-0.19834881191251744,-0.19834881191251744
-0.23328290935746288,-0.23328290935746288
-0.22098217082051025,-0.22098217082051025
-0.14963788730618507,-0.14963788730618507
-0.1284806170226266,-0.1284806170226266
-0.14963788730618507,-0.14963788730618507
-0.1860480733755648,-0.1860480733755648
-0.14963788730618507,-0.14963788730618507
-0.0984668149924622,-0.0984668149924622
-0.06599286525490729,-0.06599286525490729
-0.08665810599698769,-0.08665810599698769
-0.06599286525490729,-0.06599286525490729
-0.019742088355965453,-0.019742088355965453
0.017160127254892396,0.017160127254892396
-0.02712253147813702,-0.02712253147813702
-0.06599286525490729,-0.06599286525490729
-0.0778015742503818,-0.0778015742503818
-0.06599286525490729,-0.06599286525490729
-0.11125958307089291,-0.11125958307089291
-0.14963788730618507,-0.14963788730618507
-0.1629226849260939,-0.1629226849260939
-0.14963788730618507,-0.14963788730618507
-0.21114157999094815,-0.21114157999094815
-0.31643590186726256,-0.31643590186726256
-0.4355070509049639,-0.4355070509049639
-0.48323391642834,-0.48323391642834
-0.47831362101355895,-0.47831362101355895
-0.40008092391854033,-0.40008092391854033
-0.3316888176530838,-0.3316888176530838
-0.31643590186726256,-0.31643590186726256
-0.4050012193333214,-0.4050012193333214
-0.48323391642834,-0.48323391642834
-0.4915984186334678,-0.4915984186334678
-0.40008092391854033,-0.40008092391854033
-0.33021272902864945,-0.33021272902864945
-0.31643590186726256,-0.31643590186726256
-0.3759714763861132,-0.3759714763861132
-0.40008092391854033,-0.40008092391854033
-0.3612105901417701,-0.3612105901417701
-0.23328290935746288,-0.23328290935746288
-0.12602046931523606,-0.12602046931523606
-0.06599286525490729,-0.06599286525490729
-0.08173781058220664,-0.08173781058220664
-0.06599286525490729,-0.06599286525490729
-0.05762836304977951,-0.05762836304977951
-0.06599286525490729,-0.06599286525490729
-0.13881323739366677,-0.13881323739366677
-0.14963788730618507,-0.14963788730618507
-0.08665810599698769,-0.08665810599698769
0.017160127254892396,0.017160127254892396
0.03438116120662606,0.03438116120662606
0.017160127254892396,0.017160127254892396
0.019128245420804813,0.019128245420804813
0.10080514930617018,0.10080514930617018
0.18937046677222902,0.18937046677222902
0.26760316386724764,0.26760316386724764
0.2897444932337624,0.2897444932337624
0.35124818591852547,0.35124818591852547
0.6346572018099137,0.6346572018099137
1.435681295336268,1.435681295336268
2.73316319621403,2.73316319621403
4.1895706389892196,4.1895706389892196
5.30844581631043,5.30844581631043
5.858534843682951,5.858534843682951
5.749304285474811,5.749304285474811
5.107697763387363,5.107697763387363
4.229917061390425,4.229917061390425
3.5218865512034316,3.5218865512034316
2.945227928591093,2.945227928591093
2.187010405173334,2.187010405173334
1.1739215792699165,1.1739215792699165
0.35124818591852547,0.35124818591852547
-0.10683131719758998,-0.10683131719758998
-0.48323391642834,-0.48323391642834
-0.9757554874479227,-0.9757554874479227
-1.150918004214128,-1.150918004214128
-0.7607385778219911,-0.7607385778219911
-0.23328290935746288,-0.23328290935746288
-0.20228504824434226,-0.20228504824434226
-0.5668789384796178,-0.5668789384796178
-0.8793176973182143,-0.8793176973182143
-0.9841199896530506,-0.9841199896530506
-1.1533781519215185,-1.1533781519215185
-1.4013610408264834,-1.4013610408264834
-1.554874257767652,-1.554874257767652
-1.485006062877761,-1.485006062877761
-1.3989008931190927,-1.3989008931190927
-1.4013610408264834,-1.4013610408264834
-1.4810698265459363,-1.4810698265459363
-1.485006062877761,-1.485006062877761
-1.4402313746032536,-1.4402313746032536
-1.4013610408264834,-1.4013610408264834
-1.447119788183947,-1.447119788183947
-1.485006062877761,-1.485006062877761
-1.470737206174896,-1.470737206174896
-1.4013610408264834,-1.4013610408264834
-1.386108125040662,-1.386108125040662
-1.4013610408264834,-1.4013610408264834
-1.400376981743527,-1.400376981743527
-1.3177160187752055,-1.3177160187752055
-1.2463717352608803,-1.2463717352608803
-1.2345630262654057,-1.2345630262654057
-1.314763841526337,-1.314763841526337
-1.4013610408264834,-1.4013610408264834
-1.470737206174896,-1.470737206174896
-1.485006062877761,-1.485006062877761
-1.4727053243408084,-1.4727053243408084
-1.4013610408264834,-1.4013610408264834
-1.3127957233604244,-1.3127957233604244
-1.2345630262654057,-1.2345630262654057
-1.2483398534267927,-1.2483398534267927
-1.3177160187752055,-1.3177160187752055
-1.400376981743527,-1.400376981743527
-1.4013610408264834,-1.4013610408264834
-1.3403493776831983,-1.3403493776831983
-1.2345630262654057,-1.2345630262654057
-1.1701071563317742,-1.1701071563317742
-1.150918004214128,-1.150918004214128
-1.1961847220301136,-1.1961847220301136
-1.2345630262654057,-1.2345630262654057
-1.2567043556319206,-1.2567043556319206
-1.2345630262654057,-1.2345630262654057
-1.2296427308506248,-1.2296427308506248
-1.2345630262654057,-1.2345630262654057
-1.2601485624222672,-1.2601485624222672
-1.2345630262654057,-1.2345630262654057
-1.1671549790829054,-1.1671549790829054
-1.0677650117043282,-1.0677650117043282
-1.0372591801326858,-1.0372591801326858
-1.0677650117043282,-1.0677650117043282
-1.1145078181447483,-1.1145078181447483
-1.0677650117043282,-1.0677650117043282
-0.9964207281900032,-0.9964207281900032
-0.9841199896530506,-0.9841199896530506
-1.0653048639969378,-1.0653048639969378
-1.0677650117043282,-1.0677650117043282
-0.9349170355052401,-0.9349170355052401
-0.7336769530406952,-0.7336769530406952
-0.6259224834569904,-0.6259224834569904
-0.5668789384796178,-0.5668789384796178
-0.5024230685459861,-0.5024230685459861
-0.40008092391854033,-0.40008092391854033
-0.34989391068777365,-0.34989391068777365
-0.31643590186726256,-0.31643590186726256
-0.2687090363438864,-0.2687090363438864
-0.14963788730618507,-0.14963788730618507
-0.024170354229268394,-0.024170354229268394
0.10080514930617018,0.10080514930617018
0.16722913740571432,0.16722913740571432
0.18395814181596987,0.18395814181596987
0.12934286271190026,0.12934286271190026
0.10080514930617018,0.10080514930617018
0.13721533537554992,0.13721533537554992
0.26760316386724764,0.26760316386724764
0.3797858993242555,0.3797858993242555
0.43440117842832515,0.43440117842832515
0.41767217401806955,0.41767217401806955
0.43440117842832515,0.43440117842832515
0.47671571899544213,0.47671571899544213
0.5180462004796029,0.5180462004796029
0.47819180761987645,0.47819180761987645
0.43440117842832515,0.43440117842832515
0.43440117842832515,0.43440117842832515
0.5180462004796029,0.5180462004796029
0.584470188579147,0.584470188579147
0.6011991929894026,0.6011991929894026
0.5249346140602964,0.5249346140602964
0.43440117842832515,0.43440117842832515
0.3792938697827774,0.3792938697827774
0.43440117842832515,0.43440117842832515
0.485572250742048,0.485572250742048
0.43440117842832515,0.43440117842832515
0.24250965725186432,0.24250965725186432
0.10080514930617018,0.10080514930617018
0.09145658801808619,0.09145658801808619
0.18395814181596987,0.18395814181596987
0.21101976659726562,0.21101976659726562
0.18395814181596987,0.18395814181596987
0.12835880362894406,0.12835880362894406
0.10080514930617018,0.10080514930617018
0.046189870202100566,0.046189870202100566
0.017160127254892396,0.017160127254892396
0.02404854083558586,0.02404854083558586
0.10080514930617018,0.10080514930617018
0.15542042841023979,0.15542042841023979
0.18395814181596987,0.18395814181596987
0.16870522603014862,0.16870522603014862
0.18395814181596987,0.18395814181596987
0.2095436779728313,0.2095436779728313
0.26760316386724764,0.26760316386724764
0.3040133499366274,0.3040133499366274
0.35124818591852547,0.35124818591852547
0.3812619879486898,0.3812619879486898
0.43440117842832515,0.43440117842832515
0.471303394039183,0.471303394039183
0.5180462004796029,0.5180462004796029
0.5249346140602964,0.5249346140602964
0.5180462004796029,0.5180462004796029
0.4880323984494385,0.4880323984494385
0.5180462004796029,0.5180462004796029
0.58889845445245,0.58889845445245
0.6848442150406804,0.6848442150406804
0.7094456921145856,0.7094456921145856
0.6848442150406804,0.6848442150406804
0.6208803746485267,0.6208803746485267
0.6011991929894026,0.6011991929894026
0.6169441383167019,0.6169441383167019
0.6848442150406804,0.6848442150406804
0.7143659875293666,0.7143659875293666
0.6848442150406804,0.6848442150406804
0.5815180113302784,0.5815180113302784
0.5180462004796029,0.5180462004796029
0.5008251665278692,0.5008251665278692
0.5180462004796029,0.5180462004796029
0.4831121030346575,0.4831121030346575
0.43440117842832515,0.43440117842832515
0.3566605108747846,0.3566605108747846
0.26760316386724764,0.26760316386724764
0.12737474454598782,0.12737474454598782
0.017160127254892396,0.017160127254892396
-0.05123197901056415,-0.05123197901056415
-0.06599286525490729,-0.06599286525490729
-0.11076755352941481,-0.11076755352941481
-0.14963788730618507,-0.14963788730618507
-0.17669951208748083,-0.17669951208748083
-0.14963788730618507,-0.14963788730618507
-0.14324150326696972,-0.14324150326696972
-0.14963788730618507,-0.14963788730618507
-0.17473139392156842,-0.17473139392156842
-0.14963788730618507,-0.14963788730618507
-0.1324168533544514,-0.1324168533544514
-0.14963788730618507,-0.14963788730618507
-0.24656770697737168,-0.24656770697737168
-0.31643590186726256,-0.31643590186726256
-0.31889604957465306,-0.31889604957465306
-0.23328290935746288,-0.23328290935746288
-0.1722712462141779,-0.1722712462141779
-0.14963788730618507,-0.14963788730618507
-0.17030312804826547,-0.17030312804826547
-0.14963788730618507,-0.14963788730618507
-0.11470378986123965,-0.11470378986123965
-0.06599286525490729,-0.06599286525490729
-0.06353271754751677,-0.06353271754751677
-0.06599286525490729,-0.06599286525490729
-0.08321389920664095,-0.08321389920664095
-0.06599286525490729,-0.06599286525490729
-0.04286747680543637,-0.04286747680543637
0.017160127254892396,0.017160127254892396
0.06587105186122476,0.06587105186122476
0.10080514930617018,0.10080514930617018
0.06636308140270286,0.06636308140270286
0.017160127254892396,0.017160127254892396
-0.020234117897443556,-0.020234117897443556
0.017160127254892396,0.017160127254892396
0.06734714048565907,0.06734714048565907
0.10080514930617018,0.10080514930617018
0.06095075644644371,0.06095075644644371
0.017160127254892396,0.017160127254892396
-0.010393527067881466,-0.010393527067881466
0.017160127254892396,0.017160127254892396
0.02700071808445449,0.02700071808445449
0.017160127254892396,0.017160127254892396
-0.03450297460030859,-0.03450297460030859
-0.06599286525490729,-0.06599286525490729
-0.10732334673906808,-0.10732334673906808
-0.14963788730618507,-0.14963788730618507
-0.2382032047722439,-0.2382032047722439
-0.31643590186726256,-0.31643590186726256
-0.38236786042532855,-0.38236786042532855
-0.40008092391854033,-0.40008092391854033
-0.4384592281538325,-0.4384592281538325
-0.48323391642834,-0.48323391642834
-0.5280086047028475,-0.5280086047028475
-0.48323391642834,-0.48323391642834
-0.39762077621114983,-0.39762077621114983
-0.31643590186726256,-0.31643590186726256
-0.31594387232578447,-0.31594387232578447
-0.31643590186726256,-0.31643590186726256
-0.29724674974961646,-0.29724674974961646
-0.23328290935746288,-0.23328290935746288
-0.1949046051221707,-0.1949046051221707
-0.14963788730618507,-0.14963788730618507
-0.11322770123680534,-0.11322770123680534
-0.06599286525490729,-0.06599286525490729
-0.06500880617195108,-0.06500880617195108
-0.06599286525490729,-0.06599286525490729
-0.0778015742503818,-0.0778015742503818
-0.06599286525490729,-0.06599286525490729
-0.07681751516742559,-0.07681751516742559
-0.06599286525490729,-0.06599286525490729
-0.04434356542987068,-0.04434356542987068
0.017160127254892396,0.017160127254892396
0.059966697363487496,0.059966697363487496
0.10080514930617018,0.10080514930617018
0.1254066263800754,0.1254066263800754
0.18395814181596987,0.18395814181596987
0.2311929777978679,0.2311929777978679
0.26760316386724764,0.26760316386724764
0.2592386616621199,0.2592386616621199
0.26760316386724764,0.26760316386724764
0.2700633115746382,0.2700633115746382
0.26760316386724764,0.26760316386724764
0.21594006201204666,0.21594006201204666
0.18395814181596987,0.18395814181596987
0.17116537373753915,0.17116537373753915
0.18395814181596987,0.18395814181596987
0.15000810345398063,0.15000810345398063
0.10080514930617018,0.10080514930617018
0.020112304503761023,0.020112304503761023
-0.06599286525490729,-0.06599286525490729
-0.19736475282956123,-0.19736475282956123
-0.31643590186726256,-0.31643590186726256
-0.4246824009924456,-0.4246824009924456
-0.48323391642834,-0.48323391642834
-0.5211201911221541,-0.5211201911221541
-0.48323391642834,-0.48323391642834
-0.4074613670407119,-0.4074613670407119
-0.31643590186726256,-0.31643590186726256
-0.3001989269984851,-0.3001989269984851
-0.31643590186726256,-0.31643590186726256
-0.3439895561900364,-0.3439895561900364
-0.31643590186726256,-0.31643590186726256
-0.2824858635052733,-0.2824858635052733
-0.23328290935746288,-0.23328290935746288
-0.20326910732729847,-0.20326910732729847
-0.14963788730618507,-0.14963788730618507
-0.10830740582202429,-0.10830740582202429
-0.06599286525490729,-0.06599286525490729
-0.0674689538793416,-0.0674689538793416
-0.06599286525490729,-0.06599286525490729
-0.0778015742503818,-0.0778015742503818
-0.06599286525490729,-0.06599286525490729
-0.07189721975264454,-0.07189721975264454
-0.06599286525490729,-0.06599286525490729
-0.0778015742503818,-0.0778015742503818
-0.06599286525490729,-0.06599286525490729
-0.04778777222021742,-0.04778777222021742
0.017160127254892396,0.017160127254892396
0.07128337681748391,0.07128337681748391
0.10080514930617018,0.10080514930617018
0.058490608739053186,0.058490608739053186
0.017160127254892396,0.017160127254892396
-0.0074413498190128375,-0.0074413498190128375
0.017160127254892396,0.017160127254892396
0.02109636358671723,0.02109636358671723
0.017160127254892396,0.017160127254892396
-0.0035051134871880003,-0.0035051134871880003
0.017160127254892396,0.017160127254892396
0.02700071808445449,0.02700071808445449
0.017160127254892396,0.017160127254892396
-0.041391388181002055,-0.041391388181002055
-0.06599286525490729,-0.06599286525490729
-0.07140519021116644,-0.07140519021116644
-0.06599286525490729,-0.06599286525490729
-0.11470378986123965,-0.11470378986123965
-0.14963788730618507,-0.14963788730618507
-0.16587486217496253,-0.16587486217496253
-0.14963788730618507,-0.14963788730618507
-0.1624306553846158,-0.1624306553846158
-0.14963788730618507,-0.14963788730618507
-0.12159220344193311,-0.12159220344193311
-0.06599286525490729,-0.06599286525490729
-0.037947181390655324,-0.037947181390655324
0.017160127254892396,0.017160127254892396
0.06685511094418096,0.06685511094418096
0.10080514930617018,0.10080514930617018
0.07964787902261168,0.07964787902261168
0.10080514930617018,0.10080514930617018
0.14951607391250255,0.14951607391250255
0.18395814181596987,0.18395814181596987
0.13131098087781268,0.13131098087781268
0.10080514930617018,0.10080514930617018
0.12639068546303162,0.12639068546303162
0.18395814181596987,0.18395814181596987
0.15542042841023979,0.15542042841023979
0.10080514930617018,0.10080514930617018
0.06636308140270286,0.06636308140270286
0.10080514930617018,0.10080514930617018
0.1027732674720826,0.1027732674720826
0.10080514930617018,0.10080514930617018
0.08112396764704599,0.08112396764704599
0.10080514930617018,0.10080514930617018
0.09588485389138914,0.09588485389138914
0.10080514930617018,0.10080514930617018
0.08850441076921757,0.08850441076921757
0.10080514930617018,0.10080514930617018
0.09342470618399862,0.09342470618399862
0.10080514930617018,0.10080514930617018
0.09047252893512998,0.09047252893512998
0.10080514930617018,0.10080514930617018
0.11802618325790384,0.11802618325790384
0.18395814181596987,0.18395814181596987
0.2405415390859519,0.2405415390859519
0.35124818591852547,0.35124818591852547
0.6996051012850235,0.6996051012850235
1.6029713394388236,1.6029713394388236
3.0126359757735934,3.0126359757735934
4.523166668111375,4.523166668111375
5.59136280266034,5.59136280266034
6.025332858244028,6.025332858244028
5.832457277984611,5.832457277984611
5.190850755897163,5.190850755897163
4.341115737764476,4.341115737764476
3.6055315732547095,3.6055315732547095
2.959496785293958,2.959496785293958
2.187010405173334,2.187010405173334
1.2457578923257198,1.2457578923257198
0.5180462004796029,0.5180462004796029
0.13721533537554992,0.13721533537554992
-0.14963788730618507,-0.14963788730618507
-0.5521180522352747,-0.5521180522352747
-0.7336769530406952,-0.7336769530406952
-0.4724092665158217,-0.4724092665158217
-0.06599286525490729,-0.06599286525490729
-0.030074708727005652,-0.030074708727005652
-0.31643590186726256,-0.31643590186726256
-0.6027970950075194,-0.6027970950075194
-0.7336769530406952,-0.7336769530406952
-0.887682199523342,-0.887682199523342
-1.0677650117043282,-1.0677650117043282
-1.2060253128596758,-1.2060253128596758
-1.2345630262654057,-1.2345630262654057
-1.277861625915479,-1.277861625915479
-1.3177160187752055,-1.3177160187752055
-1.3462537321809356,-1.3462537321809356
-1.3177160187752055,-1.3177160187752055
-1.315255871067815,-1.315255871067815
-1.3177160187752055,-1.3177160187752055
-1.3334609641025048,-1.3334609641025048
-1.3177160187752055,-1.3177160187752055
-1.3177160187752055,-1.3177160187752055
-1.3177160187752055,-1.3177160187752055
-1.3359211118098953,-1.3359211118098953
-1.3177160187752055,-1.3177160187752055
-1.2852420690376505,-1.2852420690376505
-1.2345630262654057,-1.2345630262654057
-1.2281666422261905,-1.2281666422261905
-1.2345630262654057,-1.2345630262654057
-1.2517840602171395,-1.2517840602171395
-1.2345630262654057,-1.2345630262654057
-1.230626789933581,-1.230626789933581
-1.2345630262654057,-1.2345630262654057
-1.2576884147148768,-1.2576884147148768
-1.2345630262654057,-1.2345630262654057
-1.1917564561568108,-1.1917564561568108
-1.150918004214128,-1.150918004214128
-1.1799477471613362,-1.1799477471613362
-1.2345630262654057,-1.2345630262654057
-1.297050778033125,-1.297050778033125
-1.3177160187752055,-1.3177160187752055
-1.3310008163951144,-1.3310008163951144
-1.3177160187752055,-1.3177160187752055
-1.3191921073996398,-1.3191921073996398
-1.3177160187752055,-1.3177160187752055
-1.3364131413513736,-1.3364131413513736
-1.3177160187752055,-1.3177160187752055
-1.28278192133026,-1.28278192133026
-1.2345630262654057,-1.2345630262654057
-1.2321028785580153,-1.2321028785580153
-1.2345630262654057,-1.2345630262654057
-1.2458797057194022,-1.2458797057194022
-1.2345630262654057,-1.2345630262654057
-1.2429275284705337,-1.2429275284705337
-1.2345630262654057,-1.2345630262654057
-1.216849962772194,-1.216849962772194
-1.150918004214128,-1.150918004214128
-1.0790816911583248,-1.0790816911583248
-0.9841199896530506,-0.9841199896530506
-0.9044112039335976,-0.9044112039335976
-0.817321975091973,-0.817321975091973
-0.7695951095685969,-0.7695951095685969
-0.7336769530406952,-0.7336769530406952
-0.7149798304645273,-0.7149798304645273
-0.6505239605308956,-0.6505239605308956
-0.5732753225188332,-0.5732753225188332
-0.48323391642834,-0.48323391642834
-0.4177939874117521,-0.4177939874117521
-0.31643590186726256,-0.31643590186726256
-0.1968727232880831,-0.1968727232880831
-0.06599286525490729,-0.06599286525490729
-0.006949320277534732,-0.006949320277534732
0.017160127254892396,0.017160127254892396
0.030936954416279326,0.030936954416279326
0.10080514930617018,0.10080514930617018
0.15837260565910843,0.15837260565910843
0.18395814181596987,0.18395814181596987
0.16329290107388947,0.16329290107388947
0.18395814181596987,0.18395814181596987
0.20413135301657215,0.20413135301657215
0.18395814181596987,0.18395814181596987
0.1022812379306045,0.1022812379306045
0.10080514930617018,0.10080514930617018
0.18199002365005745,0.18199002365005745
0.26760316386724764,0.26760316386724764
0.25628648441325125,0.25628648441325125
0.26760316386724764,0.26760316386724764
0.3423916541719196,0.3423916541719196
0.43440117842832515,0.43440117842832515
0.4294808830135441,0.4294808830135441
0.43440117842832515,0.43440117842832515
0.5027932846937817,0.5027932846937817
0.6011991929894026,0.6011991929894026
0.5864383067450595,0.5864383067450595
0.5180462004796029,0.5180462004796029
0.4540823600874493,0.4540823600874493
0.43440117842832515,0.43440117842832515
0.38027792886573364,0.38027792886573364
0.35124818591852547,0.35124818591852547
0.3660090721628686,0.3660090721628686
0.43440117842832515,0.43440117842832515
0.4491620646726683,0.4491620646726683
0.43440117842832515,0.43440117842832515
0.4097997013544199,0.4097997013544199
0.43440117842832515,0.43440117842832515
0.44128959200901857,0.44128959200901857
0.43440117842832515,0.43440117842832515
0.405371435481117,0.405371435481117
0.43440117842832515,0.43440117842832515
0.48015992578578887,0.48015992578578887
0.5180462004796029,0.5180462004796029
0.47769977807839836,0.47769977807839836
0.43440117842832515,0.43440117842832515
0.4083236127299856,0.4083236127299856
0.43440117842832515,0.43440117842832515
0.43784538521867183,0.43784538521867183
0.43440117842832515,0.43440117842832515
0.3925786674026862,0.3925786674026862
0.35124818591852547,0.35124818591852547
0.2877763750678499,0.2877763750678499
0.26760316386724764,0.26760316386724764
0.259730691203598,0.259730691203598
0.26760316386724764,0.26760316386724764
0.24693792312516727,0.24693792312516727
0.26760316386724764,0.26760316386724764
0.3040133499366274,0.3040133499366274
0.35124818591852547,0.35124818591852547
0.3665011017043467,0.3665011017043467
0.43440117842832515,0.43440117842832515
0.5288708503921212,0.5288708503921212
0.6011991929894026,0.6011991929894026
0.5642969773785448,0.5642969773785448
0.5180462004796029,0.5180462004796029
0.5209983777284716,0.5209983777284716
0.6011991929894026,0.6011991929894026
0.6538463539275599,0.6538463539275599
0.6848442150406804,0.6848442150406804
0.6848442150406804,0.6848442150406804
0.6848442150406804,0.6848442150406804
0.6159600792337457,0.6159600792337457
0.5180462004796029,0.5180462004796029
0.42849682393058786,0.42849682393058786
0.43440117842832515,0.43440117842832515
0.4555584487118836,0.4555584487118836
0.43440117842832515,0.43440117842832515
0.33107497471792313,0.33107497471792313
0.26760316386724764,0.26760316386724764
0.2572705434962075,0.2572705434962075
0.26760316386724764,0.26760316386724764
0.19379873264553196,0.19379873264553196
0.10080514930617018,0.10080514930617018
0.02946086579184501,0.02946086579184501
0.017160127254892396,0.017160127254892396
-0.02367832468779029,-0.02367832468779029
-0.06599286525490729,-0.06599286525490729
-0.09797478545098409,-0.09797478545098409
-0.06599286525490729,-0.06599286525490729
-0.05221603809352036,-0.05221603809352036
-0.06599286525490729,-0.06599286525490729
-0.12700452839819226,-0.12700452839819226
-0.14963788730618507,-0.14963788730618507
-0.15849441905279096,-0.15849441905279096
-0.14963788730618507,-0.14963788730618507
-0.16882703942383115,-0.16882703942383115
-0.14963788730618507,-0.14963788730618507
-0.11322770123680534,-0.11322770123680534
-0.06599286525490729,-0.06599286525490729
-0.07435736746003507,-0.07435736746003507
-0.06599286525490729,-0.06599286525490729
-0.01728194064857493,-0.01728194064857493
0.10080514930617018,0.10080514930617018
0.1962588803529225,0.1962588803529225
0.26760316386724764,0.26760316386724764
0.3010611726877588,0.3010611726877588
0.35124818591852547,0.35124818591852547
0.3660090721628686,0.3660090721628686
0.35124818591852547,0.35124818591852547
0.29122058185819666,0.29122058185819666
0.26760316386724764,0.26760316386724764
0.2592386616621199,0.2592386616621199
0.26760316386724764,0.26760316386724764
0.2498901003740359,0.2498901003740359
0.26760316386724764,0.26760316386724764
0.28236405011159077,0.28236405011159077
0.26760316386724764,0.26760316386724764
0.17214943282049536,0.17214943282049536
0.10080514930617018,0.10080514930617018
0.08210802673000221,0.08210802673000221
0.10080514930617018,0.10080514930617018
0.03831739753845089,0.03831739753845089
-0.06599286525490729,-0.06599286525490729
-0.15505021226244423,-0.15505021226244423
-0.14963788730618507,-0.14963788730618507
-0.13635308968627624,-0.13635308968627624
-0.14963788730618507,-0.14963788730618507
-0.2145857867812949,-0.2145857867812949
-0.23328290935746288,-0.23328290935746288
-0.21163360953242627,-0.21163360953242627
-0.14963788730618507,-0.14963788730618507
-0.11864002619306449,-0.11864002619306449
-0.06599286525490729,-0.06599286525490729
-0.025646442853702708,-0.025646442853702708
0.017160127254892396,0.017160127254892396
-0.01925005881448735,-0.01925005881448735
-0.06599286525490729,-0.06599286525490729
-0.10240305132428704,-0.10240305132428704
-0.06599286525490729,-0.06599286525490729
-0.051724008552042254,-0.051724008552042254
-0.06599286525490729,-0.06599286525490729
-0.10781537628054619,-0.10781537628054619
-0.06599286525490729,-0.06599286525490729
0.019128245420804813,0.019128245420804813
0.10080514930617018,0.10080514930617018
0.12097836050677248,0.12097836050677248
0.18395814181596987,0.18395814181596987
0.32369453159575157,0.32369453159575157
0.6011991929894026,0.6011991929894026
1.1129099161266314,1.1129099161266314
2.103365383122056,2.103365383122056
3.5341872897403843,3.5341872897403843
5.024052741336085,5.024052741336085
6.007619794750816,6.007619794750816
6.275775894856383,6.275775894856383
5.908721856913718,5.908721856913718
5.190850755897163,5.190850755897163
4.353416476301429,4.353416476301429
3.6055315732547095,3.6055315732547095
2.8896285904040675,2.8896285904040675
2.103365383122056,2.103365383122056
1.2787238716047526,1.2787238716047526
0.6848442150406804,0.6848442150406804
0.30893364535140844,0.30893364535140844
-0.06599286525490729,-0.06599286525490729
-0.48520203459425243,-0.48520203459425243
-0.5668789384796178,-0.5668789384796178
-0.22983870256711614,-0.22983870256711614
0.10080514930617018,0.10080514930617018
-0.027614561019615128,-0.027614561019615128
-0.40008092391854033,-0.40008092391854033
-0.6460956946575926,-0.6460956946575926
-0.7336769530406952,-0.7336769530406952
-0.9516460399154957,-0.9516460399154957
-1.2345630262654057,-1.2345630262654057
-1.3634747661326692,-1.3634747661326692
-1.2345630262654057,-1.2345630262654057
-1.0967947546515364,-1.0967947546515364
-1.0677650117043282,-1.0677650117043282
-1.1548542405459528,-1.1548542405459528
-1.2345630262654057,-1.2345630262654057
-1.3034471620723405,-1.3034471620723405
-1.3177160187752055,-1.3177160187752055
-1.3221442846485085,-1.3221442846485085
-1.3177160187752055,-1.3177160187752055
-1.3610146184252787,-1.3610146184252787
-1.4013610408264834,-1.4013610408264834
-1.4308828133151696,-1.4308828133151696
-1.4013610408264834,-1.4013610408264834
-1.361998677508235,-1.361998677508235
-1.3177160187752055,-1.3177160187752055
-1.3182080483166836,-1.3182080483166836
-1.3177160187752055,-1.3177160187752055
-1.3275566096047675,-1.3275566096047675
-1.3177160187752055,-1.3177160187752055
-1.3255884914388552,-1.3255884914388552
-1.3177160187752055,-1.3177160187752055
-1.3216522551070304,-1.3216522551070304
-1.3177160187752055,-1.3177160187752055
-1.3334609641025048,-1.3334609641025048
-1.3177160187752055,-1.3177160187752055
-1.2891783053694754,-1.2891783053694754
-1.2345630262654057,-1.2345630262654057
-1.1996289288204605,-1.1996289288204605
-1.150918004214128,-1.150918004214128
-1.1115556408958795,-1.1115556408958795
-1.0677650117043282,-1.0677650117043282
-1.0653048639969378,-1.0653048639969378
-1.0677650117043282,-1.0677650117043282
-1.0795737206998028,-1.0795737206998028
-1.0677650117043282,-1.0677650117043282
-1.0741613957435436,-1.0741613957435436
-1.0677650117043282,-1.0677650117043282
-1.0515280368355509,-1.0515280368355509
-0.9841199896530506,-0.9841199896530506
-0.9290126810075028,-0.9290126810075028
-0.9004749676017728,-0.9004749676017728
-0.9216322378853312,-0.9216322378853312
-0.9004749676017728,-0.9004749676017728
-0.8335589499607505,-0.8335589499607505
-0.7336769530406952,-0.7336769530406952
-0.7075993873423557,-0.7075993873423557
-0.7336769530406952,-0.7336769530406952
-0.7740233754418999,-0.7740233754418999
-0.7336769530406952,-0.7336769530406952
-0.657412374111589,-0.657412374111589
-0.5668789384796178,-0.5668789384796178
-0.5043911867118985,-0.5043911867118985
-0.40008092391854033,-0.40008092391854033
-0.2746133908416237,-0.2746133908416237
-0.14963788730618507,-0.14963788730618507
-0.10141899224133083,-0.10141899224133083
-0.06599286525490729,-0.06599286525490729
-0.012361645233793885,-0.012361645233793885
0.10080514930617018,0.10080514930617018
0.19429076218701005,0.19429076218701005
0.26760316386724764,0.26760316386724764
0.3005691431462807,0.3005691431462807
0.35124818591852547,0.35124818591852547
0.3896264901538176,0.3896264901538176
0.43440117842832515,0.43440117842832515
0.43784538521867183,0.43784538521867183
0.43440117842832515,0.43440117842832515
0.41570405585215714,0.41570405585215714
0.43440117842832515,0.43440117842832515
0.4422736510919748,0.4422736510919748
0.43440117842832515,0.43440117842832515
0.3792938697827774,0.3792938697827774
0.35124818591852547,0.35124818591852547
0.33894744738157284,0.33894744738157284
0.35124818591852547,0.35124818591852547
0.3355032405912261,0.3355032405912261
0.35124818591852547,0.35124818591852547
0.38273807657312414,0.38273807657312414
0.43440117842832515,0.43440117842832515
0.43636929659423757,0.43636929659423757
0.43440117842832515,0.43440117842832515
0.42456058759876303,0.42456058759876303
0.43440117842832515,0.43440117842832515
0.39799099235894536,0.39799099235894536
0.35124818591852547,0.35124818591852547
0.28925246369228425,0.28925246369228425
0.26760316386724764,0.26760316386724764
0.2508741594569921,0.2508741594569921
0.26760316386724764,0.26760316386724764
0.26760316386724764,0.26760316386724764
0.26760316386724764,0.26760316386724764
0.24447777541777674,0.24447777541777674
0.26760316386724764,0.26760316386724764
0.3030292908536712,0.3030292908536712
0.35124818591852547,0.35124818591852547
0.37240545620208393,0.37240545620208393
0.43440117842832515,0.43440117842832515
0.49147660523978526,0.49147660523978526
0.5180462004796029,0.5180462004796029
0.4845881916590918,0.4845881916590918
0.5180462004796029,0.5180462004796029
0.6100557247360084,0.6100557247360084
0.6848442150406804,0.6848442150406804
0.6179281973996582,0.6179281973996582
0.5180462004796029,0.5180462004796029
0.4752396303710078,0.4752396303710078
0.5180462004796029,0.5180462004796029
0.5072215505670846,0.5072215505670846
0.43440117842832515,0.43440117842832515
0.3227104725127954,0.3227104725127954
0.26760316386724764,0.26760316386724764
0.24496980495925486,0.24496980495925486
0.26760316386724764,0.26760316386724764
0.2705553411161163,0.2705553411161163
0.26760316386724764,0.26760316386724764
0.24152559816890812,0.24152559816890812
0.26760316386724764,0.26760316386724764
0.31090176351732085,0.31090176351732085
0.35124818591852547,0.35124818591852547
0.3138539407661895,0.3138539407661895
0.26760316386724764,0.26760316386724764
0.23808139137856138,0.23808139137856138
0.26760316386724764,0.26760316386724764
0.27547563653089735,0.27547563653089735
0.26760316386724764,0.26760316386724764
0.23857342092003947,0.23857342092003947
0.26760316386724764,0.26760316386724764
0.31090176351732085,0.31090176351732085
0.35124818591852547,0.35124818591852547
0.3384554178400947,0.3384554178400947
0.35124818591852547,0.35124818591852547
0.38273807657312414,0.38273807657312414
0.43440117842832515,0.43440117842832515
0.43538523751128133,0.43538523751128133
0.43440117842832515,0.43440117842832515
0.42554464668171926,0.42554464668171926
0.43440117842832515,0.43440117842832515
0.4201323217254601,0.4201323217254601
0.43440117842832515,0.43440117842832515
0.4422736510919748,0.4422736510919748
0.43440117842832515,0.43440117842832515
0.37142139711912775,0.37142139711912775
0.35124818591852547,0.35124818591852547
0.3797858993242555,0.3797858993242555
0.43440117842832515,0.43440117842832515
0.40881564227146366,0.40881564227146366
0.35124818591852547,0.35124818591852547
0.29072855231671857,0.29072855231671857
0.26760316386724764,0.26760316386724764
0.1982269985188349,0.1982269985188349
0.10080514930617018,0.10080514930617018
-0.014821792941184407,-0.014821792941184407
-0.06599286525490729,-0.06599286525490729
-0.08567404691403148,-0.08567404691403148
-0.06599286525490729,-0.06599286525490729
-0.07042113112821023,-0.07042113112821023
-0.06599286525490729,-0.06599286525490729
-0.08272186966516284,-0.08272186966516284
-0.06599286525490729,-0.06599286525490729
-0.07337330837707885,-0.07337330837707885
-0.06599286525490729,-0.06599286525490729
-0.06156459938160435,-0.06156459938160435
0.017160127254892396,0.017160127254892396
0.08653629260330514,0.08653629260330514
0.10080514930617018,0.10080514930617018
0.027492747625932592,0.027492747625932592
0.017160127254892396,0.017160127254892396
0.08555223352034894,0.08555223352034894
0.18395814181596987,0.18395814181596987
0.2169241210950029,0.2169241210950029
0.26760316386724764,0.26760316386724764
0.32123438388836106,0.32123438388836106
0.35124818591852547,0.35124818591852547
0.4161960853936353,0.4161960853936353
0.8516422296017578,0.8516422296017578
1.7992911264885874,1.7992911264885874
3.104645500029999,3.104645500029999
4.414920168986192,4.414920168986192
5.524446785019317,5.524446785019317
6.142927918657295,6.142927918657295
6.025332858244028,6.025332858244028
5.221356587468805,5.221356587468805
4.273215661040497,4.273215661040497
3.5445199101114246,3.5445199101114246
2.9378474854689216,2.9378474854689216
2.139283539649958,2.139283539649958
1.2688832807751906,1.2688832807751906
0.6179281973996582,0.6179281973996582
0.26760316386724764,0.26760316386724764
-0.07042113112821023,-0.07042113112821023
-0.48323391642834,-0.48323391642834
-0.7695951095685969,-0.7695951095685969
-0.6505239605308956,-0.6505239605308956
-0.2874061589200544,-0.2874061589200544
-0.06599286525490729,-0.06599286525490729
-0.25591626826545566,-0.25591626826545566
-0.6505239605308956,-0.6505239605308956
-0.9629627193694921,-0.9629627193694921
-1.0677650117043282,-1.0677650117043282
-1.1430455315504784,-1.1430455315504784
-1.2345630262654057,-1.2345630262654057
-1.3029551325308624,-1.3029551325308624
-1.2345630262654057,-1.2345630262654057
-1.1563303291703872,-1.1563303291703872
-1.150918004214128,-1.150918004214128
-1.2335789671824495,-1.2335789671824495
-1.2345630262654057,-1.2345630262654057
-1.1523940928385623,-1.1523940928385623
-1.0677650117043282,-1.0677650117043282
-1.1002389614418833,-1.1002389614418833
-1.150918004214128,-1.150918004214128
-1.1430455315504784,-1.1430455315504784
-1.0677650117043282,-1.0677650117043282
-1.0475918005037261,-1.0475918005037261
-1.0677650117043282,-1.0677650117043282
-1.0913824296952774,-1.0913824296952774
-1.0677650117043282,-1.0677650117043282
-1.0638287753725035,-1.0638287753725035
-1.0677650117043282,-1.0677650117043282
-1.0820338684071933,-1.0820338684071933
-1.0677650117043282,-1.0677650117043282
-1.0682570412458063,-1.0682570412458063
-1.0677650117043282,-1.0677650117043282
-1.0815418388657152,-1.0815418388657152
-1.0677650117043282,-1.0677650117043282
-1.0623526867480693,-1.0623526867480693
-1.0677650117043282,-1.0677650117043282
-1.1381252361356973,-1.1381252361356973
-1.2345630262654057,-1.2345630262654057
-1.343301554932067,-1.343301554932067
-1.4013610408264834,-1.4013610408264834
-1.4441676109350783,-1.4441676109350783
-1.485006062877761,-1.485006062877761
-1.5962047392518126,-1.5962047392518126
-1.7349570699486383,-1.7349570699486383
-1.846647775864168,-1.846647775864168
-1.818602091999916,-1.818602091999916
-1.7024831202110833,-1.7024831202110833
-1.5681590553875608,-1.5681590553875608
-1.4968147718732356,-1.4968147718732356
-1.4013610408264834,-1.4013610408264834
-1.2552282670074861,-1.2552282670074861
-1.0677650117043282,-1.0677650117043282
-0.9565663353302767,-0.9565663353302767
-0.9004749676017728,-0.9004749676017728
-0.8557002793272652,-0.8557002793272652
-0.7336769530406952,-0.7336769530406952
-0.5998449177586508,-0.5998449177586508
-0.48323391642834,-0.48323391642834
-0.41484181016288346,-0.41484181016288346
-0.31643590186726256,-0.31643590186726256
-0.22098217082051025,-0.22098217082051025
-0.14963788730618507,-0.14963788730618507
-0.13389294197888574,-0.13389294197888574
-0.06599286525490729,-0.06599286525490729
0.054554372407228345,0.054554372407228345
0.18395814181596987,0.18395814181596987
0.2287328300904774,0.2287328300904774
0.26760316386724764,0.26760316386724764
0.3374713587571385,0.3374713587571385
0.43440117842832515,0.43440117842832515
0.4540823600874493,0.4540823600874493
0.43440117842832515,0.43440117842832515
0.410291730895898,0.410291730895898
0.43440117842832515,0.43440117842832515
0.4604787441266647,0.4604787441266647
0.5180462004796029,0.5180462004796029
0.5677411841688915,0.5677411841688915
0.6011991929894026,0.6011991929894026
0.5613448001296761,0.5613448001296761
0.5180462004796029,0.5180462004796029
0.49000051661535093,0.49000051661535093
0.5180462004796029,0.5180462004796029
0.5460918843438549,0.5460918843438549
0.6011991929894026,0.6011991929894026
0.6474499698883445,0.6474499698883445
0.6848442150406804,0.6848442150406804
0.6321970541025232,0.6321970541025232
0.5180462004796029,0.5180462004796029
0.36502501307991236,0.36502501307991236
0.26760316386724764,0.26760316386724764
0.18199002365005745,0.18199002365005745
0.10080514930617018,0.10080514930617018
0.008795625049764616,0.008795625049764616
0.017160127254892396,0.017160127254892396
0.09490079480843293,0.09490079480843293
0.18395814181596987,0.18395814181596987
0.20757555980691889,0.20757555980691889
0.26760316386724764,0.26760316386724764
0.3596126881236532,0.3596126881236532
0.43440117842832515,0.43440117842832515
0.41521202631067905,0.41521202631067905
0.43440117842832515,0.43440117842832515
0.5180462004796029,0.5180462004796029
0.6011991929894026,0.6011991929894026
0.5642969773785448,0.5642969773785448
0.5180462004796029,0.5180462004796029
0.5106657573574314,0.5106657573574314
0.5180462004796029,0.5180462004796029
0.45014612375562446,0.45014612375562446
0.43440117842832515,0.43440117842832515
0.5077135801085627,0.5077135801085627
0.6011991929894026,0.6011991929894026
0.570201331876282,0.570201331876282
0.5180462004796029,0.5180462004796029
0.527394761767687,0.527394761767687
0.6011991929894026,0.6011991929894026
0.6110397838189647,0.6110397838189647
0.6011991929894026,0.6011991929894026
0.5962788975746216,0.5962788975746216
0.6011991929894026,0.6011991929894026
0.5239505549773402,0.5239505549773402
0.43440117842832515,0.43440117842832515
0.3881504015293833,0.3881504015293833
0.43440117842832515,0.43440117842832515
0.48015992578578887,0.48015992578578887
0.5180462004796029,0.5180462004796029
0.5170621413966467,0.5170621413966467
0.5180462004796029,0.5180462004796029
0.47671571899544213,0.47671571899544213
0.43440117842832515,0.43440117842832515
0.39995911052485783,0.39995911052485783
0.43440117842832515,0.43440117842832515
0.45851062596075226,0.45851062596075226
0.43440117842832515,0.43440117842832515
0.3330430928838356,0.3330430928838356
0.26760316386724764,0.26760316386724764
0.22676471192456496,0.22676471192456496
0.18395814181596987,0.18395814181596987
0.09834500159877967,0.09834500159877967
0.10080514930617018,0.10080514930617018
0.1874023486063166,0.1874023486063166
0.26760316386724764,0.26760316386724764
0.20216323485065973,0.20216323485065973
0.10080514930617018,0.10080514930617018
0.05799857919757508,0.05799857919757508
0.10080514930617018,0.10080514930617018
0.10572544472095123,0.10572544472095123
0.10080514930617018,0.10080514930617018
0.11162979921868849,0.11162979921868849
0.18395814181596987,0.18395814181596987
0.23562124367117085,0.23562124367117085
0.26760316386724764,0.26760316386724764
0.24152559816890812,0.24152559816890812
0.18395814181596987,0.18395814181596987
0.07571164269078684,0.07571164269078684
0.017160127254892396,0.017160127254892396
0.04815798836801299,0.04815798836801299
0.18395814181596987,0.18395814181596987
0.27793578423828785,0.27793578423828785
0.26760316386724764,0.26760316386724764
0.15640448749319602,0.15640448749319602
0.10080514930617018,0.10080514930617018
0.11950227188233815,0.11950227188233815
0.18395814181596987,0.18395814181596987
0.21151179613874374,0.21151179613874374
0.26760316386724764,0.26760316386724764
0.33009091563496695,0.33009091563496695
0.35124818591852547,0.35124818591852547
0.23709733229560517,0.23709733229560517
0.10080514930617018,0.10080514930617018
0.03782536799697279,0.03782536799697279
0.10080514930617018,0.10080514930617018
0.16378493061536759,0.16378493061536759
0.18395814181596987,0.18395814181596987
0.11851821279938195,0.11851821279938195
0.017160127254892396,0.017160127254892396
-0.1294646761055828,-0.1294646761055828
-0.23328290935746288,-0.23328290935746288
-0.25591626826545566,-0.25591626826545566
-0.14963788730618507,-0.14963788730618507
-0.033518915517352386,-0.033518915517352386
0.017160127254892396,0.017160127254892396
-0.03893124047361153,-0.03893124047361153
-0.06599286525490729,-0.06599286525490729
-0.020234117897443556,-0.020234117897443556
0.10080514930617018,0.10080514930617018
0.19232264402109764,0.19232264402109764
0.26760316386724764,0.26760316386724764
0.28826840460932807,0.28826840460932807
0.26760316386724764,0.26760316386724764
0.19429076218701005,0.19429076218701005
0.18395814181596987,0.18395814181596987
0.22824080054899928,0.22824080054899928
0.26760316386724764,0.26760316386724764
0.19232264402109764,0.19232264402109764
0.10080514930617018,0.10080514930617018
0.08358411535443652,0.08358411535443652
0.18395814181596987,0.18395814181596987
0.2612067798280323,0.2612067798280323
0.26760316386724764,0.26760316386724764
0.20413135301657215,0.20413135301657215
0.18395814181596987,0.18395814181596987
0.2070835302654408,0.2070835302654408
0.26760316386724764,0.26760316386724764
0.2813799910286346,0.2813799910286346
0.26760316386724764,0.26760316386724764
0.21495600292909045,0.21495600292909045
0.18395814181596987,0.18395814181596987
0.16083275336649894,0.16083275336649894
0.18395814181596987,0.18395814181596987
0.1952748212699663,0.1952748212699663
0.18395814181596987,0.18395814181596987
0.10129717884764829,0.10129717884764829
0.017160127254892396,0.017160127254892396
-0.053692126717954675,-0.053692126717954675
-0.06599286525490729,-0.06599286525490729
-0.07435736746003507,-0.07435736746003507
-0.06599286525490729,-0.06599286525490729
-0.09797478545098409,-0.09797478545098409
-0.14963788730618507,-0.14963788730618507
-0.22688652531824752,-0.22688652531824752
-0.23328290935746288,-0.23328290935746288
-0.17473139392156842,-0.17473139392156842
-0.06599286525490729,-0.06599286525490729
-0.01186961569231578,-0.01186961569231578
0.017160127254892396,0.017160127254892396
0.05504640194870645,0.05504640194870645
0.18395814181596987,0.18395814181596987
0.32861482701053263,0.32861482701053263
0.43440117842832515,0.43440117842832515
0.4407975624675405,0.4407975624675405
0.43440117842832515,0.43440117842832515
0.42849682393058786,0.42849682393058786
0.43440117842832515,0.43440117842832515
0.39110257877825194,0.39110257877825194
0.35124818591852547,0.35124818591852547
0.3049974090195836,0.3049974090195836
0.26760316386724764,0.26760316386724764
0.20117917576770353,0.20117917576770353
0.18395814181596987,0.18395814181596987
0.21101976659726562,0.21101976659726562
0.26760316386724764,0.26760316386724764
0.2725234592820287,0.2725234592820287
0.26760316386724764,0.26760316386724764
0.23414515504673655,0.23414515504673655
0.18395814181596987,0.18395814181596987
0.1027732674720826,0.1027732674720826
0.10080514930617018,0.10080514930617018
0.15443636932728358,0.15443636932728358
0.18395814181596987,0.18395814181596987
0.07423555406635253,0.07423555406635253
-0.06599286525490729,-0.06599286525490729
-0.15455818272096614,-0.15455818272096614
-0.14963788730618507,-0.14963788730618507
-0.1535741236380099,-0.1535741236380099
-0.14963788730618507,-0.14963788730618507
-0.15406615317948802,-0.15406615317948802
-0.14963788730618507,-0.14963788730618507
-0.19834881191251744,-0.19834881191251744
-0.23328290935746288,-0.23328290935746288
-0.2283626139426818,-0.2283626139426818
-0.14963788730618507,-0.14963788730618507
-0.09207043095324684,-0.09207043095324684
-0.06599286525490729,-0.06599286525490729
-0.08665810599698769,-0.08665810599698769
-0.06599286525490729,-0.06599286525490729
-0.009409467984925255,-0.009409467984925255
0.10080514930617018,0.10080514930617018
0.19232264402109764,0.19232264402109764
0.26760316386724764,0.26760316386724764
0.27645969561385353,0.27645969561385353
0.26760316386724764,0.26760316386724764
0.26514301615985714,0.26514301615985714
0.35124818591852547,0.35124818591852547
0.45703453733631794,0.45703453733631794
0.5180462004796029,0.5180462004796029
0.4732715122050954,0.4732715122050954
0.43440117842832515,0.43440117842832515
0.42800479438910977,0.42800479438910977
0.43440117842832515,0.43440117842832515
0.3566605108747846,0.3566605108747846
0.26760316386724764,0.26760316386724764
0.22627268238308687,0.22627268238308687
0.26760316386724764,0.26760316386724764
0.2641589570769009,0.2641589570769009
0.18395814181596987,0.18395814181596987
0.032413043040713636,0.032413043040713636
-0.06599286525490729,-0.06599286525490729
-0.09797478545098409,-0.09797478545098409
-0.06599286525490729,-0.06599286525490729
-0.08124578104072853,-0.08124578104072853
-0.14963788730618507,-0.14963788730618507
-0.2677249772609302,-0.2677249772609302
-0.31643590186726256,-0.31643590186726256
-0.27559744992457985,-0.27559744992457985
-0.14963788730618507,-0.14963788730618507
-0.09256246049472494,-0.09256246049472494
-0.14963788730618507,-0.14963788730618507
-0.2878981884615325,-0.2878981884615325
-0.31643590186726256,-0.31643590186726256
-0.21802999357164163,-0.21802999357164163
-0.06599286525490729,-0.06599286525490729
-0.006949320277534732,-0.006949320277534732
0.017160127254892396,0.017160127254892396
0.044713781577666256,0.044713781577666256
0.10080514930617018,0.10080514930617018
0.1022812379306045,0.1022812379306045
0.10080514930617018,0.10080514930617018
0.11605806509199143,0.11605806509199143
0.18395814181596987,0.18395814181596987
0.23070094825638982,0.23070094825638982
0.26760316386724764,0.26760316386724764
0.26465098661837905,0.26465098661837905
0.26760316386724764,0.26760316386724764
0.29515681819002154,0.29515681819002154
0.43440117842832515,0.43440117842832515
0.6036593406967932,0.6036593406967932
0.6848442150406804,0.6848442150406804
0.5780738045399317,0.5780738045399317
0.43440117842832515,0.43440117842832515
0.3748656039094745,0.3748656039094745
0.43440117842832515,0.43440117842832515
0.46736715770735815,0.46736715770735815
0.43440117842832515,0.43440117842832515
0.335011211049748,0.335011211049748
0.26760316386724764,0.26760316386724764
0.23562124367117085,0.23562124367117085
0.26760316386724764,0.26760316386724764
0.2853162273604594,0.2853162273604594
0.26760316386724764,0.26760316386724764
0.1746095805278859,0.1746095805278859
0.10080514930617018,0.10080514930617018
0.0702993177345277,0.0702993177345277
0.10080514930617018,0.10080514930617018
0.08260005627148032,0.08260005627148032
0.017160127254892396,0.017160127254892396
-0.07091316066968834,-0.07091316066968834
-0.06599286525490729,-0.06599286525490729
-0.015805852024140615,-0.015805852024140615
0.017160127254892396,0.017160127254892396
-0.06254865846456056,-0.06254865846456056
-0.14963788730618507,-0.14963788730618507
-0.19785678237103932,-0.19785678237103932
-0.14963788730618507,-0.14963788730618507
-0.10830740582202429,-0.10830740582202429
-0.06599286525490729,-0.06599286525490729
-0.06845301296229782,-0.06845301296229782
-0.06599286525490729,-0.06599286525490729
-0.08665810599698769,-0.08665810599698769
-0.06599286525490729,-0.06599286525490729
-0.03450297460030859,-0.03450297460030859
0.017160127254892396,0.017160127254892396
0.04225363387027573,0.04225363387027573
0.10080514930617018,0.10080514930617018
0.1770697282352764,0.1770697282352764
0.26760316386724764,0.26760316386724764
0.32763076792757645,0.32763076792757645
0.5180462004796029,0.5180462004796029
1.0637069619788209,1.0637069619788209
2.187010405173334,2.187010405173334
3.734935342663451,3.734935342663451
5.274495777948441,5.274495777948441
6.227556999791529,6.227556999791529
6.358928887366183,6.358928887366183
5.786698530627147,5.786698530627147
4.940407719284807,4.940407719284807
4.146272039339147,4.146272039339147
3.5218865512034316,3.5218865512034316
2.8581386997494684,2.8581386997494684
2.019720361070778,2.019720361070778
1.1055294730044598,1.1055294730044598
0.43440117842832515,0.43440117842832515
0.023556511294107754,0.023556511294107754
-0.31643590186726256,-0.31643590186726256
-0.6652848467752387,-0.6652848467752387
-0.7336769530406952,-0.7336769530406952
-0.45617229164704426,-0.45617229164704426
-0.14963788730618507,-0.14963788730618507
-0.20179301870286417,-0.20179301870286417
-0.48323391642834,-0.48323391642834
-0.7159638895474835,-0.7159638895474835
-0.817321975091973,-0.817321975091973
-0.9747714283649666,-0.9747714283649666
-1.150918004214128,-1.150918004214128
-1.2552282670074861,-1.2552282670074861
-1.2345630262654057,-1.2345630262654057
-1.254736237466008,-1.254736237466008
-1.3177160187752055,-1.3177160187752055
-1.3939805977043118,-1.3939805977043118
-1.4013610408264834,-1.4013610408264834
-1.4062813362412643,-1.4062813362412643
-1.4013610408264834,-1.4013610408264834
-1.4126777202804797,-1.4126777202804797
-1.4013610408264834,-1.4013610408264834
-1.405297277158308,-1.405297277158308
-1.4013610408264834,-1.4013610408264834
-1.4121856907390016,-1.4121856907390016
-1.4013610408264834,-1.4013610408264834
-1.4033291589923957,-1.4033291589923957
-1.4013610408264834,-1.4013610408264834
-1.4195661338611731,-1.4195661338611731
-1.4013610408264834,-1.4013610408264834
-1.366918972923016,-1.366918972923016
-1.3177160187752055,-1.3177160187752055
-1.3137797824433806,-1.3137797824433806
-1.3177160187752055,-1.3177160187752055
-1.3305087868536363,-1.3305087868536363
-1.3177160187752055,-1.3177160187752055
-1.3216522551070304,-1.3216522551070304
-1.3177160187752055,-1.3177160187752055
-1.3265725505218113,-1.3265725505218113
-1.3177160187752055,-1.3177160187752055
-1.325096461897377,-1.325096461897377
-1.3177160187752055,-1.3177160187752055
-1.3241124028144209,-1.3241124028144209
-1.3177160187752055,-1.3177160187752055
-1.3280486391462456,-1.3280486391462456
-1.3177160187752055,-1.3177160187752055
-1.320176166482596,-1.320176166482596
-1.3177160187752055,-1.3177160187752055
-1.3354290822684172,-1.3354290822684172
-1.3177160187752055,-1.3177160187752055
-1.287210187203563,-1.287210187203563
-1.2345630262654057,-1.2345630262654057
-1.2035651651522852,-1.2035651651522852
-1.150918004214128,-1.150918004214128
-1.1056512863981425,-1.1056512863981425
-1.0677650117043282,-1.0677650117043282
-1.0795737206998028,-1.0795737206998028
-1.0677650117043282,-1.0677650117043282
-1.014625821224693,-1.014625821224693
-0.9004749676017728,-0.9004749676017728
-0.8079734138038891,-0.8079734138038891
-0.7336769530406952,-0.7336769530406952
-0.6972667669713155,-0.6972667669713155
-0.6505239605308956,-0.6505239605308956
-0.6170659517103845,-0.6170659517103845
-0.5668789384796178,-0.5668789384796178
-0.5329289001176286,-0.5329289001176286
-0.48323391642834,-0.48323391642834
-0.4291106668657485,-0.4291106668657485
-0.31643590186726256,-0.31643590186726256
-0.19146039833182396,-0.19146039833182396
-0.06599286525490729,-0.06599286525490729
0.011747802298633243,0.011747802298633243
0.10080514930617018,0.10080514930617018
0.1854342304404042,0.1854342304404042
0.26760316386724764,0.26760316386724764
0.27990390240420027,0.27990390240420027
0.26760316386724764,0.26760316386724764
0.24644589358368915,0.24644589358368915
0.26760316386724764,0.26760316386724764
0.2720314297405506,0.2720314297405506
0.26760316386724764,0.26760316386724764
0.24447777541777674,0.24447777541777674
0.26760316386724764,0.26760316386724764
0.27990390240420027,0.27990390240420027
0.26760316386724764,0.26760316386724764
0.22479659375865255,0.22479659375865255
0.26760316386724764,0.26760316386724764
0.36354892445547804,0.36354892445547804
0.43440117842832515,0.43440117842832515
0.3906105492367738,0.3906105492367738
0.35124818591852547,0.35124818591852547
0.36945327895321534,0.36945327895321534
0.43440117842832515,0.43440117842832515
0.4358772670527594,0.4358772670527594
0.43440117842832515,0.43440117842832515
0.45851062596075226,0.45851062596075226
0.5180462004796029,0.5180462004796029
0.5195222891040372,0.5195222891040372
0.5180462004796029,0.5180462004796029
0.537235352597249,0.537235352597249
0.6011991929894026,0.6011991929894026
0.61743616785818,0.61743616785818
0.6011991929894026,0.6011991929894026
0.5500281206756797,0.5500281206756797
0.5180462004796029,0.5180462004796029
0.46835121679031433,0.46835121679031433
0.43440117842832515,0.43440117842832515
0.3856902538219928,0.3856902538219928
0.35124818591852547,0.35124818591852547
0.2946647886485434,0.2946647886485434
0.26760316386724764,0.26760316386724764
0.2513661889984702,0.2513661889984702
0.26760316386724764,0.26760316386724764
0.2400495095444738,0.2400495095444738
0.18395814181596987,0.18395814181596987
0.10523341517947313,0.10523341517947313
0.10080514930617018,0.10080514930617018
0.1362312762925937,0.1362312762925937
0.18395814181596987,0.18395814181596987
0.1755936396108421,0.1755936396108421
0.18395814181596987,0.18395814181596987
0.21249585522169995,0.21249585522169995
0.26760316386724764,0.26760316386724764
0.2710473706575944,0.2710473706575944
0.26760316386724764,0.26760316386724764
0.2548103957888169,0.2548103957888169
0.26760316386724764,0.26760316386724764
0.2548103957888169,0.2548103957888169
0.26760316386724764,0.26760316386724764
0.2941727591070653,0.2941727591070653
0.35124818591852547,0.35124818591852547
0.36059674720660945,0.36059674720660945
0.35124818591852547,0.35124818591852547
0.3261546793031421,0.3261546793031421
0.35124818591852547,0.35124818591852547
0.3861822833634709,0.3861822833634709
0.43440117842832515,0.43440117842832515
0.43833741476015,0.43833741476015
0.43440117842832515,0.43440117842832515
0.41570405585215714,0.41570405585215714
0.43440117842832515,0.43440117842832515
0.43833741476015,0.43833741476015
0.43440117842832515,0.43440117842832515
0.4073395536470294,0.4073395536470294
0.43440117842832515,0.43440117842832515
0.48015992578578887,0.48015992578578887
0.5180462004796029,0.5180462004796029
0.4796678962443108,0.4796678962443108
0.43440117842832515,0.43440117842832515
0.38913446061233953,0.38913446061233953
0.35124818591852547,0.35124818591852547
0.2390654504615176,0.2390654504615176
0.10080514930617018,0.10080514930617018
-0.026630501936658918,-0.026630501936658918
-0.06599286525490729,-0.06599286525490729
-0.0778015742503818,-0.0778015742503818
-0.06599286525490729,-0.06599286525490729
-0.05467618580091088,-0.05467618580091088
0.017160127254892396,0.017160127254892396
0.08358411535443652,0.08358411535443652
0.10080514930617018,0.10080514930617018
0.014699979547501872,0.014699979547501872
-0.06599286525490729,-0.06599286525490729
-0.0999429036168965,-0.0999429036168965
-0.06599286525490729,-0.06599286525490729
-0.061072569840126247,-0.061072569840126247
-0.06599286525490729,-0.06599286525490729
-0.08370592874811905,-0.08370592874811905
-0.06599286525490729,-0.06599286525490729
-0.06992910158673213,-0.06992910158673213
-0.06599286525490729,-0.06599286525490729
-0.055168215342388985,-0.055168215342388985
0.017160127254892396,0.017160127254892396
0.07817179039817737,0.07817179039817737
0.10080514930617018,0.10080514930617018
0.05012610653392541,0.05012610653392541
0.017160127254892396,0.017160127254892396
0.005843447800895988,0.005843447800895988
0.017160127254892396,0.017160127254892396
-0.02367832468779029,-0.02367832468779029
-0.06599286525490729,-0.06599286525490729
-0.09354651957768115,-0.09354651957768115
-0.06599286525490729,-0.06599286525490729
-0.05959648121569193,-0.05959648121569193
-0.06599286525490729,-0.06599286525490729
-0.0896102832458563,-0.0896102832458563
-0.06599286525490729,-0.06599286525490729
-0.05270806763499846,-0.05270806763499846
-0.06599286525490729,-0.06599286525490729
-0.13192482381297332,-0.13192482381297332
-0.14963788730618507,-0.14963788730618507
-0.12208423298341121,-0.12208423298341121
-0.06599286525490729,-0.06599286525490729
-0.06451677663047298,-0.06451677663047298
-0.06599286525490729,-0.06599286525490729
-0.07337330837707885,-0.07337330837707885
-0.06599286525490729,-0.06599286525490729
-0.08715013553846579,-0.08715013553846579
-0.06599286525490729,-0.06599286525490729
-0.023186295146312187,-0.023186295146312187
0.017160127254892396,0.017160127254892396
-0.02269426560483408,-0.02269426560483408
-0.06599286525490729,-0.06599286525490729
-0.08518201737255338,-0.08518201737255338
-0.06599286525490729,-0.06599286525490729
-0.0984668149924622,-0.0984668149924622
-0.14963788730618507,-0.14963788730618507
-0.21114157999094815,-0.21114157999094815
-0.23328290935746288,-0.23328290935746288
-0.25394815009954325,-0.25394815009954325
-0.23328290935746288,-0.23328290935746288
-0.19982490053695176,-0.19982490053695176
-0.14963788730618507,-0.14963788730618507
-0.14668571005731645,-0.14668571005731645
-0.14963788730618507,-0.14963788730618507
-0.163414714467572,-0.163414714467572
-0.14963788730618507,-0.14963788730618507
-0.15406615317948802,-0.15406615317948802
-0.14963788730618507,-0.14963788730618507
-0.16046253721870338,-0.16046253721870338
-0.14963788730618507,-0.14963788730618507
-0.15603427134540043,-0.15603427134540043
-0.14963788730618507,-0.14963788730618507
-0.1599705076772253,-0.1599705076772253
-0.14963788730618507,-0.14963788730618507
-0.15554224180392234,-0.15554224180392234
-0.14963788730618507,-0.14963788730618507
-0.16144659630165958,-0.16144659630165958
-0.14963788730618507,-0.14963788730618507
-0.1525900645550537,-0.1525900645550537
-0.14963788730618507,-0.14963788730618507
-0.16587486217496253,-0.16587486217496253
-0.14963788730618507,-0.14963788730618507
-0.14274947372549163,-0.14274947372549163
-0.14963788730618507,-0.14963788730618507
-0.20769737320060142,-0.20769737320060142
-0.23328290935746288,-0.23328290935746288
-0.2165539049472073,-0.2165539049472073
-0.14963788730618507,-0.14963788730618507
-0.11076755352941481,-0.11076755352941481
-0.06599286525490729,-0.06599286525490729
-0.010393527067881466,-0.010393527067881466
0.10080514930617018,0.10080514930617018
0.19675090989440058,0.19675090989440058
0.26760316386724764,0.26760316386724764
0.2744915774479411,0.2744915774479411
0.26760316386724764,0.26760316386724764
0.22627268238308687,0.22627268238308687
0.18395814181596987,0.18395814181596987
0.12294647867268489,0.12294647867268489
0.10080514930617018,0.10080514930617018
0.08948846985217378,0.08948846985217378
0.10080514930617018,0.10080514930617018
0.08948846985217378,0.08948846985217378
0.10080514930617018,0.10080514930617018
0.1027732674720826,0.1027732674720826
0.10080514930617018,0.10080514930617018
0.05012610653392541,0.05012610653392541
0.017160127254892396,0.017160127254892396
0.0023992410105492554,0.0023992410105492554
0.017160127254892396,0.017160127254892396
-0.015313822482662512,-0.015313822482662512
-0.06599286525490729,-0.06599286525490729
-0.1309407647300171,-0.1309407647300171
-0.14963788730618507,-0.14963788730618507
-0.16144659630165958,-0.16144659630165958
-0.14963788730618507,-0.14963788730618507
-0.15652630088687855,-0.15652630088687855
-0.14963788730618507,-0.14963788730618507
-0.15947847813574717,-0.15947847813574717
-0.14963788730618507,-0.14963788730618507
-0.15603427134540043,-0.15603427134540043
-0.14963788730618507,-0.14963788730618507
-0.1609545667601815,-0.1609545667601815
-0.14963788730618507,-0.14963788730618507
-0.1530820940965318,-0.1530820940965318
-0.14963788730618507,-0.14963788730618507
-0.16735095079939685,-0.16735095079939685
-0.14963788730618507,-0.14963788730618507
-0.1191320557345426,-0.1191320557345426
-0.06599286525490729,-0.06599286525490729
-0.05861242213273572,-0.05861242213273572
-0.06599286525490729,-0.06599286525490729
-0.09157840141176873,-0.09157840141176873
-0.06599286525490729,-0.06599286525490729
-0.008425408901969047,-0.008425408901969047
0.10080514930617018,0.10080514930617018
0.19379873264553196,0.19379873264553196
0.26760316386724764,0.26760316386724764
0.27645969561385353,0.27645969561385353
0.26760316386724764,0.26760316386724764
0.22381253467569634,0.22381253467569634
0.18395814181596987,0.18395814181596987
0.1254066263800754,0.1254066263800754
0.10080514930617018,0.10080514930617018
0.08653629260330514,0.08653629260330514
0.10080514930617018,0.10080514930617018
0.09391673572547672,0.09391673572547672
0.10080514930617018,0.10080514930617018
0.09539282434991103,0.09539282434991103
0.10080514930617018,0.10080514930617018
0.06341090415383423,0.06341090415383423
0.017160127254892396,0.017160127254892396
-0.04483559497134879,-0.04483559497134879
-0.06599286525490729,-0.06599286525490729
-0.078785633333338,-0.078785633333338
-0.06599286525490729,-0.06599286525490729
-0.07337330837707885,-0.07337330837707885
-0.06599286525490729,-0.06599286525490729
-0.07386533791855697,-0.07386533791855697
-0.06599286525490729,-0.06599286525490729
-0.078785633333338,-0.078785633333338
-0.06599286525490729,-0.06599286525490729
-0.04483559497134879,-0.04483559497134879
0.017160127254892396,0.017160127254892396
0.06242684507087802,0.06242684507087802
0.10080514930617018,0.10080514930617018
