ECG,PPG
-0.3925601054332225,-0.3925601054332225
-0.4724904519123251,-0.4724904519123251
-0.8941638103786113,-0.8941638103786113
-0.9798034673205069,-0.9798034673205069
-0.7938430693895335,-0.7938430693895335
-0.7530622803695832,-0.7530622803695832
-0.7938430693895335,-0.7938430693895335
-0.6494790762589094,-0.6494790762589094
-0.459440599425941,-0.459440599425941
-0.5002213884458913,-0.5002213884458913
-0.6266418344077372,-0.6266418344077372
-0.5630238035366147,-0.5630238035366147
-0.42600035242958173,-0.42600035242958173
-0.5026682357870883,-0.5026682357870883
-0.726962575396815,-0.726962575396815
-0.8166803112407057,-0.8166803112407057
-0.726962575396815,-0.726962575396815
-0.6486634604785104,-0.6486634604785104
-0.6600820814040965,-0.6600820814040965
-0.6894442494984607,-0.6894442494984607
-0.6935223284004558,-0.6935223284004558
-0.7082034124476378,-0.7082034124476378
-0.726962575396815,-0.726962575396815
-0.7130971071300319,-0.7130971071300319
-0.6600820814040965,-0.6600820814040965
-0.6225637555057422,-0.6225637555057422
-0.6266418344077372,-0.6266418344077372
-0.6454009973569144,-0.6454009973569144
-0.6266418344077372,-0.6266418344077372
-0.5817829664857919,-0.5817829664857919
-0.5597613404150188,-0.5597613404150188
-0.59157035585058,-0.59157035585058
-0.6266418344077372,-0.6266418344077372
-0.6152232134821511,-0.6152232134821511
-0.5597613404150188,-0.5597613404150188
-0.5230586302970635,-0.5230586302970635
-0.5263210934186595,-0.5263210934186595
-0.5516051826110286,-0.5516051826110286
-0.5597613404150188,-0.5597613404150188
-0.5499739510502307,-0.5499739510502307
-0.5263210934186595,-0.5263210934186595
-0.5067463146890834,-0.5067463146890834
-0.49288084642230023,-0.49288084642230023
-0.4920652306419012,-0.4920652306419012
-0.49288084642230023,-0.49288084642230023
-0.4855403043987092,-0.4855403043987092
-0.459440599425941,-0.459440599425941
-0.4341565102335718,-0.4341565102335718
-0.42600035242958173,-0.42600035242958173
-0.4439438995983599,-0.4439438995983599
-0.459440599425941,-0.459440599425941
-0.45373128896314796,-0.45373128896314796
-0.42600035242958173,-0.42600035242958173
-0.41539734728439465,-0.41539734728439465
-0.42600035242958173,-0.42600035242958173
-0.4333408944531728,-0.4333408944531728
-0.3925601054332225,-0.3925601054332225
-0.31997030097771095,-0.31997030097771095
-0.2579835016673865,-0.2579835016673865
-0.23840872293781035,-0.23840872293781035
-0.22454325467102723,-0.22454325467102723
-0.19681231813746103,-0.19681231813746103
-0.15766276067830873,-0.15766276067830873
-0.13319428726633856,-0.13319428726633856
-0.09078226668559024,-0.09078226668559024
-0.005142609743694594,-0.005142609743694594
0.10985921529256527,0.10985921529256527
0.1800021724068798,0.1800021724068798
0.17673970928528376,0.17673970928528376
0.13759015182613146,0.13759015182613146
0.1432994622889245,0.1432994622889245
0.21425803518363806,0.21425803518363806
0.31050069727072077,0.31050069727072077
0.35780641253386314,0.35780641253386314
0.344756560047479,0.344756560047479
0.3080538499295237,0.3080538499295237
0.31050069727072077,0.31050069727072077
0.3553595651926661,0.3553595651926661
0.4116370540401975,0.4116370540401975
0.4295806012089757,0.4295806012089757
0.4116370540401975,0.4116370540401975
0.37330311236144426,0.37330311236144426
0.344756560047479,0.344756560047479
0.3137631603923168,0.3137631603923168
0.27706045027436155,0.27706045027436155
0.2338328139132142,0.2338328139132142
0.21017995628164302,0.21017995628164302
0.19713010379525892,0.19713010379525892
0.17673970928528376,0.17673970928528376
0.13351207292413644,0.13351207292413644
0.10985921529256527,0.10985921529256527
0.13759015182613146,0.13759015182613146
0.21017995628164302,0.21017995628164302
0.25830128732518437,0.25830128732518437
0.24362020327800227,0.24362020327800227
0.17347724616368773,0.17347724616368773
0.10985921529256527,0.10985921529256527
0.07886581563740304,0.07886581563740304
0.07641896829620602,0.07641896829620602
0.06336911580982192,0.06336911580982192
0.04297872129984676,0.04297872129984676
0.026666405691866645,0.026666405691866645
0.04297872129984676,0.04297872129984676
0.054397342225432854,0.054397342225432854
0.04297872129984676,0.04297872129984676
-0.00188014662209857,-0.00188014662209857
-0.023901772692871734,-0.023901772692871734
-0.025533004253669746,-0.025533004253669746
-0.023901772692871734,-0.023901772692871734
-0.058973251250028995,-0.058973251250028995
-0.09078226668559024,-0.09078226668559024
-0.1128038927563634,-0.1128038927563634
-0.12422251368194949,-0.12422251368194949
-0.14624413975272266,-0.14624413975272266
-0.12422251368194949,-0.12422251368194949
-0.026348620034068754,-0.026348620034068754
0.1432994622889245,0.1432994622889245
0.3488346389494741,0.3488346389494741
0.612278536018353,0.612278536018353
0.9760431740763098,0.9760431740763098
1.4825405737040926,1.4825405737040926
2.1358488138036966,2.1358488138036966
2.888662179111979,2.888662179111979
3.5713325873059474,3.5713325873059474
3.9938215615526325,3.9938215615526325
4.117795160173281,4.117795160173281
4.12758254953807,4.12758254953807
4.204250432895576,4.204250432895576
4.329039647296624,4.329039647296624
4.293968168739466,4.293968168739466
3.960381314556273,3.960381314556273
3.3568256370610086,3.3568256370610086
2.6211402031411053,2.6211402031411053
1.8291772803736701,1.8291772803736701
1.014377115755063,1.014377115755063
0.23464842969361321,0.23464842969361321
-0.3925601054332225,-0.3925601054332225
-0.8166803112407057,-0.8166803112407057
-1.0621806611408064,-1.0621806611408064
-1.1608701705690863,-1.1608701705690863
-1.0956209081371657,-1.0956209081371657
-0.9251572100337735,-0.9251572100337735
-0.7938430693895335,-0.7938430693895335
-0.8077085376563166,-0.8077085376563166
-0.860723563382252,-0.860723563382252
-0.8158646954603067,-0.8158646954603067
-0.6600820814040965,-0.6600820814040965
-0.5671018824386098,-0.5671018824386098
-0.6266418344077372,-0.6266418344077372
-0.7881337589267404,-0.7881337589267404
-0.8941638103786113,-0.8941638103786113
-0.9039511997433993,-0.9039511997433993
-0.860723563382252,-0.860723563382252
-0.8509361740174639,-0.8509361740174639
-0.860723563382252,-0.860723563382252
-0.859092331821454,-0.859092331821454
-0.8272833163858928,-0.8272833163858928
-0.8109710007779126,-0.8109710007779126
-0.8272833163858928,-0.8272833163858928
-0.858276716041055,-0.858276716041055
-0.860723563382252,-0.860723563382252
-0.8329926268486858,-0.8329926268486858
-0.7938430693895335,-0.7938430693895335
-0.7710058275383613,-0.7710058275383613
-0.7604028223931742,-0.7604028223931742
-0.7530622803695832,-0.7530622803695832
-0.726962575396815,-0.726962575396815
-0.6821037074748697,-0.6821037074748697
-0.6266418344077372,-0.6266418344077372
-0.6005421294349691,-0.6005421294349691
-0.6266418344077372,-0.6266418344077372
-0.6894442494984607,-0.6894442494984607
-0.726962575396815,-0.726962575396815
-0.7098346440084359,-0.7098346440084359
-0.6600820814040965,-0.6600820814040965
-0.6307199133097323,-0.6307199133097323
-0.6266418344077372,-0.6266418344077372
-0.6307199133097323,-0.6307199133097323
-0.6266418344077372,-0.6266418344077372
-0.6266418344077372,-0.6266418344077372
-0.6266418344077372,-0.6266418344077372
-0.6193012923841462,-0.6193012923841462
-0.593201587411378,-0.593201587411378
-0.5687331139994078,-0.5687331139994078
-0.5597613404150188,-0.5597613404150188
-0.5654706508778118,-0.5654706508778118
-0.5597613404150188,-0.5597613404150188
-0.5418177932462406,-0.5418177932462406
-0.5263210934186595,-0.5263210934186595
-0.5361084827834476,-0.5361084827834476
-0.5597613404150188,-0.5597613404150188
-0.59157035585058,-0.59157035585058
-0.6266418344077372,-0.6266418344077372
-0.6608976971844955,-0.6608976971844955
-0.6600820814040965,-0.6600820814040965
-0.6282730659685353,-0.6282730659685353
-0.593201587411378,-0.593201587411378
-0.5785205033641959,-0.5785205033641959
-0.5597613404150188,-0.5597613404150188
-0.5434490248070386,-0.5434490248070386
-0.5597613404150188,-0.5597613404150188
-0.6119607503605552,-0.6119607503605552
-0.6266418344077372,-0.6266418344077372
-0.5703643455602059,-0.5703643455602059
-0.49288084642230023,-0.49288084642230023
-0.4733060676927241,-0.4733060676927241
-0.49288084642230023,-0.49288084642230023
-0.4961433095438963,-0.4961433095438963
-0.459440599425941,-0.459440599425941
-0.4211066577471877,-0.4211066577471877
-0.3925601054332225,-0.3925601054332225
-0.3656447846800553,-0.3656447846800553
-0.324863995660105,-0.324863995660105
-0.28979251710294773,-0.28979251710294773
-0.2579835016673865,-0.2579835016673865
-0.22943694935342127,-0.22943694935342127
-0.19110300767466798,-0.19110300767466798
-0.1552159133371117,-0.1552159133371117
-0.12422251368194949,-0.12422251368194949
-0.10791019807396937,-0.10791019807396937
-0.09078226668559024,-0.09078226668559024
-0.06712940905401905,-0.06712940905401905
-0.023901772692871734,-0.023901772692871734
0.01687901632707857,0.01687901632707857
0.04297872129984676,0.04297872129984676
0.04379433708024577,0.04379433708024577
0.04297872129984676,0.04297872129984676
0.05113487910383683,0.05113487910383683
0.07641896829620602,0.07641896829620602
0.09680936280618117,0.09680936280618117
0.10985921529256527,0.10985921529256527
0.10985921529256527,0.10985921529256527
0.10985921529256527,0.10985921529256527
0.10741236795136824,0.10741236795136824
0.10985921529256527,0.10985921529256527
0.10822798373176726,0.10822798373176726
0.10985921529256527,0.10985921529256527
0.10822798373176726,0.10822798373176726
0.10985921529256527,0.10985921529256527
0.10822798373176726,0.10822798373176726
0.10985921529256527,0.10985921529256527
0.10822798373176726,0.10822798373176726
0.10985921529256527,0.10985921529256527
0.10822798373176726,0.10822798373176726
0.10985921529256527,0.10985921529256527
0.10822798373176726,0.10822798373176726
0.10985921529256527,0.10985921529256527
0.10822798373176726,0.10822798373176726
0.10985921529256527,0.10985921529256527
0.10822798373176726,0.10822798373176726
0.10985921529256527,0.10985921529256527
0.10822798373176726,0.10822798373176726
0.10985921529256527,0.10985921529256527
0.10822798373176726,0.10822798373176726
0.10985921529256527,0.10985921529256527
0.10822798373176726,0.10822798373176726
0.10985921529256527,0.10985921529256527
0.10822798373176726,0.10822798373176726
0.10985921529256527,0.10985921529256527
0.10741236795136824,0.10741236795136824
0.10985921529256527,0.10985921529256527
0.10822798373176726,0.10822798373176726
0.10985921529256527,0.10985921529256527
0.10741236795136824,0.10741236795136824
0.10985921529256527,0.10985921529256527
0.10904359951216626,0.10904359951216626
0.10985921529256527,0.10985921529256527
0.10659675217096924,0.10659675217096924
0.10985921529256527,0.10985921529256527
0.10985921529256527,0.10985921529256527
0.10985921529256527,0.10985921529256527
0.10414990482977222,0.10414990482977222
0.10985921529256527,0.10985921529256527
0.11475290997495931,0.11475290997495931
0.10985921529256527,0.10985921529256527
0.08702197344139309,0.08702197344139309
0.07641896829620602,0.07641896829620602
0.08620635766099409,0.08620635766099409
0.10985921529256527,0.10985921529256527
0.11556852575535831,0.11556852575535831
0.10985921529256527,0.10985921529256527
0.10414990482977222,0.10414990482977222
0.10985921529256527,0.10985921529256527
0.10170305748857521,0.10170305748857521
0.07641896829620602,0.07641896829620602
0.04460995286064478,0.04460995286064478
0.04297872129984676,0.04297872129984676
0.061737884249023905,0.061737884249023905
0.07641896829620602,0.07641896829620602
0.061737884249023905,0.061737884249023905
0.04297872129984676,0.04297872129984676
0.03563817927625571,0.03563817927625571
0.04297872129984676,0.04297872129984676
0.04216310551944776,0.04216310551944776
0.04297872129984676,0.04297872129984676
0.04379433708024577,0.04379433708024577
0.04297872129984676,0.04297872129984676
0.024219558350669627,0.024219558350669627
0.009538474303487516,0.009538474303487516
0.003829163840694473,0.003829163840694473
0.009538474303487516,0.009538474303487516
0.0070916269622904975,0.0070916269622904975
0.009538474303487516,0.009538474303487516
0.011169705864285527,0.011169705864285527
0.009538474303487516,0.009538474303487516
-0.0010645308416995637,-0.0010645308416995637
0.009538474303487516,0.009538474303487516
0.03237571615465969,0.03237571615465969
0.04297872129984676,0.04297872129984676
0.020957095229073602,0.020957095229073602
0.009538474303487516,0.009538474303487516
0.02340394257027062,0.02340394257027062
0.04297872129984676,0.04297872129984676
0.02992886881346267,0.02992886881346267
0.009538474303487516,0.009538474303487516
0.003013548060295467,0.003013548060295467
0.009538474303487516,0.009538474303487516
0.004644779621093479,0.004644779621093479
0.009538474303487516,0.009538474303487516
0.028297637252664657,0.028297637252664657
0.04297872129984676,0.04297872129984676
0.025850789911467636,0.025850789911467636
0.009538474303487516,0.009538474303487516
0.016063400546679565,0.016063400546679565
0.04297872129984676,0.04297872129984676
0.04950364754303881,0.04950364754303881
0.04297872129984676,0.04297872129984676
0.03645379505665472,0.03645379505665472
0.04297872129984676,0.04297872129984676
0.04379433708024577,0.04379433708024577
0.04297872129984676,0.04297872129984676
0.040531873958649746,0.040531873958649746
0.04297872129984676,0.04297872129984676
0.02911325303306366,0.02911325303306366
0.009538474303487516,0.009538474303487516
-0.005142609743694594,-0.005142609743694594
0.009538474303487516,0.009538474303487516
0.03237571615465969,0.03237571615465969
0.04297872129984676,0.04297872129984676
0.024219558350669627,0.024219558350669627
0.009538474303487516,0.009538474303487516
0.016063400546679565,0.016063400546679565
0.04297872129984676,0.04297872129984676
0.053581726445033846,0.053581726445033846
0.04297872129984676,0.04297872129984676
0.018510247887876582,0.018510247887876582
0.009538474303487516,0.009538474303487516
0.01687901632707857,0.01687901632707857
0.04297872129984676,0.04297872129984676
0.06500034737061994,0.06500034737061994
0.07641896829620602,0.07641896829620602
0.073972120955009,0.073972120955009
0.07641896829620602,0.07641896829620602
0.06989404205301397,0.06989404205301397
0.04297872129984676,0.04297872129984676
-0.002695762402497576,-0.002695762402497576
-0.023901772692871734,-0.023901772692871734
-0.02308615691247273,-0.02308615691247273
-0.023901772692871734,-0.023901772692871734
-0.04021408830085186,-0.04021408830085186
-0.023901772692871734,-0.023901772692871734
0.020141479448674594,0.020141479448674594
0.04297872129984676,0.04297872129984676
0.01687901632707857,0.01687901632707857
0.009538474303487516,0.009538474303487516
0.047872415982240804,0.047872415982240804
0.07641896829620602,0.07641896829620602
0.034006947715457696,0.034006947715457696
-0.023901772692871734,-0.023901772692871734
-0.03776724095965484,-0.03776724095965484
-0.023901772692871734,-0.023901772692871734
-0.04918586188524093,-0.04918586188524093
-0.09078226668559024,-0.09078226668559024
-0.10791019807396937,-0.10791019807396937
-0.09078226668559024,-0.09078226668559024
-0.0867041877835952,-0.0867041877835952
-0.09078226668559024,-0.09078226668559024
-0.09486034558758527,-0.09486034558758527
-0.09078226668559024,-0.09078226668559024
-0.12014443477995446,-0.12014443477995446
-0.15766276067830873,-0.15766276067830873
-0.17397507628628886,-0.17397507628628886
-0.12422251368194949,-0.12422251368194949
-0.06142009859122602,-0.06142009859122602
-0.023901772692871734,-0.023901772692871734
-0.030426698936063784,-0.030426698936063784
-0.023901772692871734,-0.023901772692871734
-0.013298767547684656,-0.013298767547684656
-0.023901772692871734,-0.023901772692871734
-0.06060448281082701,-0.06060448281082701
-0.023901772692871734,-0.023901772692871734
0.1269871466809444,0.1269871466809444
0.344756560047479,0.344756560047479
0.5511073524884276,0.5511073524884276
0.7794797710001493,0.7794797710001493
1.1098041620617467,1.1098041620617467
1.5828613146931703,1.5828613146931703
2.1701046765804546,2.1701046765804546
2.8217816851192605,2.8217816851192605
3.4408340624421063,3.4408340624421063
3.893500820563555,3.893500820563555
4.078645602714129,4.078645602714129
4.060702055545351,4.060702055545351
4.006055798258617,4.006055798258617
4.0272618085489915,4.0272618085489915
4.043574124156971,4.043574124156971
3.893500820563555,3.893500820563555
3.5020052459720317,3.5020052459720317
2.9563582888850966,2.9563582888850966
2.338937143123049,2.338937143123049
1.6505574244662877,1.6505574244662877
0.8545164227968578,0.8545164227968578
0.04297872129984676,0.04297872129984676
-0.6127763661409541,-0.6127763661409541
-0.995300167148088,-0.995300167148088
-1.1567920916670913,-1.1567920916670913
-1.1959416491262436,-1.1959416491262436
-1.1600545547886874,-1.1600545547886874
-1.0287404141444472,-1.0287404141444472
-0.860723563382252,-0.860723563382252
-0.7604028223931742,-0.7604028223931742
-0.7865025273659425,-0.7865025273659425
-0.8272833163858928,-0.8272833163858928
-0.7840556800247455,-0.7840556800247455
-0.6600820814040965,-0.6600820814040965
-0.59157035585058,-0.59157035585058
-0.6266418344077372,-0.6266418344077372
-0.727778191177214,-0.727778191177214
-0.7938430693895335,-0.7938430693895335
-0.8117866165583116,-0.8117866165583116
-0.7938430693895335,-0.7938430693895335
-0.7791619853423514,-0.7791619853423514
-0.7604028223931742,-0.7604028223931742
-0.7440905067851942,-0.7440905067851942
-0.726962575396815,-0.726962575396815
-0.723700112275219,-0.723700112275219
-0.726962575396815,-0.726962575396815
-0.7318562700792091,-0.7318562700792091
-0.726962575396815,-0.726962575396815
-0.7163595702516279,-0.7163595702516279
-0.6935223284004558,-0.6935223284004558
-0.6715007023296826,-0.6715007023296826
-0.6600820814040965,-0.6600820814040965
-0.6641601603060915,-0.6641601603060915
-0.6600820814040965,-0.6600820814040965
-0.6437697657961163,-0.6437697657961163
-0.6266418344077372,-0.6266418344077372
-0.6266418344077372,-0.6266418344077372
-0.6266418344077372,-0.6266418344077372
-0.6233793712861412,-0.6233793712861412
-0.6266418344077372,-0.6266418344077372
-0.6486634604785104,-0.6486634604785104
-0.6600820814040965,-0.6600820814040965
-0.6486634604785104,-0.6486634604785104
-0.6266418344077372,-0.6266418344077372
-0.6233793712861412,-0.6233793712861412
-0.6266418344077372,-0.6266418344077372
-0.6274574501881363,-0.6274574501881363
-0.6266418344077372,-0.6266418344077372
-0.6347979922117273,-0.6347979922117273
-0.6266418344077372,-0.6266418344077372
-0.596464050532974,-0.596464050532974
-0.5597613404150188,-0.5597613404150188
-0.5426334090266396,-0.5426334090266396
-0.5263210934186595,-0.5263210934186595
-0.5067463146890834,-0.5067463146890834
-0.49288084642230023,-0.49288084642230023
-0.4994057726654923,-0.4994057726654923
-0.49288084642230023,-0.49288084642230023
-0.461887446767138,-0.461887446767138
-0.42600035242958173,-0.42600035242958173
-0.4202910419667887,-0.4202910419667887
-0.42600035242958173,-0.42600035242958173
-0.4178441946255917,-0.4178441946255917
-0.3925601054332225,-0.3925601054332225
-0.37461655826444434,-0.37461655826444434
-0.3591198584368632,-0.3591198584368632
-0.3436231586092821,-0.3436231586092821
-0.324863995660105,-0.324863995660105
-0.3142609905149179,-0.3142609905149179
-0.29142374866374576,-0.29142374866374576
-0.2587991174477855,-0.2587991174477855
-0.22454325467102723,-0.22454325467102723
-0.20986217062384513,-0.20986217062384513
-0.19110300767466798,-0.19110300767466798
-0.16174083958030377,-0.16174083958030377
-0.12422251368194949,-0.12422251368194949
-0.10546335073277234,-0.10546335073277234
-0.09078226668559024,-0.09078226668559024
-0.06712940905401905,-0.06712940905401905
-0.023901772692871734,-0.023901772692871734
0.014432168985881552,0.014432168985881552
0.04297872129984676,0.04297872129984676
0.05847542112742788,0.05847542112742788
0.07641896829620602,0.07641896829620602
0.09273128390418614,0.09273128390418614
0.10985921529256527,0.10985921529256527
0.12290906777894936,0.12290906777894936
0.1432994622889245,0.1432994622889245
0.16205862523810166,0.16205862523810166
0.17673970928528376,0.17673970928528376
0.17673970928528376,0.17673970928528376
0.17673970928528376,0.17673970928528376
0.17755532506568278,0.17755532506568278
0.17673970928528376,0.17673970928528376
0.16124300945770265,0.16124300945770265
0.1432994622889245,0.1432994622889245
0.12372468355934838,0.12372468355934838
0.10985921529256527,0.10985921529256527
0.09925621014737819,0.09925621014737819
0.10985921529256527,0.10985921529256527
0.12127783621815136,0.12127783621815136
0.10985921529256527,0.10985921529256527
0.06826281049221596,0.06826281049221596
0.04297872129984676,0.04297872129984676
0.04379433708024577,0.04379433708024577
0.04297872129984676,0.04297872129984676
0.007907242742689504,0.007907242742689504
-0.023901772692871734,-0.023901772692871734
-0.029611083155664776,-0.029611083155664776
-0.023901772692871734,-0.023901772692871734
-0.05000147766563993,-0.05000147766563993
-0.09078226668559024,-0.09078226668559024
-0.12014443477995446,-0.12014443477995446
-0.12422251368194949,-0.12422251368194949
-0.1274849768035455,-0.1274849768035455
-0.12422251368194949,-0.12422251368194949
-0.12096005056035346,-0.12096005056035346
-0.12422251368194949,-0.12422251368194949
-0.1552159133371117,-0.1552159133371117
-0.19110300767466798,-0.19110300767466798
-0.21638709686703717,-0.21638709686703717
-0.22454325467102723,-0.22454325467102723
-0.24085557027900736,-0.24085557027900736
-0.2579835016673865,-0.2579835016673865
-0.2694021225929726,-0.2694021225929726
-0.2579835016673865,-0.2579835016673865
-0.25064295964379546,-0.25064295964379546
-0.2579835016673865,-0.2579835016673865
-0.28326759085975567,-0.28326759085975567
-0.29142374866374576,-0.29142374866374576
-0.28000512773815966,-0.28000512773815966
-0.2579835016673865,-0.2579835016673865
-0.2547210385457905,-0.2547210385457905
-0.2579835016673865,-0.2579835016673865
-0.2620615805693815,-0.2620615805693815
-0.2579835016673865,-0.2579835016673865
-0.26043034900858353,-0.26043034900858353
-0.2579835016673865,-0.2579835016673865
-0.2579835016673865,-0.2579835016673865
-0.2579835016673865,-0.2579835016673865
-0.2661396594713766,-0.2661396594713766
-0.2579835016673865,-0.2579835016673865
-0.24085557027900736,-0.24085557027900736
-0.22454325467102723,-0.22454325467102723
-0.22780571779262326,-0.22780571779262326
-0.22454325467102723,-0.22454325467102723
-0.20986217062384513,-0.20986217062384513
-0.19110300767466798,-0.19110300767466798
-0.191918623455067,-0.191918623455067
-0.19110300767466798,-0.19110300767466798
-0.1788687709686829,-0.1788687709686829
-0.15766276067830873,-0.15766276067830873
-0.15440029755671272,-0.15440029755671272
-0.15766276067830873,-0.15766276067830873
-0.16092522379990476,-0.16092522379990476
-0.15766276067830873,-0.15766276067830873
-0.16174083958030377,-0.16174083958030377
-0.15766276067830873,-0.15766276067830873
-0.14461290819192463,-0.14461290819192463
-0.12422251368194949,-0.12422251368194949
-0.12096005056035346,-0.12096005056035346
-0.12422251368194949,-0.12422251368194949
-0.1291162083643435,-0.1291162083643435
-0.12422251368194949,-0.12422251368194949
-0.12422251368194949,-0.12422251368194949
-0.12422251368194949,-0.12422251368194949
-0.1274849768035455,-0.1274849768035455
-0.12422251368194949,-0.12422251368194949
-0.1250381294623485,-0.1250381294623485
-0.12422251368194949,-0.12422251368194949
-0.1274849768035455,-0.1274849768035455
-0.12422251368194949,-0.12422251368194949
-0.1250381294623485,-0.1250381294623485
-0.12422251368194949,-0.12422251368194949
-0.1274849768035455,-0.1274849768035455
-0.12422251368194949,-0.12422251368194949
-0.12422251368194949,-0.12422251368194949
-0.12422251368194949,-0.12422251368194949
-0.13074743992514154,-0.13074743992514154
-0.12422251368194949,-0.12422251368194949
-0.10954142963476737,-0.10954142963476737
-0.09078226668559024,-0.09078226668559024
-0.08833541934439322,-0.08833541934439322
-0.09078226668559024,-0.09078226668559024
-0.09486034558758527,-0.09486034558758527
-0.09078226668559024,-0.09078226668559024
-0.09159788246598924,-0.09159788246598924
-0.09078226668559024,-0.09078226668559024
-0.09404472980718626,-0.09404472980718626
-0.09078226668559024,-0.09078226668559024
-0.07446995107761012,-0.07446995107761012
-0.023901772692871734,-0.023901772692871734
0.03563817927625571,0.03563817927625571
0.07641896829620602,0.07641896829620602
0.08620635766099409,0.08620635766099409
0.10985921529256527,0.10985921529256527
0.15961177789690464,0.15961177789690464
0.21017995628164302,0.21017995628164302
0.2207829614268301,0.2207829614268301
0.21017995628164302,0.21017995628164302
0.20365503003845098,0.20365503003845098
0.21017995628164302,0.21017995628164302
0.209364340501244,0.209364340501244
0.21017995628164302,0.21017995628164302
0.21344241940323905,0.21344241940323905
0.21017995628164302,0.21017995628164302
0.1816334039676778,0.1816334039676778
0.1432994622889245,0.1432994622889245
0.09762497858658017,0.09762497858658017
0.04297872129984676,0.04297872129984676
-0.03124231471646279,-0.03124231471646279
-0.09078226668559024,-0.09078226668559024
-0.11932881899955546,-0.11932881899955546
-0.12422251368194949,-0.12422251368194949
-0.15032221865471768,-0.15032221865471768
-0.19110300767466798,-0.19110300767466798
-0.2180183284278352,-0.2180183284278352
-0.19110300767466798,-0.19110300767466798
-0.14542852397232364,-0.14542852397232364
-0.12422251368194949,-0.12422251368194949
-0.14542852397232364,-0.14542852397232364
-0.15766276067830873,-0.15766276067830873
-0.14461290819192463,-0.14461290819192463
-0.12422251368194949,-0.12422251368194949
-0.1364567503879346,-0.1364567503879346
-0.15766276067830873,-0.15766276067830873
-0.1788687709686829,-0.1788687709686829
-0.19110300767466798,-0.19110300767466798
-0.21720271264743618,-0.21720271264743618
-0.22454325467102723,-0.22454325467102723
-0.22291202311022923,-0.22291202311022923
-0.22454325467102723,-0.22454325467102723
-0.25635227010658845,-0.25635227010658845
-0.2579835016673865,-0.2579835016673865
-0.20823093906304713,-0.20823093906304713
-0.12422251368194949,-0.12422251368194949
-0.09567596136798427,-0.09567596136798427
-0.12422251368194949,-0.12422251368194949
-0.16092522379990476,-0.16092522379990476
-0.12422251368194949,-0.12422251368194949
-0.014929999108482668,-0.014929999108482668
0.1432994622889245,0.1432994622889245
0.32191931819630687,0.32191931819630687
0.5453980420256346,0.5453980420256346
0.8430978018712718,0.8430978018712718
1.248458844729578,1.248458844729578
1.7688217126241437,1.7688217126241437
2.38705847416659,2.38705847416659
3.004479619928638,3.004479619928638
3.4914022408268446,3.4914022408268446
3.758924216797719,3.758924216797719
3.8600605735671953,3.8600605735671953
3.915522446634328,3.915522446634328
3.9938215615526325,3.9938215615526325
4.013396340282209,4.013396340282209
3.8600605735671953,3.8600605735671953
3.5028208617524306,3.5028208617524306
3.023238782877815,3.023238782877815
2.460463894402501,2.460463894402501
1.7843184124517248,1.7843184124517248
0.9817524845391028,0.9817524845391028
0.17673970928528376,0.17673970928528376
-0.4814622254967142,-0.4814622254967142
-0.9276040573749705,-0.9276040573749705
-1.1934948017850464,-1.1934948017850464
-1.2962623901153212,-1.2962623901153212
-1.2717939167033512,-1.2717939167033512
-1.1625014021298843,-1.1625014021298843
-1.0222154879012553,-1.0222154879012553
-0.860723563382252,-0.860723563382252
-0.7432748910047952,-0.7432748910047952
-0.726962575396815,-0.726962575396815
-0.8036304587543216,-0.8036304587543216
-0.8272833163858928,-0.8272833163858928
-0.7497998172479872,-0.7497998172479872
-0.6600820814040965,-0.6600820814040965
-0.6918910968396578,-0.6918910968396578
-0.7938430693895335,-0.7938430693895335
-0.855014252919459,-0.855014252919459
-0.8272833163858928,-0.8272833163858928
-0.7938430693895335,-0.7938430693895335
-0.7938430693895335,-0.7938430693895335
-0.8093397692171146,-0.8093397692171146
-0.7938430693895335,-0.7938430693895335
-0.7579559750519772,-0.7579559750519772
-0.726962575396815,-0.726962575396815
-0.721253264934022,-0.721253264934022
-0.726962575396815,-0.726962575396815
-0.73104065429881,-0.73104065429881
-0.726962575396815,-0.726962575396815
-0.726146959616416,-0.726146959616416
-0.726962575396815,-0.726962575396815
-0.730225038518411,-0.730225038518411
-0.726962575396815,-0.726962575396815
-0.726962575396815,-0.726962575396815
-0.726962575396815,-0.726962575396815
-0.730225038518411,-0.730225038518411
-0.726962575396815,-0.726962575396815
-0.7171751860320269,-0.7171751860320269
-0.6935223284004558,-0.6935223284004558
-0.6706850865492836,-0.6706850865492836
-0.6600820814040965,-0.6600820814040965
-0.6747631654512786,-0.6747631654512786
-0.6935223284004558,-0.6935223284004558
-0.7033097177652439,-0.7033097177652439
-0.6935223284004558,-0.6935223284004558
-0.6788412443532736,-0.6788412443532736
-0.6600820814040965,-0.6600820814040965
-0.6437697657961163,-0.6437697657961163
-0.6266418344077372,-0.6266418344077372
-0.6217481397253433,-0.6217481397253433
-0.6266418344077372,-0.6266418344077372
-0.6356136079921263,-0.6356136079921263
-0.6266418344077372,-0.6266418344077372
-0.5989108978741711,-0.5989108978741711
-0.5597613404150188,-0.5597613404150188
-0.5352928670030486,-0.5352928670030486
-0.5263210934186595,-0.5263210934186595
-0.5206117829558664,-0.5206117829558664
-0.49288084642230023,-0.49288084642230023
-0.45617813630434495,-0.45617813630434495
-0.42600035242958173,-0.42600035242958173
-0.4056099579196066,-0.4056099579196066
-0.3591198584368632,-0.3591198584368632
-0.27918951195776065,-0.27918951195776065
-0.19110300767466798,-0.19110300767466798
-0.13237867148593954,-0.13237867148593954
-0.09078226668559024,-0.09078226668559024
-0.05571078812843298,-0.05571078812843298
-0.023901772692871734,-0.023901772692871734
-0.008405072865290618,-0.008405072865290618
0.009538474303487516,0.009538474303487516
0.02911325303306366,0.02911325303306366
0.04297872129984676,0.04297872129984676
0.03726941083705372,0.03726941083705372
0.04297872129984676,0.04297872129984676
0.073972120955009,0.073972120955009
0.10985921529256527,0.10985921529256527
0.09844059436697918,0.09844059436697918
0.04297872129984676,0.04297872129984676
-0.013298767547684656,-0.013298767547684656
-0.023901772692871734,-0.023901772692871734
-0.005142609743694594,-0.005142609743694594
0.009538474303487516,0.009538474303487516
-0.0059582255240936,-0.0059582255240936
-0.023901772692871734,-0.023901772692871734
-0.02879546737526577,-0.02879546737526577
-0.023901772692871734,-0.023901772692871734
-0.0459233987636449,-0.0459233987636449
-0.09078226668559024,-0.09078226668559024
-0.13237867148593954,-0.13237867148593954
-0.12422251368194949,-0.12422251368194949
-0.07773241419920614,-0.07773241419920614
-0.023901772692871734,-0.023901772692871734
-0.0067738413044926065,-0.0067738413044926065
-0.023901772692871734,-0.023901772692871734
-0.06142009859122602,-0.06142009859122602
-0.09078226668559024,-0.09078226668559024
-0.11443512431716141,-0.11443512431716141
-0.12422251368194949,-0.12422251368194949
-0.1291162083643435,-0.1291162083643435
-0.12422251368194949,-0.12422251368194949
-0.13319428726633856,-0.13319428726633856
-0.15766276067830873,-0.15766276067830873
-0.20089039703945605,-0.20089039703945605
-0.22454325467102723,-0.22454325467102723
-0.24167118605940638,-0.24167118605940638
-0.2579835016673865,-0.2579835016673865
-0.29713305912653876,-0.29713305912653876
-0.324863995660105,-0.324863995660105
-0.34688562173087817,-0.34688562173087817
-0.3591198584368632,-0.3591198584368632
-0.38277271606843444,-0.38277271606843444
-0.3925601054332225,-0.3925601054332225
-0.4023474947980106,-0.4023474947980106
-0.42600035242958173,-0.42600035242958173
-0.45210005740234993,-0.45210005740234993
-0.3925601054332225,-0.3925601054332225
-0.20904655484344611,-0.20904655484344611
0.04297872129984676,0.04297872129984676
0.2737979871527655,0.2737979871527655
0.5119577950292753,0.5119577950292753
0.87735366464803,0.87735366464803
1.4491003267077334,1.4491003267077334
2.1309551191213023,2.1309551191213023
2.721460944130183,2.721460944130183
3.0550477983133764,3.0550477983133764
3.1569997708632522,3.1569997708632522
3.1969649441028034,3.1969649441028034
3.3242010058450484,3.3242010058450484
3.4856929303640514,3.4856929303640514
3.4914022408268446,3.4914022408268446
3.19125563364001,3.19125563364001
2.6211402031411053,2.6211402031411053
1.9172637846567628,1.9172637846567628
1.1815783507368594,1.1815783507368594
0.4148995171617936,0.4148995171617936
-0.3591198584368632,-0.3591198584368632
-1.0140593300972651,-1.0140593300972651
-1.396583131104399,-1.396583131104399
-1.514847419262255,-1.514847419262255
-1.4969038720934769,-1.4969038720934769
-1.4177891413947732,-1.4177891413947732
-1.2293818961226028,-1.2293818961226028
-0.987959625124497,-0.987959625124497
-0.860723563382252,-0.860723563382252
-0.9063980470845964,-0.9063980470845964
-0.9276040573749705,-0.9276040573749705
-0.8028148429739226,-0.8028148429739226
-0.6600820814040965,-0.6600820814040965
-0.7024941019848449,-0.7024941019848449
-0.860723563382252,-0.860723563382252
-0.9545193781281377,-0.9545193781281377
-0.9276040573749705,-0.9276040573749705
-0.9063980470845964,-0.9063980470845964
-0.9276040573749705,-0.9276040573749705
-0.9496256834457437,-0.9496256834457437
-0.9276040573749705,-0.9276040573749705
-0.9039511997433993,-0.9039511997433993
-0.8941638103786113,-0.8941638103786113
-0.8860076525746212,-0.8860076525746212
-0.860723563382252,-0.860723563382252
-0.8370707057506809,-0.8370707057506809
-0.8272833163858928,-0.8272833163858928
-0.8313613952878878,-0.8313613952878878
-0.8272833163858928,-0.8272833163858928
-0.8126022323387107,-0.8126022323387107
-0.7938430693895335,-0.7938430693895335
-0.7913962220483365,-0.7913962220483365
-0.7938430693895335,-0.7938430693895335
-0.7962899167307306,-0.7962899167307306
-0.7938430693895335,-0.7938430693895335
-0.7979211482915285,-0.7979211482915285
-0.7938430693895335,-0.7938430693895335
-0.7807932169031494,-0.7807932169031494
-0.7604028223931742,-0.7604028223931742
-0.7465373541263911,-0.7465373541263911
-0.726962575396815,-0.726962575396815
-0.7065721808868398,-0.7065721808868398
-0.6935223284004558,-0.6935223284004558
-0.6967847915220517,-0.6967847915220517
-0.6935223284004558,-0.6935223284004558
-0.6772100127924756,-0.6772100127924756
-0.6600820814040965,-0.6600820814040965
-0.6608976971844955,-0.6608976971844955
-0.6600820814040965,-0.6600820814040965
-0.6470322289177124,-0.6470322289177124
-0.6266418344077372,-0.6266418344077372
-0.6225637555057422,-0.6225637555057422
-0.6266418344077372,-0.6266418344077372
-0.6299042975293333,-0.6299042975293333
-0.6266418344077372,-0.6266418344077372
-0.6274574501881363,-0.6274574501881363
-0.6266418344077372,-0.6266418344077372
-0.6266418344077372,-0.6266418344077372
-0.6266418344077372,-0.6266418344077372
-0.6331667606509293,-0.6331667606509293
-0.6266418344077372,-0.6266418344077372
-0.6086982872389591,-0.6086982872389591
-0.593201587411378,-0.593201587411378
-0.6046202083369641,-0.6046202083369641
-0.6266418344077372,-0.6266418344077372
-0.6396916868941214,-0.6396916868941214
-0.6266418344077372,-0.6266418344077372
-0.5997265136545701,-0.5997265136545701
-0.5597613404150188,-0.5597613404150188
-0.5230586302970635,-0.5230586302970635
-0.49288084642230023,-0.49288084642230023
-0.4773841465947191,-0.4773841465947191
-0.459440599425941,-0.459440599425941
-0.44149705225716285,-0.44149705225716285
-0.42600035242958173,-0.42600035242958173
-0.41621296306479366,-0.41621296306479366
-0.3925601054332225,-0.3925601054332225
-0.35667301109566624,-0.35667301109566624
-0.324863995660105,-0.324863995660105
-0.322417148318908,-0.322417148318908
-0.324863995660105,-0.324863995660105
-0.30773606427172584,-0.30773606427172584
-0.2579835016673865,-0.2579835016673865
-0.21312463374544116,-0.21312463374544116
-0.19110300767466798,-0.19110300767466798
-0.194365470796264,-0.194365470796264
-0.19110300767466798,-0.19110300767466798
-0.17805315518828388,-0.17805315518828388
-0.15766276067830873,-0.15766276067830873
-0.14379729241152564,-0.14379729241152564
-0.12422251368194949,-0.12422251368194949
-0.10383211917197434,-0.10383211917197434
-0.09078226668559024,-0.09078226668559024
-0.10464773495237334,-0.10464773495237334
-0.12422251368194949,-0.12422251368194949
-0.1250381294623485,-0.1250381294623485
-0.09078226668559024,-0.09078226668559024
-0.058973251250028995,-0.058973251250028995
-0.057342019689230986,-0.057342019689230986
-0.08425734044239819,-0.08425734044239819
-0.09078226668559024,-0.09078226668559024
-0.06386694593242304,-0.06386694593242304
-0.023901772692871734,-0.023901772692871734
-0.014114383328083662,-0.014114383328083662
-0.023901772692871734,-0.023901772692871734
-0.0328735462772608,-0.0328735462772608
-0.023901772692871734,-0.023901772692871734
-0.019823693790876704,-0.019823693790876704
-0.023901772692871734,-0.023901772692871734
-0.04184531986164987,-0.04184531986164987
-0.057342019689230986,-0.057342019689230986
-0.06712940905401905,-0.06712940905401905
-0.057342019689230986,-0.057342019689230986
-0.04021408830085186,-0.04021408830085186
-0.023901772692871734,-0.023901772692871734
-0.023901772692871734,-0.023901772692871734
-0.023901772692871734,-0.023901772692871734
-0.024717388473270742,-0.024717388473270742
-0.023901772692871734,-0.023901772692871734
-0.030426698936063784,-0.030426698936063784
-0.023901772692871734,-0.023901772692871734
-0.0067738413044926065,-0.0067738413044926065
0.009538474303487516,0.009538474303487516
-0.0010645308416995637,-0.0010645308416995637
-0.023901772692871734,-0.023901772692871734
-0.04755463032444291,-0.04755463032444291
-0.057342019689230986,-0.057342019689230986
-0.06386694593242304,-0.06386694593242304
-0.057342019689230986,-0.057342019689230986
-0.044292167202846885,-0.044292167202846885
-0.023901772692871734,-0.023901772692871734
-0.009220688645689624,-0.009220688645689624
0.009538474303487516,0.009538474303487516
0.01687901632707857,0.01687901632707857
0.009538474303487516,0.009538474303487516
-0.0059582255240936,-0.0059582255240936
0.009538474303487516,0.009538474303487516
0.03808502661745273,0.03808502661745273
0.04297872129984676,0.04297872129984676
0.01280093742508354,0.01280093742508354
0.009538474303487516,0.009538474303487516
0.047872415982240804,0.047872415982240804
0.07641896829620602,0.07641896829620602
0.03563817927625571,0.03563817927625571
-0.023901772692871734,-0.023901772692871734
-0.03532039361845782,-0.03532039361845782
0.009538474303487516,0.009538474303487516
0.04216310551944776,0.04216310551944776
0.04297872129984676,0.04297872129984676
0.03156010037426068,0.03156010037426068
0.04297872129984676,0.04297872129984676
0.061737884249023905,0.061737884249023905
0.07641896829620602,0.07641896829620602
0.06581596315101894,0.06581596315101894
0.04297872129984676,0.04297872129984676
0.025850789911467636,0.025850789911467636
0.04297872129984676,0.04297872129984676
0.05929103690782689,0.05929103690782689
0.04297872129984676,0.04297872129984676
0.0021979322798964607,0.0021979322798964607
0.009538474303487516,0.009538474303487516
0.06744719471181695,0.06744719471181695
0.10985921529256527,0.10985921529256527
0.08212827875899906,0.08212827875899906
0.04297872129984676,0.04297872129984676
0.055212958005831855,0.055212958005831855
0.10985921529256527,0.10985921529256527
0.13106522558293943,0.13106522558293943
0.10985921529256527,0.10985921529256527
0.08049704719820104,0.08049704719820104
0.07641896829620602,0.07641896829620602
0.06744719471181695,0.06744719471181695
0.04297872129984676,0.04297872129984676
0.020957095229073602,0.020957095229073602
0.04297872129984676,0.04297872129984676
0.08702197344139309,0.08702197344139309
0.10985921529256527,0.10985921529256527
0.09028443656298912,0.09028443656298912
0.07641896829620602,0.07641896829620602
0.09028443656298912,0.09028443656298912
0.10985921529256527,0.10985921529256527
0.09599374702578216,0.09599374702578216
0.07641896829620602,0.07641896829620602
0.07152527361381197,0.07152527361381197
0.07641896829620602,0.07641896829620602
0.05847542112742788,0.05847542112742788
0.04297872129984676,0.04297872129984676
0.04950364754303881,0.04950364754303881
0.07641896829620602,0.07641896829620602
0.09354689968458514,0.09354689968458514
0.10985921529256527,0.10985921529256527
0.11964660465735334,0.11964660465735334
0.10985921529256527,0.10985921529256527
0.06826281049221596,0.06826281049221596
0.04297872129984676,0.04297872129984676
0.05276611066463484,0.05276611066463484
0.07641896829620602,0.07641896829620602
0.06663157893141794,0.06663157893141794
0.04297872129984676,0.04297872129984676
0.030744484593861674,0.030744484593861674
0.04297872129984676,0.04297872129984676
0.05602857378623086,0.05602857378623086
0.07641896829620602,0.07641896829620602
0.09762497858658017,0.09762497858658017
0.10985921529256527,0.10985921529256527
0.09354689968458514,0.09354689968458514
0.07641896829620602,0.07641896829620602
0.07152527361381197,0.07152527361381197
0.07641896829620602,0.07641896829620602
0.0625535000294229,0.0625535000294229
0.04297872129984676,0.04297872129984676
0.041347489739048754,0.041347489739048754
0.07641896829620602,0.07641896829620602
0.10822798373176726,0.10822798373176726
0.10985921529256527,0.10985921529256527
0.08375951031979707,0.08375951031979707
0.07641896829620602,0.07641896829620602
0.09436251546498416,0.09436251546498416
0.10985921529256527,0.10985921529256527
0.08457512610019607,0.08457512610019607
0.04297872129984676,0.04297872129984676
0.020957095229073602,0.020957095229073602
0.04297872129984676,0.04297872129984676
0.07886581563740304,0.07886581563740304
0.10985921529256527,0.10985921529256527
0.11883098887695434,0.11883098887695434
0.10985921529256527,0.10985921529256527
0.07805019985700402,0.07805019985700402
0.04297872129984676,0.04297872129984676
0.02340394257027062,0.02340394257027062
0.04297872129984676,0.04297872129984676
0.08049704719820104,0.08049704719820104
0.10985921529256527,0.10985921529256527
0.10251867326897421,0.10251867326897421
0.07641896829620602,0.07641896829620602
0.039716258178250745,0.039716258178250745
0.009538474303487516,0.009538474303487516
-0.01819246223007869,-0.01819246223007869
-0.023901772692871734,-0.023901772692871734
-0.02227054113207372,-0.02227054113207372
-0.023901772692871734,-0.023901772692871734
-0.0459233987636449,-0.0459233987636449
-0.057342019689230986,-0.057342019689230986
-0.059788867030428,-0.059788867030428
-0.057342019689230986,-0.057342019689230986
-0.08099487732080217,-0.08099487732080217
-0.09078226668559024,-0.09078226668559024
-0.06549817749322105,-0.06549817749322105
0.009538474303487516,0.009538474303487516
0.06581596315101894,0.06581596315101894
0.07641896829620602,0.07641896829620602
0.04460995286064478,0.04460995286064478
0.04297872129984676,0.04297872129984676
0.07234088939421099,0.07234088939421099
0.10985921529256527,0.10985921529256527
0.11719975731615632,0.11719975731615632
0.1432994622889245,0.1432994622889245
0.23301719813281518,0.23301719813281518
0.4116370540401975,0.4116370540401975
0.6563217881598994,0.6563217881598994
0.9809368687587038,0.9809368687587038
1.412397616589778,1.412397616589778
1.9849598944298803,1.9849598944298803
2.6798645393298335,2.6798645393298335
3.424521746834126,3.424521746834126
4.058255208204153,4.058255208204153
4.429360388285701,4.429360388285701
4.5027658085216125,4.5027658085216125
4.429360388285701,4.429360388285701
4.387763983485352,4.387763983485352
4.429360388285701,4.429360388285701
4.417126151579716,4.417126151579716
4.194463043530788,4.194463043530788
3.7026467279501873,3.7026467279501873
3.023238782877815,3.023238782877815
2.2687941860087344,2.2687941860087344
1.5159808207004517,1.5159808207004517
0.7631674553921691,0.7631674553921691
0.04297872129984676,0.04297872129984676
-0.5393709459050436,-0.5393709459050436
-0.860723563382252,-0.860723563382252
-0.9553349939085367,-0.9553349939085367
-0.9610443043713297,-0.9610443043713297
-0.9618599201517287,-0.9618599201517287
-0.8941638103786113,-0.8941638103786113
-0.7685589801971643,-0.7685589801971643
-0.6935223284004558,-0.6935223284004558
-0.7457217383459921,-0.7457217383459921
-0.7938430693895335,-0.7938430693895335
-0.7449061225655932,-0.7449061225655932
-0.6600820814040965,-0.6600820814040965
-0.6886286337180617,-0.6886286337180617
-0.7938430693895335,-0.7938430693895335
-0.868879721186242,-0.868879721186242
-0.860723563382252,-0.860723563382252
-0.8419644004330749,-0.8419644004330749
-0.8272833163858928,-0.8272833163858928
-0.8126022323387107,-0.8126022323387107
-0.7938430693895335,-0.7938430693895335
-0.8060773060955186,-0.8060773060955186
-0.8272833163858928,-0.8272833163858928
-0.8256520848250948,-0.8256520848250948
-0.7938430693895335,-0.7938430693895335
-0.7767151380011543,-0.7767151380011543
-0.7938430693895335,-0.7938430693895335
-0.8272833163858928,-0.8272833163858928
-0.8272833163858928,-0.8272833163858928
-0.7856869115855435,-0.7856869115855435
-0.726962575396815,-0.726962575396815
-0.6959691757416527,-0.6959691757416527
-0.6935223284004558,-0.6935223284004558
-0.7106502597888349,-0.7106502597888349
-0.726962575396815,-0.726962575396815
-0.7391968121028001,-0.7391968121028001
-0.726962575396815,-0.726962575396815
-0.6967847915220517,-0.6967847915220517
-0.6600820814040965,-0.6600820814040965
-0.6396916868941214,-0.6396916868941214
-0.6266418344077372,-0.6266418344077372
-0.6225637555057422,-0.6225637555057422
-0.6266418344077372,-0.6266418344077372
-0.6388760711137224,-0.6388760711137224
-0.6266418344077372,-0.6266418344077372
-0.5817829664857919,-0.5817829664857919
-0.5263210934186595,-0.5263210934186595
-0.5173493198342705,-0.5173493198342705
-0.5597613404150188,-0.5597613404150188
-0.6054358241173631,-0.6054358241173631
-0.593201587411378,-0.593201587411378
-0.5369240985638466,-0.5369240985638466
-0.49288084642230023,-0.49288084642230023
-0.49288084642230023,-0.49288084642230023
-0.49288084642230023,-0.49288084642230023
-0.46514990988873406,-0.46514990988873406
-0.42600035242958173,-0.42600035242958173
-0.4178441946255917,-0.4178441946255917
-0.42600035242958173,-0.42600035242958173
-0.4202910419667887,-0.4202910419667887
-0.3925601054332225,-0.3925601054332225
-0.37216971092324735,-0.37216971092324735
-0.3591198584368632,-0.3591198584368632
-0.34607000595047915,-0.34607000595047915
-0.324863995660105,-0.324863995660105
-0.3101829116129229,-0.3101829116129229
-0.29142374866374576,-0.29142374866374576
-0.27511143305576563,-0.27511143305576563
-0.2579835016673865,-0.2579835016673865
-0.24901172808299743,-0.24901172808299743
-0.22454325467102723,-0.22454325467102723
-0.191918623455067,-0.191918623455067
-0.15766276067830873,-0.15766276067830873
-0.13237867148593954,-0.13237867148593954
-0.09078226668559024,-0.09078226668559024
-0.04673901454404391,-0.04673901454404391
-0.023901772692871734,-0.023901772692871734
-0.03450477783805882,-0.03450477783805882
-0.023901772692871734,-0.023901772692871734
0.033191331935058695,0.033191331935058695
0.10985921529256527,0.10985921529256527
0.14411507806932353,0.14411507806932353
0.1432994622889245,0.1432994622889245
0.14493069384972254,0.14493069384972254
0.17673970928528376,0.17673970928528376
0.20528626159924898,0.20528626159924898
0.21017995628164302,0.21017995628164302
0.18897394599126885,0.18897394599126885
0.17673970928528376,0.17673970928528376
0.1938676406736629,0.1938676406736629
0.24362020327800227,0.24362020327800227
0.2819541449567556,0.2819541449567556
0.27706045027436155,0.27706045027436155
0.22486104032882512,0.22486104032882512
0.17673970928528376,0.17673970928528376
0.16124300945770265,0.16124300945770265
0.17673970928528376,0.17673970928528376
0.18571148286967284,0.18571148286967284
0.17673970928528376,0.17673970928528376
0.14656192541052054,0.14656192541052054
0.10985921529256527,0.10985921529256527
0.06826281049221596,0.06826281049221596
0.04297872129984676,0.04297872129984676
0.034006947715457696,0.034006947715457696
0.04297872129984676,0.04297872129984676
0.04624118442144279,0.04624118442144279
0.04297872129984676,0.04297872129984676
0.026666405691866645,0.026666405691866645
0.009538474303487516,0.009538474303487516
-0.011667535986886643,-0.011667535986886643
-0.023901772692871734,-0.023901772692871734
-0.03858285674005384,-0.03858285674005384
-0.057342019689230986,-0.057342019689230986
-0.09322911402678725,-0.09322911402678725
-0.12422251368194949,-0.12422251368194949
-0.1380879819487326,-0.1380879819487326
-0.12422251368194949,-0.12422251368194949
-0.1136195085367624,-0.1136195085367624
-0.12422251368194949,-0.12422251368194949
-0.16255645536070276,-0.16255645536070276
-0.19110300767466798,-0.19110300767466798
-0.20089039703945605,-0.20089039703945605
-0.19110300767466798,-0.19110300767466798
-0.190287391894269,-0.190287391894269
-0.19110300767466798,-0.19110300767466798
-0.194365470796264,-0.194365470796264
-0.19110300767466798,-0.19110300767466798
-0.20252162860025408,-0.20252162860025408
-0.22454325467102723,-0.22454325467102723
-0.2514585754241944,-0.2514585754241944
-0.2579835016673865,-0.2579835016673865
-0.25716788588698747,-0.25716788588698747
-0.2579835016673865,-0.2579835016673865
-0.26695527525177554,-0.26695527525177554
-0.2579835016673865,-0.2579835016673865
-0.24819611230259842,-0.24819611230259842
-0.2579835016673865,-0.2579835016673865
-0.29142374866374576,-0.29142374866374576
-0.29142374866374576,-0.29142374866374576
-0.2547210385457905,-0.2547210385457905
-0.22454325467102723,-0.22454325467102723
-0.24167118605940638,-0.24167118605940638
-0.2579835016673865,-0.2579835016673865
-0.24493364918100238,-0.24493364918100238
-0.22454325467102723,-0.22454325467102723
-0.24085557027900736,-0.24085557027900736
-0.2579835016673865,-0.2579835016673865
-0.2473804965221994,-0.2473804965221994
-0.22454325467102723,-0.22454325467102723
-0.23759310715741133,-0.23759310715741133
-0.2579835016673865,-0.2579835016673865
-0.25308980698499245,-0.25308980698499245
-0.22454325467102723,-0.22454325467102723
-0.21720271264743618,-0.21720271264743618
-0.22454325467102723,-0.22454325467102723
-0.2310681809142193,-0.2310681809142193
-0.22454325467102723,-0.22454325467102723
-0.22535887045142625,-0.22535887045142625
-0.22454325467102723,-0.22454325467102723
-0.22454325467102723,-0.22454325467102723
-0.22454325467102723,-0.22454325467102723
-0.2326994124750173,-0.2326994124750173
-0.22454325467102723,-0.22454325467102723
-0.2049684759414511,-0.2049684759414511
-0.19110300767466798,-0.19110300767466798
-0.2065997075022491,-0.2065997075022491
-0.22454325467102723,-0.22454325467102723
-0.23025256513382028,-0.23025256513382028
-0.22454325467102723,-0.22454325467102723
-0.23759310715741133,-0.23759310715741133
-0.2579835016673865,-0.2579835016673865
-0.2702177383733716,-0.2702177383733716
-0.2579835016673865,-0.2579835016673865
-0.25064295964379546,-0.25064295964379546
-0.2579835016673865,-0.2579835016673865
-0.28163635929895764,-0.28163635929895764
-0.29142374866374576,-0.29142374866374576
-0.2922393644441447,-0.2922393644441447
-0.29142374866374576,-0.29142374866374576
-0.30936729583252387,-0.30936729583252387
-0.324863995660105,-0.324863995660105
-0.33220453768369607,-0.33220453768369607
-0.324863995660105,-0.324863995660105
-0.32404837987970597,-0.32404837987970597
-0.324863995660105,-0.324863995660105
-0.3387294639268881,-0.3387294639268881
-0.3591198584368632,-0.3591198584368632
-0.38603517919003044,-0.38603517919003044
-0.3925601054332225,-0.3925601054332225
-0.3786946371664394,-0.3786946371664394
-0.3591198584368632,-0.3591198584368632
-0.3664604004604543,-0.3664604004604543
-0.3925601054332225,-0.3925601054332225
-0.4186598104059907,-0.4186598104059907
-0.42600035242958173,-0.42600035242958173
-0.42681596820998075,-0.42681596820998075
-0.42600035242958173,-0.42600035242958173
-0.4300784313315768,-0.4300784313315768
-0.42600035242958173,-0.42600035242958173
-0.41539734728439465,-0.41539734728439465
-0.3925601054332225,-0.3925601054332225
-0.3648291688996563,-0.3648291688996563
-0.324863995660105,-0.324863995660105
-0.27837389617736163,-0.27837389617736163
-0.22454325467102723,-0.22454325467102723
-0.192734239235466,-0.192734239235466
-0.19110300767466798,-0.19110300767466798
-0.21394024952584015,-0.21394024952584015
-0.22454325467102723,-0.22454325467102723
-0.22372763889062824,-0.22372763889062824
-0.22454325467102723,-0.22454325467102723
-0.24493364918100238,-0.24493364918100238
-0.2579835016673865,-0.2579835016673865
-0.2587991174477855,-0.2587991174477855
-0.2579835016673865,-0.2579835016673865
-0.2848988224205537,-0.2848988224205537
-0.324863995660105,-0.324863995660105
-0.37216971092324735,-0.37216971092324735
-0.42600035242958173,-0.42600035242958173
-0.49695892532429525,-0.49695892532429525
-0.5597613404150188,-0.5597613404150188
-0.6013577452153681,-0.6013577452153681
-0.6266418344077372,-0.6266418344077372
-0.6527415393805055,-0.6527415393805055
-0.6600820814040965,-0.6600820814040965
-0.6445853815765153,-0.6445853815765153
-0.6266418344077372,-0.6266418344077372
-0.6380604553333233,-0.6380604553333233
-0.6600820814040965,-0.6600820814040965
-0.6715007023296826,-0.6715007023296826
-0.6600820814040965,-0.6600820814040965
-0.6454009973569144,-0.6454009973569144
-0.6266418344077372,-0.6266418344077372
-0.6282730659685353,-0.6282730659685353
-0.6600820814040965,-0.6600820814040965
-0.7122814913496329,-0.7122814913496329
-0.726962575396815,-0.726962575396815
-0.7171751860320269,-0.7171751860320269
-0.726962575396815,-0.726962575396815
-0.7897649904875385,-0.7897649904875385
-0.8272833163858928,-0.8272833163858928
-0.7987367640719275,-0.7987367640719275
-0.726962575396815,-0.726962575396815
-0.6951535599612537,-0.6951535599612537
-0.6935223284004558,-0.6935223284004558
-0.6902598652788597,-0.6902598652788597
-0.6600820814040965,-0.6600820814040965
-0.6258262186273382,-0.6258262186273382
-0.5597613404150188,-0.5597613404150188
-0.4219222735275867,-0.4219222735275867
-0.19110300767466798,-0.19110300767466798
0.09273128390418614,0.09273128390418614
0.4116370540401975,0.4116370540401975
0.7966077023885284,0.7966077023885284
1.3153393387222962,1.3153393387222962
1.9702788103826983,1.9702788103826983
2.6545804501374644,2.6545804501374644
3.1871775547380152,3.1871775547380152
3.4579619938304855,3.4579619938304855
3.5101614037760216,3.5101614037760216
3.4914022408268446,3.4914022408268446
3.4873241619248496,3.4873241619248496
3.4579619938304855,3.4579619938304855
3.315229232260659,3.315229232260659
3.023238782877815,3.023238782877815
2.5697564089759677,2.5697564089759677
1.951519647433521,1.951519647433521
1.1995218979056375,1.1995218979056375
0.4116370540401975,0.4116370540401975
-0.34280754282888315,-0.34280754282888315
-1.0287404141444472,-1.0287404141444472
-1.5743873712313823,-1.5743873712313823
-1.8655622048338276,-1.8655622048338276
-1.9128679200969698,-1.9128679200969698
-1.8655622048338276,-1.8655622048338276
-1.8272282631550743,-1.8272282631550743
-1.7318012168483905,-1.7318012168483905
-1.5686780607685893,-1.5686780607685893
-1.4634636250971176,-1.4634636250971176
-1.509138108799462,-1.509138108799462
-1.5637843660861952,-1.5637843660861952
-1.5042444141170679,-1.5042444141170679
-1.396583131104399,-1.396583131104399
-1.4137110624927782,-1.4137110624927782
-1.530344119089836,-1.530344119089836
-1.6143525444709337,-1.6143525444709337
-1.5972246130825545,-1.5972246130825545
-1.5654155976469932,-1.5654155976469932
-1.5637843660861952,-1.5637843660861952
-1.5768342185725794,-1.5768342185725794
-1.5637843660861952,-1.5637843660861952
-1.5417627400154221,-1.5417627400154221
-1.530344119089836,-1.530344119089836
-1.533606582211432,-1.533606582211432
-1.530344119089836,-1.530344119089836
-1.514847419262255,-1.514847419262255
-1.4969038720934769,-1.4969038720934769
-1.4928257931914817,-1.4928257931914817
-1.4969038720934769,-1.4969038720934769
-1.4993507194346738,-1.4993507194346738
-1.4969038720934769,-1.4969038720934769
-1.4993507194346738,-1.4993507194346738
-1.4969038720934769,-1.4969038720934769
-1.4838540196070926,-1.4838540196070926
-1.4634636250971176,-1.4634636250971176
-1.4569386988539255,-1.4569386988539255
-1.4634636250971176,-1.4634636250971176
-1.4708041671207086,-1.4708041671207086
-1.4634636250971176,-1.4634636250971176
-1.4463356937087384,-1.4463356937087384
-1.4300233781007583,-1.4300233781007583
-1.4259452991987633,-1.4259452991987633
-1.4300233781007583,-1.4300233781007583
-1.4349170727831524,-1.4349170727831524
-1.4300233781007583,-1.4300233781007583
-1.4161579098339752,-1.4161579098339752
-1.396583131104399,-1.396583131104399
-1.3794551997160198,-1.3794551997160198
-1.3631428841080397,-1.3631428841080397
-1.3476461842804586,-1.3476461842804586
-1.3297026371116805,-1.3297026371116805
-1.3223620950880894,-1.3223620950880894
-1.3297026371116805,-1.3297026371116805
-1.3419368738176656,-1.3419368738176656
-1.3297026371116805,-1.3297026371116805
-1.2946311585545232,-1.2946311585545232
-1.2628221431189621,-1.2628221431189621
-1.257928448436568,-1.257928448436568
-1.2628221431189621,-1.2628221431189621
-1.2538503695345729,-1.2538503695345729
-1.2293818961226028,-1.2293818961226028
-1.2098071173930267,-1.2098071173930267
-1.1959416491262436,-1.1959416491262436
-1.1828917966398593,-1.1828917966398593
-1.1625014021298843,-1.1625014021298843
-1.1445578549611062,-1.1445578549611062
-1.129061155133525,-1.129061155133525
-1.1151956868667419,-1.1151956868667419
-1.0956209081371657,-1.0956209081371657
-1.0687055873839986,-1.0687055873839986
-1.0287404141444472,-1.0287404141444472
-0.988775240904896,-0.988775240904896
-0.9610443043713297,-0.9610443043713297
-0.9488100676653447,-0.9488100676653447
-0.9276040573749705,-0.9276040573749705
-0.8941638103786113,-0.8941638103786113
-0.860723563382252,-0.860723563382252
-0.8444112477742719,-0.8444112477742719
-0.8272833163858928,-0.8272833163858928
-0.7987367640719275,-0.7987367640719275
-0.7604028223931742,-0.7604028223931742
-0.737565580542002,-0.737565580542002
-0.726962575396815,-0.726962575396815
-0.7171751860320269,-0.7171751860320269
-0.6935223284004558,-0.6935223284004558
-0.6715007023296826,-0.6715007023296826
-0.6600820814040965,-0.6600820814040965
-0.6625289287452936,-0.6625289287452936
-0.6600820814040965,-0.6600820814040965
-0.6462166131373134,-0.6462166131373134
-0.6266418344077372,-0.6266418344077372
-0.6290886817489343,-0.6290886817489343
-0.6600820814040965,-0.6600820814040965
-0.7041253335456429,-0.7041253335456429
-0.726962575396815,-0.726962575396815
-0.726962575396815,-0.726962575396815
-0.726962575396815,-0.726962575396815
-0.7538778961499822,-0.7538778961499822
-0.7938430693895335,-0.7938430693895335
-0.8240208532642967,-0.8240208532642967
-0.8272833163858928,-0.8272833163858928
-0.8232052374838977,-0.8232052374838977
-0.8272833163858928,-0.8272833163858928
-0.8460424793350699,-0.8460424793350699
-0.860723563382252,-0.860723563382252
-0.8762202632098332,-0.8762202632098332
-0.8941638103786113,-0.8941638103786113
-0.9194478995709805,-0.9194478995709805
-0.9276040573749705,-0.9276040573749705
-0.9251572100337735,-0.9251572100337735
-0.9276040573749705,-0.9276040573749705
-0.9569662254693347,-0.9569662254693347
-0.995300167148088,-0.995300167148088
-1.0173217932188612,-1.0173217932188612
-1.0287404141444472,-1.0287404141444472
-1.0344497246072404,-1.0344497246072404
-1.0287404141444472,-1.0287404141444472
-1.0173217932188612,-1.0173217932188612
-1.0287404141444472,-1.0287404141444472
-1.0246623352424522,-1.0246623352424522
-0.9276040573749705,-0.9276040573749705
-0.7620340539539723,-0.7620340539539723
-0.6600820814040965,-0.6600820814040965
-0.6323511448705303,-0.6323511448705303
-0.5263210934186595,-0.5263210934186595
-0.2710333541537706,-0.2710333541537706
0.04297872129984676,0.04297872129984676
0.3928778910910204,0.3928778910910204
0.74603952400379,0.74603952400379
0.6873151878150616,0.6873151878150616
-0.3591198584368632,-0.3591198584368632
-2.215461374625001,-2.215461374625001
-3.807543377963861,-3.807543377963861
-4.32545939851723,-4.32545939851723
-4.108505600931094,-4.108505600931094
-3.971482149824061,-3.971482149824061
-4.108505600931094,-4.108505600931094
-4.193329642092591,-4.193329642092591
-4.108505600931094,-4.108505600931094
-4.061199885667952,-4.061199885667952
-4.108505600931094,-4.108505600931094
-4.13705215324506,-4.13705215324506
-4.108505600931094,-4.108505600931094
-4.104427522029099,-4.104427522029099
-4.108505600931094,-4.108505600931094
-4.096271364225109,-4.096271364225109
-4.108505600931094,-4.108505600931094
-4.1672299371198225,-4.1672299371198225
-4.108505600931094,-4.108505600931094
-3.8018340675010682,-3.8018340675010682
-3.305124057238073,-3.305124057238073
-2.83206690460665,-2.83206690460665
-2.468302266548693,-2.468302266548693
-2.160815117338268,-2.160815117338268
-1.8321219578374683,-1.8321219578374683
-1.5042444141170679,-1.5042444141170679
-1.2293818961226028,-1.2293818961226028
-0.9773566199793099,-0.9773566199793099
-0.6266418344077372,-0.6266418344077372
-0.12340689790155047,-0.12340689790155047
0.4450773010365568,0.4450773010365568
0.9165032221071823,0.9165032221071823
1.2150185977332186,1.2150185977332186
1.3585669750834437,1.3585669750834437
1.415660079711374,1.415660079711374
1.4417597846841423,1.4417597846841423
1.4825405737040926,1.4825405737040926
1.540449294112422,1.540449294112422
1.5828613146931703,1.5828613146931703
1.5861237778147663,1.5861237778147663
1.5828613146931703,1.5828613146931703
1.6056985565443425,1.6056985565443425
1.6505574244662877,1.6505574244662877
1.675841513658657,1.675841513658657
1.683997671462647,1.683997671462647
1.68970698192544,1.68970698192544
1.7174379184590063,1.7174379184590063
1.7386439287493805,1.7386439287493805
1.7508781654553656,1.7508781654553656
1.7614811706005526,1.7614811706005526
1.8177586594480841,1.8177586594480841
1.8927953112447926,1.8927953112447926
1.951519647433521,1.951519647433521
1.962122652578708,1.962122652578708
1.9849598944298803,1.9849598944298803
2.0306343781322247,2.0306343781322247
2.085280635418958,2.085280635418958
2.102408566807337,2.102408566807337
2.1187208824153174,2.1187208824153174
2.1285082717801056,2.1285082717801056
2.1187208824153174,2.1187208824153174
2.066521472469781,2.066521472469781
2.051840388422599,2.051840388422599
2.1007773352465393,2.1007773352465393
2.185601376408036,2.185601376408036
2.232907091671178,2.232907091671178
2.2867377331775125,2.2867377331775125
2.379717932142999,2.379717932142999
2.5208194621520272,2.5208194621520272
2.6439774449922773,2.6439774449922773
2.754901191126542,2.754901191126542
2.8438033111900336,2.8438033111900336
2.922102426108338,2.922102426108338
2.975933067614673,2.975933067614673
3.056679029874174,3.056679029874174
3.15863100242405,3.15863100242405
3.25732051185233,3.25732051185233
3.307073074456669,3.307073074456669
3.3576412528414075,3.3576412528414075
3.422890515273328,3.422890515273328
3.4914022408268446,3.4914022408268446
3.5134238668976177,3.5134238668976177
3.5248424878232036,3.5248424878232036
3.541154803431184,3.541154803431184
3.558282734819563,3.558282734819563
3.532183029846795,3.532183029846795
3.4914022408268446,3.4914022408268446
3.453068299148091,3.453068299148091
3.424521746834126,3.424521746834126
3.3649817948649985,3.3649817948649985
3.290760758848689,3.290760758848689
3.2051211019067933,3.2051211019067933
3.1235595238668927,3.1235595238668927
3.0216075513170173,3.0216075513170173
2.922102426108338,2.922102426108338
2.8217816851192605,2.8217816851192605
2.721460944130183,2.721460944130183
2.5917780350467408,2.5917780350467408
2.4539389681593087,2.4539389681593087
2.3120218223698816,2.3120218223698816
2.185601376408036,2.185601376408036
2.0510247726422,2.0510247726422
1.9180794004371617,1.9180794004371617
1.7786091019889319,1.7786091019889319
1.6505574244662877,1.6505574244662877
1.5151652049200528,1.5151652049200528
1.3822198327150148,1.3822198327150148
1.2411183027059867,1.2411183027059867
1.1146978567441408,1.1146978567441408
0.9915398739038909,0.9915398739038909
0.879800511989227,0.879800511989227
0.7607206080509722,0.7607206080509722
0.6457187830147123,0.6457187830147123
0.5241920317352604,0.5241920317352604
0.4116370540401975,0.4116370540401975
0.3007133079059327,0.3007133079059327
0.21017995628164302,0.21017995628164302
0.12454029933974738,0.12454029933974738
0.04297872129984676,0.04297872129984676
-0.04673901454404391,-0.04673901454404391
-0.12422251368194949,-0.12422251368194949
-0.194365470796264,-0.194365470796264
-0.2579835016673865,-0.2579835016673865
-0.3403606954876861,-0.3403606954876861
-0.42600035242958173,-0.42600035242958173
-0.5042994673478863,-0.5042994673478863
-0.5597613404150188,-0.5597613404150188
-0.6095139030193581,-0.6095139030193581
-0.6600820814040965,-0.6600820814040965
-0.7253313438360169,-0.7253313438360169
-0.7938430693895335,-0.7938430693895335
-0.857461100260656,-0.857461100260656
-0.8941638103786113,-0.8941638103786113
-0.9218947469121774,-0.9218947469121774
-0.9610443043713297,-0.9610443043713297
-1.0287404141444472,-1.0287404141444472
-1.0956209081371657,-1.0956209081371657
-1.1412953918395101,-1.1412953918395101
-1.1625014021298843,-1.1625014021298843
-1.1788137177378644,-1.1788137177378644
-1.1959416491262436,-1.1959416491262436
-1.2236725856598096,-1.2236725856598096
-1.2628221431189621,-1.2628221431189621
-1.3076810110409074,-1.3076810110409074
-1.3297026371116805,-1.3297026371116805
-1.3297026371116805,-1.3297026371116805
-1.3297026371116805,-1.3297026371116805
-1.3582491894256457,-1.3582491894256457
-1.396583131104399,-1.396583131104399
-1.4226828360771673,-1.4226828360771673
-1.4300233781007583,-1.4300233781007583
-1.4438888463675414,-1.4438888463675414
-1.4634636250971176,-1.4634636250971176
-1.4756978618031027,-1.4756978618031027
-1.4634636250971176,-1.4634636250971176
-1.4430732305871423,-1.4430732305871423
-1.4300233781007583,-1.4300233781007583
-1.4324702254419552,-1.4324702254419552
-1.4300233781007583,-1.4300233781007583
-1.4161579098339752,-1.4161579098339752
-1.396583131104399,-1.396583131104399
-1.390873820641606,-1.390873820641606
-1.396583131104399,-1.396583131104399
-1.40392367312799,-1.40392367312799
-1.396583131104399,-1.396583131104399
-1.3810864312768178,-1.3810864312768178
-1.3631428841080397,-1.3631428841080397
-1.3468305685000597,-1.3468305685000597
-1.3297026371116805,-1.3297026371116805
-1.3231777108684886,-1.3231777108684886
-1.3297026371116805,-1.3297026371116805
-1.3411212580372667,-1.3411212580372667
-1.3297026371116805,-1.3297026371116805
-1.2962623901153212,-1.2962623901153212
-1.2628221431189621,-1.2628221431189621
-1.25629721687577,-1.25629721687577
-1.2628221431189621,-1.2628221431189621
-1.257112832656169,-1.257112832656169
-1.2293818961226028,-1.2293818961226028
-1.2032821911498346,-1.2032821911498346
-1.1959416491262436,-1.1959416491262436
-1.2016509595890366,-1.2016509595890366
-1.1959416491262436,-1.1959416491262436
-1.1788137177378644,-1.1788137177378644
-1.1625014021298843,-1.1625014021298843
-1.1616857863494852,-1.1616857863494852
-1.1625014021298843,-1.1625014021298843
-1.152714012765096,-1.152714012765096
-1.129061155133525,-1.129061155133525
-1.10867076062355,-1.10867076062355
-1.0956209081371657,-1.0956209081371657
-1.0833866714311806,-1.0833866714311806
-1.0621806611408064,-1.0621806611408064
-1.0401590350700334,-1.0401590350700334
-1.0287404141444472,-1.0287404141444472
-1.0303716457052452,-1.0303716457052452
-1.0287404141444472,-1.0287404141444472
-1.0156905616580632,-1.0156905616580632
-0.995300167148088,-0.995300167148088
-0.9781722357597089,-0.9781722357597089
-0.9610443043713297,-0.9610443043713297
-0.9455476045437486,-0.9455476045437486
-0.9276040573749705,-0.9276040573749705
-0.9145542048885864,-0.9145542048885864
-0.8941638103786113,-0.8941638103786113
-0.8737734158686361,-0.8737734158686361
-0.860723563382252,-0.860723563382252
-0.863986026503848,-0.863986026503848
-0.860723563382252,-0.860723563382252
-0.8460424793350699,-0.8460424793350699
-0.8272833163858928,-0.8272833163858928
-0.8248364690446958,-0.8248364690446958
-0.8272833163858928,-0.8272833163858928
-0.8297301637270897,-0.8297301637270897
-0.8272833163858928,-0.8272833163858928
-0.8215740059230997,-0.8215740059230997
-0.7938430693895335,-0.7938430693895335
-0.7546935119303813,-0.7546935119303813
-0.726962575396815,-0.726962575396815
-0.727778191177214,-0.727778191177214
-0.726962575396815,-0.726962575396815
-0.7114658755692339,-0.7114658755692339
-0.6935223284004558,-0.6935223284004558
-0.6951535599612537,-0.6951535599612537
-0.6935223284004558,-0.6935223284004558
-0.6772100127924756,-0.6772100127924756
-0.6600820814040965,-0.6600820814040965
-0.6625289287452936,-0.6625289287452936
-0.6600820814040965,-0.6600820814040965
-0.6429541500157174,-0.6429541500157174
-0.6266418344077372,-0.6266418344077372
-0.6315355290901313,-0.6315355290901313
-0.6266418344077372,-0.6266418344077372
-0.6054358241173631,-0.6054358241173631
-0.593201587411378,-0.593201587411378
-0.6144075977017521,-0.6144075977017521
-0.6266418344077372,-0.6266418344077372
-0.6005421294349691,-0.6005421294349691
-0.5597613404150188,-0.5597613404150188
-0.5516051826110286,-0.5516051826110286
-0.5597613404150188,-0.5597613404150188
-0.5524207983914277,-0.5524207983914277
-0.5263210934186595,-0.5263210934186595
-0.5181649356146695,-0.5181649356146695
-0.5263210934186595,-0.5263210934186595
-0.5263210934186595,-0.5263210934186595
-0.49288084642230023,-0.49288084642230023
-0.4512844416219509,-0.4512844416219509
-0.42600035242958173,-0.42600035242958173
-0.4251847366491827,-0.4251847366491827
-0.42600035242958173,-0.42600035242958173
-0.4251847366491827,-0.4251847366491827
-0.42600035242958173,-0.42600035242958173
-0.4333408944531728,-0.4333408944531728
-0.42600035242958173,-0.42600035242958173
-0.4072411894804046,-0.4072411894804046
-0.3925601054332225,-0.3925601054332225
-0.39745380011561654,-0.39745380011561654
-0.3925601054332225,-0.3925601054332225
-0.3631979373388583,-0.3631979373388583
-0.324863995660105,-0.324863995660105
-0.31589222207571593,-0.31589222207571593
-0.324863995660105,-0.324863995660105
-0.33383576924449404,-0.33383576924449404
-0.324863995660105,-0.324863995660105
-0.3134453747345189,-0.3134453747345189
-0.29142374866374576,-0.29142374866374576
-0.2710333541537706,-0.2710333541537706
-0.2579835016673865,-0.2579835016673865
-0.2620615805693815,-0.2620615805693815
-0.2579835016673865,-0.2579835016673865
-0.24248680183980537,-0.24248680183980537
-0.22454325467102723,-0.22454325467102723
-0.22535887045142625,-0.22535887045142625
-0.22454325467102723,-0.22454325467102723
-0.21312463374544116,-0.21312463374544116
-0.19110300767466798,-0.19110300767466798
-0.18702492877267296,-0.18702492877267296
-0.19110300767466798,-0.19110300767466798
-0.19762793391786004,-0.19762793391786004
-0.19110300767466798,-0.19110300767466798
-0.1805000025294809,-0.1805000025294809
-0.15766276067830873,-0.15766276067830873
-0.13727236616833358,-0.13727236616833358
-0.12422251368194949,-0.12422251368194949
-0.1274849768035455,-0.1274849768035455
-0.12422251368194949,-0.12422251368194949
-0.11117266119556539,-0.11117266119556539
-0.09078226668559024,-0.09078226668559024
-0.08833541934439322,-0.08833541934439322
-0.09078226668559024,-0.09078226668559024
-0.09486034558758527,-0.09486034558758527
-0.09078226668559024,-0.09078226668559024
-0.09404472980718626,-0.09404472980718626
-0.09078226668559024,-0.09078226668559024
-0.08099487732080217,-0.08099487732080217
-0.057342019689230986,-0.057342019689230986
-0.03776724095965484,-0.03776724095965484
-0.023901772692871734,-0.023901772692871734
-0.03368916205765981,-0.03368916205765981
-0.057342019689230986,-0.057342019689230986
-0.06876064061481707,-0.06876064061481707
-0.023901772692871734,-0.023901772692871734
0.053581726445033846,0.053581726445033846
0.10985921529256527,0.10985921529256527
0.12046222043775234,0.12046222043775234
0.1432994622889245,0.1432994622889245
0.20691749316004698,0.20691749316004698
0.27706045027436155,0.27706045027436155
0.29418838166274064,0.29418838166274064
0.27706045027436155,0.27706045027436155
0.26645744512917446,0.26645744512917446
0.27706045027436155,0.27706045027436155
0.27950729761555854,0.27950729761555854
0.27706045027436155,0.27706045027436155
0.27706045027436155,0.27706045027436155
0.27706045027436155,0.27706045027436155
0.2517763610819923,0.2517763610819923
0.21017995628164302,0.21017995628164302
0.15961177789690464,0.15961177789690464
0.10985921529256527,0.10985921529256527
0.04379433708024577,0.04379433708024577
-0.023901772692871734,-0.023901772692871734
-0.07610118263840812,-0.07610118263840812
-0.09078226668559024,-0.09078226668559024
-0.09078226668559024,-0.09078226668559024
-0.09078226668559024,-0.09078226668559024
-0.1005696560503783,-0.1005696560503783
-0.09078226668559024,-0.09078226668559024
-0.06142009859122602,-0.06142009859122602
-0.023901772692871734,-0.023901772692871734
-0.014929999108482668,-0.014929999108482668
-0.023901772692871734,-0.023901772692871734
-0.036136009398856826,-0.036136009398856826
-0.023901772692871734,-0.023901772692871734
-0.005142609743694594,-0.005142609743694594
0.009538474303487516,0.009538474303487516
-0.004326993963295589,-0.004326993963295589
-0.023901772692871734,-0.023901772692871734
-0.03939847252045285,-0.03939847252045285
-0.023901772692871734,-0.023901772692871734
-0.014114383328083662,-0.014114383328083662
-0.023901772692871734,-0.023901772692871734
-0.059788867030428,-0.059788867030428
-0.057342019689230986,-0.057342019689230986
-0.0059582255240936,-0.0059582255240936
0.07641896829620602,0.07641896829620602
0.11393729419456029,0.11393729419456029
0.10985921529256527,0.10985921529256527
0.09680936280618117,0.09680936280618117
0.1432994622889245,0.1432994622889245
0.2607481346663814,0.2607481346663814
0.4450773010365568,0.4450773010365568
0.6612154828422934,0.6612154828422934
0.9132407589855863,0.9132407589855863
1.2411183027059867,1.2411183027059867
1.7174379184590063,1.7174379184590063
2.340568374683847,2.340568374683847
3.023238782877815,3.023238782877815
3.6194539183494885,3.6194539183494885
4.0272618085489915,4.0272618085489915
4.197725506652384,4.197725506652384
4.194463043530788,4.194463043530788
4.171625801679616,4.171625801679616
4.262159153303905,4.262159153303905
4.369820436316574,4.369820436316574
4.262159153303905,4.262159153303905
3.828251558131634,3.828251558131634
3.223880264855971,3.223880264855971
2.606459119093923,2.606459119093923
1.951519647433521,1.951519647433521
1.1636348035680812,1.1636348035680812
0.344756560047479,0.344756560047479
-0.2881612855421497,-0.2881612855421497
-0.6266418344077372,-0.6266418344077372
-0.7799776011227504,-0.7799776011227504
-0.860723563382252,-0.860723563382252
-0.8664328738450451,-0.8664328738450451
-0.726962575396815,-0.726962575396815
-0.5181649356146695,-0.5181649356146695
-0.3925601054332225,-0.3925601054332225
-0.43823458913556684,-0.43823458913556684
-0.5263210934186595,-0.5263210934186595
-0.5165337040538714,-0.5165337040538714
-0.3925601054332225,-0.3925601054332225
-0.3036579853697308,-0.3036579853697308
-0.324863995660105,-0.324863995660105
-0.4251847366491827,-0.4251847366491827
-0.49288084642230023,-0.49288084642230023
-0.5091931620302804,-0.5091931620302804
-0.49288084642230023,-0.49288084642230023
-0.49124961486150226,-0.49124961486150226
-0.49288084642230023,-0.49288084642230023
-0.4871715359595072,-0.4871715359595072
-0.459440599425941,-0.459440599425941
-0.43497212601397084,-0.43497212601397084
-0.42600035242958173,-0.42600035242958173
-0.4300784313315768,-0.4300784313315768
-0.42600035242958173,-0.42600035242958173
-0.41213488416279864,-0.41213488416279864
-0.3925601054332225,-0.3925601054332225
-0.3770634056056414,-0.3770634056056414
-0.3591198584368632,-0.3591198584368632
-0.34199192704848413,-0.34199192704848413
-0.324863995660105,-0.324863995660105
-0.322417148318908,-0.322417148318908
-0.324863995660105,-0.324863995660105
-0.33138892190329705,-0.33138892190329705
-0.324863995660105,-0.324863995660105
-0.3134453747345189,-0.3134453747345189
-0.29142374866374576,-0.29142374866374576
-0.26450842791057855,-0.26450842791057855
-0.22454325467102723,-0.22454325467102723
-0.195996702357062,-0.195996702357062
-0.19110300767466798,-0.19110300767466798
-0.21312463374544116,-0.21312463374544116
-0.22454325467102723,-0.22454325467102723
-0.21557148108663818,-0.21557148108663818
-0.19110300767466798,-0.19110300767466798
-0.17560630784708686,-0.17560630784708686
-0.15766276067830873,-0.15766276067830873
-0.1405348292899296,-0.1405348292899296
-0.12422251368194949,-0.12422251368194949
-0.11525074009756042,-0.11525074009756042
-0.09078226668559024,-0.09078226668559024
-0.06386694593242304,-0.06386694593242304
-0.057342019689230986,-0.057342019689230986
-0.08344172466199919,-0.08344172466199919
-0.09078226668559024,-0.09078226668559024
-0.06305133015202403,-0.06305133015202403
-0.023901772692871734,-0.023901772692871734
-0.019823693790876704,-0.019823693790876704
-0.023901772692871734,-0.023901772692871734
-0.005142609743694594,-0.005142609743694594
0.04297872129984676,0.04297872129984676
0.08131266297860006,0.08131266297860006
0.10985921529256527,0.10985921529256527
0.1286183782417424,0.1286183782417424
0.1432994622889245,0.1432994622889245
0.1416682307281265,0.1416682307281265
0.1432994622889245,0.1432994622889245
0.1547180832145106,0.1547180832145106
0.17673970928528376,0.17673970928528376
0.19060517755206688,0.19060517755206688
0.21017995628164302,0.21017995628164302
0.22893911923082017,0.22893911923082017
0.24362020327800227,0.24362020327800227
0.24932951374079532,0.24932951374079532
0.27706045027436155,0.27706045027436155
0.3268130128787009,0.3268130128787009
0.3781968070438383,0.3781968070438383
0.39858720155381344,0.39858720155381344
0.4116370540401975,0.4116370540401975
0.42550252230698066,0.42550252230698066
0.4450773010365568,0.4450773010365568
0.45404907462094585,0.45404907462094585
0.478517548032916,0.478517548032916
0.5144046423704723,0.5144046423704723
0.5453980420256346,0.5453980420256346
0.5339794211000485,0.5339794211000485
0.5119577950292753,0.5119577950292753
0.5176671054920683,0.5176671054920683
0.5788382890219937,0.5788382890219937
0.6457187830147123,0.6457187830147123
0.6791590300110716,0.6791590300110716
0.6636623301834904,0.6636623301834904
0.6457187830147123,0.6457187830147123
0.6497968619167073,0.6497968619167073
0.6791590300110716,0.6791590300110716
0.6938401140582536,0.6938401140582536
0.6791590300110716,0.6791590300110716
0.6294064674067321,0.6294064674067321
0.5788382890219937,0.5788382890219937
0.5527385840492256,0.5527385840492256
0.5788382890219937,0.5788382890219937
0.6236971569439391,0.6236971569439391
0.6457187830147123,0.6457187830147123
0.6155409991399491,0.6155409991399491
0.5788382890219937,0.5788382890219937
0.5657884365356097,0.5657884365356097
0.5788382890219937,0.5788382890219937
0.5731289785592008,0.5731289785592008
0.5453980420256346,0.5453980420256346
0.5046172530056843,0.5046172530056843
0.478517548032916,0.478517548032916
0.4564959219621429,0.4564959219621429
0.4450773010365568,0.4450773010365568
0.42794936964817765,0.42794936964817765
0.4116370540401975,0.4116370540401975
0.3887998121890254,0.3887998121890254
0.3781968070438383,0.3781968070438383
0.36433133877705515,0.36433133877705515
0.344756560047479,0.344756560047479
0.30642261836872575,0.30642261836872575
0.27706045027436155,0.27706045027436155
0.2558544399839874,0.2558544399839874
0.24362020327800227,0.24362020327800227
0.2322015823524162,0.2322015823524162
0.24362020327800227,0.24362020327800227
0.26564182934877545,0.26564182934877545
0.27706045027436155,0.27706045027436155
0.2485138979603963,0.2485138979603963
0.21017995628164302,0.21017995628164302
0.19142079333246587,0.19142079333246587
0.21017995628164302,0.21017995628164302
0.23057035079161817,0.23057035079161817
0.24362020327800227,0.24362020327800227
0.2517763610819923,0.2517763610819923
0.27706045027436155,0.27706045027436155
0.29174153432154365,0.29174153432154365
0.27706045027436155,0.27706045027436155
0.24117335593680525,0.24117335593680525
0.24362020327800227,0.24362020327800227
0.2901103027607456,0.2901103027607456
0.344756560047479,0.344756560047479
0.3537283336318681,0.3537283336318681
0.344756560047479,0.344756560047479
0.339862865365085,0.339862865365085
0.344756560047479,0.344756560047479
0.3268130128787009,0.3268130128787009
0.31050069727072077,0.31050069727072077
0.32436616553750386,0.32436616553750386
0.3781968070438383,0.3781968070438383
0.41571513294219253,0.41571513294219253
0.4116370540401975,0.4116370540401975
0.36922503345944924,0.36922503345944924
0.344756560047479,0.344756560047479
0.3488346389494741,0.3488346389494741
0.3781968070438383,0.3781968070438383
0.3969559699930154,0.3969559699930154
0.4116370540401975,0.4116370540401975
0.41408390138139456,0.41408390138139456
0.4116370540401975,0.4116370540401975
0.39043104374982335,0.39043104374982335
0.3781968070438383,0.3781968070438383
0.3928778910910204,0.3928778910910204
0.4450773010365568,0.4450773010365568
0.48259562693491104,0.48259562693491104
0.478517548032916,0.478517548032916
0.4344742958913697,0.4344742958913697
0.4116370540401975,0.4116370540401975
0.4214244434049856,0.4214244434049856
0.4450773010365568,0.4450773010365568
0.4361055274521677,0.4361055274521677
0.4116370540401975,0.4116370540401975
0.3953247384322174,0.3953247384322174
0.4116370540401975,0.4116370540401975
0.4303962169893747,0.4303962169893747
0.4450773010365568,0.4450773010365568
0.44344606947575876,0.44344606947575876
0.4450773010365568,0.4450773010365568
0.4516022272797488,0.4516022272797488
0.478517548032916,0.478517548032916
0.5021704056644872,0.5021704056644872
0.5119577950292753,0.5119577950292753
0.49401424786049714,0.49401424786049714
0.478517548032916,0.478517548032916
0.4630208482053349,0.4630208482053349
0.4450773010365568,0.4450773010365568
0.41326828560099554,0.41326828560099554
0.4116370540401975,0.4116370540401975
0.4589427693033399,0.4589427693033399
0.5453980420256346,0.5453980420256346
0.603306762433964,0.603306762433964
0.612278536018353,0.612278536018353
0.5845475994847869,0.5845475994847869
0.5788382890219937,0.5788382890219937
0.612278536018353,0.612278536018353
0.6791590300110716,0.6791590300110716
0.72972720839581,0.72972720839581
0.74603952400379,0.74603952400379
0.7264647452742139,0.7264647452742139
0.7125992770074308,0.7125992770074308
0.7183085874702239,0.7183085874702239
0.74603952400379,0.74603952400379
0.7599049922705732,0.7599049922705732
0.74603952400379,0.74603952400379
0.6979181929602487,0.6979181929602487
0.6457187830147123,0.6457187830147123
0.602491146653565,0.602491146653565
0.5788382890219937,0.5788382890219937
0.5413199631236395,0.5413199631236395
0.478517548032916,0.478517548032916
0.3969559699930154,0.3969559699930154
0.344756560047479,0.344756560047479
0.3194724708551098,0.3194724708551098
0.31050069727072077,0.31050069727072077
0.30723823414912477,0.30723823414912477
0.344756560047479,0.344756560047479
0.3969559699930154,0.3969559699930154
0.4116370540401975,0.4116370540401975
0.35780641253386314,0.35780641253386314
0.31050069727072077,0.31050069727072077
0.3129475446119178,0.3129475446119178
0.344756560047479,0.344756560047479
0.345572175827878,0.345572175827878
0.344756560047479,0.344756560047479
0.35862202831426215,0.35862202831426215
0.3781968070438383,0.3781968070438383
0.339862865365085,0.339862865365085
0.27706045027436155,0.27706045027436155
0.2322015823524162,0.2322015823524162
0.24362020327800227,0.24362020327800227
0.2607481346663814,0.2607481346663814
0.27706045027436155,0.27706045027436155
0.3031601552471297,0.3031601552471297
0.3781968070438383,0.3781968070438383
0.43121183276977365,0.43121183276977365
0.4116370540401975,0.4116370540401975
0.344756560047479,0.344756560047479
0.3781968070438383,0.3781968070438383
0.5405043473432405,0.5405043473432405
0.74603952400379,0.74603952400379
0.9238437641307734,0.9238437641307734
1.1815783507368594,1.1815783507368594
1.6220108721523225,1.6220108721523225
2.219041623404395,2.219041623404395
2.8584843952372156,2.8584843952372156
3.4914022408268446,3.4914022408268446
4.056623976643356,4.056623976643356
4.429360388285701,4.429360388285701
4.515000045227597,4.515000045227597
4.429360388285701,4.429360388285701
4.3714516678773725,4.3714516678773725
4.429360388285701,4.429360388285701
4.493794034937223,4.493794034937223
4.429360388285701,4.429360388285701
4.157760333412833,4.157760333412833
3.692859338585399,3.692859338585399
3.0713601139213567,3.0713601139213567
2.353618227170231,2.353618227170231
1.5755207726695792,1.5755207726695792
0.8129200179965085,0.8129200179965085
0.17673970928528376,0.17673970928528376
-0.22454325467102723,-0.22454325467102723
-0.4325252786727738,-0.4325252786727738
-0.5597613404150188,-0.5597613404150188
-0.6527415393805055,-0.6527415393805055
-0.6266418344077372,-0.6266418344077372
-0.4863559201791082,-0.4863559201791082
-0.3591198584368632,-0.3591198584368632
-0.3697228635820503,-0.3697228635820503
-0.42600035242958173,-0.42600035242958173
-0.4113192683823996,-0.4113192683823996
-0.324863995660105,-0.324863995660105
-0.3101829116129229,-0.3101829116129229
-0.3925601054332225,-0.3925601054332225
-0.5067463146890834,-0.5067463146890834
-0.5597613404150188,-0.5597613404150188
-0.5695487297798069,-0.5695487297798069
-0.5597613404150188,-0.5597613404150188
-0.5540520299522257,-0.5540520299522257
-0.5263210934186595,-0.5263210934186595
-0.47983099393591616,-0.47983099393591616
-0.42600035242958173,-0.42600035242958173
-0.4056099579196066,-0.4056099579196066
-0.42600035242958173,-0.42600035242958173
-0.4700436045711281,-0.4700436045711281
-0.49288084642230023,-0.49288084642230023
-0.4765685308143201,-0.4765685308143201
-0.42600035242958173,-0.42600035242958173
-0.3786946371664394,-0.3786946371664394
-0.3591198584368632,-0.3591198584368632
-0.3738009424840454,-0.3738009424840454
-0.3925601054332225,-0.3925601054332225
-0.39990064745681353,-0.39990064745681353
-0.3925601054332225,-0.3925601054332225
-0.3909288738724245,-0.3909288738724245
-0.3925601054332225,-0.3925601054332225
-0.39745380011561654,-0.39745380011561654
-0.3925601054332225,-0.3925601054332225
-0.37135409514284834,-0.37135409514284834
-0.324863995660105,-0.324863995660105
-0.27918951195776065,-0.27918951195776065
-0.2579835016673865,-0.2579835016673865
-0.27511143305576563,-0.27511143305576563
-0.29142374866374576,-0.29142374866374576
-0.2848988224205537,-0.2848988224205537
-0.2579835016673865,-0.2579835016673865
-0.24982734386339642,-0.24982734386339642
-0.2579835016673865,-0.2579835016673865
-0.2694021225929726,-0.2694021225929726
-0.2579835016673865,-0.2579835016673865
-0.24003995449860835,-0.24003995449860835
-0.22454325467102723,-0.22454325467102723
-0.22617448623182526,-0.22617448623182526
-0.22454325467102723,-0.22454325467102723
-0.21638709686703717,-0.21638709686703717
-0.19110300767466798,-0.19110300767466798
-0.16174083958030377,-0.16174083958030377
-0.12422251368194949,-0.12422251368194949
-0.09812280870918129,-0.09812280870918129
-0.09078226668559024,-0.09078226668559024
-0.10954142963476737,-0.10954142963476737
-0.12422251368194949,-0.12422251368194949
-0.12014443477995446,-0.12014443477995446
-0.09078226668559024,-0.09078226668559024
-0.058157635469629994,-0.058157635469629994
-0.023901772692871734,-0.023901772692871734
-0.002695762402497576,-0.002695762402497576
0.009538474303487516,0.009538474303487516
0.014432168985881552,0.014432168985881552
0.04297872129984676,0.04297872129984676
0.08131266297860006,0.08131266297860006
0.10985921529256527,0.10985921529256527
0.11638414153575731,0.11638414153575731
0.1432994622889245,0.1432994622889245
0.1946832564540619,0.1946832564540619
0.24362020327800227,0.24362020327800227
0.2591169031055834,0.2591169031055834
0.27706045027436155,0.27706045027436155
0.32028808663550884,0.32028808663550884
0.3781968070438383,0.3781968070438383
0.4034808962362075,0.4034808962362075
0.4116370540401975,0.4116370540401975
0.43121183276977365,0.43121183276977365
0.478517548032916,0.478517548032916
0.5103265634684773,0.5103265634684773
0.5119577950292753,0.5119577950292753
0.49809232676249215,0.49809232676249215
0.5119577950292753,0.5119577950292753
0.5372418842216444,0.5372418842216444
0.5453980420256346,0.5453980420256346
0.5209295686136644,0.5209295686136644
0.5119577950292753,0.5119577950292753
0.5282701106372554,0.5282701106372554
0.5453980420256346,0.5453980420256346
0.5266388790764573,0.5266388790764573
0.5119577950292753,0.5119577950292753
0.5405043473432405,0.5405043473432405
0.612278536018353,0.612278536018353
0.6579530197206974,0.6579530197206974
0.6457187830147123,0.6457187830147123
0.5812851363631908,0.5812851363631908
0.5119577950292753,0.5119577950292753
0.4605740008641379,0.4605740008641379
0.4450773010365568,0.4450773010365568
0.4361055274521677,0.4361055274521677
0.4116370540401975,0.4116370540401975
0.3488346389494741,0.3488346389494741
0.27706045027436155,0.27706045027436155
0.21752049830523407,0.21752049830523407
0.17673970928528376,0.17673970928528376
0.12127783621815136,0.12127783621815136
0.04297872129984676,0.04297872129984676
-0.0459233987636449,-0.0459233987636449
-0.09078226668559024,-0.09078226668559024
-0.07773241419920614,-0.07773241419920614
-0.023901772692871734,-0.023901772692871734
0.0021979322798964607,0.0021979322798964607
-0.023901772692871734,-0.023901772692871734
-0.08833541934439322,-0.08833541934439322
-0.12422251368194949,-0.12422251368194949
-0.13156305570554055,-0.13156305570554055
-0.12422251368194949,-0.12422251368194949
-0.14461290819192463,-0.14461290819192463
-0.15766276067830873,-0.15766276067830873
-0.16337207114110178,-0.16337207114110178
-0.15766276067830873,-0.15766276067830873
-0.1772375394078849,-0.1772375394078849
-0.19110300767466798,-0.19110300767466798
-0.19844354969825903,-0.19844354969825903
-0.19110300767466798,-0.19110300767466798
-0.19110300767466798,-0.19110300767466798
-0.15766276067830873,-0.15766276067830873
-0.06386694593242304,-0.06386694593242304
0.10985921529256527,0.10985921529256527
0.345572175827878,0.345572175827878
0.6457187830147123,0.6457187830147123
1.015192731535462,1.015192731535462
1.4825405737040926,1.4825405737040926
2.073862014493372,2.073862014493372
2.7883414381229015,2.7883414381229015
3.51179263533682,3.51179263533682
4.060702055545351,4.060702055545351
4.29967747920226,4.29967747920226
4.295599400300264,4.295599400300264
4.249109300817521,4.249109300817521
4.295599400300264,4.295599400300264
4.324961568394629,4.324961568394629
4.12758254953807,4.12758254953807
3.6251632288122817,3.6251632288122817
2.9563582888850966,2.9563582888850966
2.2630848755459416,2.2630848755459416
1.549421067696811,1.549421067696811
0.741961445101795,0.741961445101795
-0.09078226668559024,-0.09078226668559024
-0.7514310488087852,-0.7514310488087852
-1.0956209081371657,-1.0956209081371657
-1.2040978069302335,-1.2040978069302335
-1.2293818961226028,-1.2293818961226028
-1.2089915016126276,-1.2089915016126276
-1.0621806611408064,-1.0621806611408064
-0.8435956319938729,-0.8435956319938729
-0.726962575396815,-0.726962575396815
-0.7930274536091345,-0.7930274536091345
-0.860723563382252,-0.860723563382252
-0.8011836114131246,-0.8011836114131246
-0.6935223284004558,-0.6935223284004558
-0.7163595702516279,-0.7163595702516279
-0.8272833163858928,-0.8272833163858928
-0.8925325788178132,-0.8925325788178132
-0.860723563382252,-0.860723563382252
-0.8313613952878878,-0.8313613952878878
-0.8272833163858928,-0.8272833163858928
-0.8232052374838977,-0.8232052374838977
-0.7938430693895335,-0.7938430693895335
-0.7832400642443464,-0.7832400642443464
-0.7938430693895335,-0.7938430693895335
-0.8044460745347206,-0.8044460745347206
-0.7938430693895335,-0.7938430693895335
-0.7767151380011543,-0.7767151380011543
-0.7604028223931742,-0.7604028223931742
-0.7473529699067901,-0.7473529699067901
-0.726962575396815,-0.726962575396815
-0.7082034124476378,-0.7082034124476378
-0.6935223284004558,-0.6935223284004558
-0.6935223284004558,-0.6935223284004558
-0.6935223284004558,-0.6935223284004558
-0.6853661705964657,-0.6853661705964657
-0.6600820814040965,-0.6600820814040965
-0.6380604553333233,-0.6380604553333233
-0.6266418344077372,-0.6266418344077372
-0.6282730659685353,-0.6282730659685353
-0.6266418344077372,-0.6266418344077372
-0.6250106028469392,-0.6250106028469392
-0.6266418344077372,-0.6266418344077372
-0.6339823764313283,-0.6339823764313283
-0.6266418344077372,-0.6266418344077372
-0.6078826714585601,-0.6078826714585601
-0.593201587411378,-0.593201587411378
-0.596464050532974,-0.596464050532974
-0.593201587411378,-0.593201587411378
-0.5768892718033979,-0.5768892718033979
-0.5597613404150188,-0.5597613404150188
-0.5613925719758167,-0.5613925719758167
-0.5597613404150188,-0.5597613404150188
-0.5458958721482357,-0.5458958721482357
-0.5263210934186595,-0.5263210934186595
-0.5149024724930734,-0.5149024724930734
-0.49288084642230023,-0.49288084642230023
-0.46678114144953203,-0.46678114144953203
-0.459440599425941,-0.459440599425941
-0.48309345705751217,-0.48309345705751217
-0.49288084642230023,-0.49288084642230023
-0.4749372992535221,-0.4749372992535221
-0.459440599425941,-0.459440599425941
-0.47901537815551715,-0.47901537815551715
-0.49288084642230023,-0.49288084642230023
-0.4692279887907291,-0.4692279887907291
-0.42600035242958173,-0.42600035242958173
-0.41539734728439465,-0.41539734728439465
-0.42600035242958173,-0.42600035242958173
-0.42355350508838474,-0.42355350508838474
-0.3925601054332225,-0.3925601054332225
-0.35830424265646427,-0.35830424265646427
-0.324863995660105,-0.324863995660105
-0.29305498022454374,-0.29305498022454374
-0.2579835016673865,-0.2579835016673865
-0.23759310715741133,-0.23759310715741133
-0.22454325467102723,-0.22454325467102723
-0.21475586530623916,-0.21475586530623916
-0.19110300767466798,-0.19110300767466798
-0.16174083958030377,-0.16174083958030377
-0.12422251368194949,-0.12422251368194949
-0.0989384244895803,-0.0989384244895803
-0.09078226668559024,-0.09078226668559024
-0.0989384244895803,-0.0989384244895803
-0.09078226668559024,-0.09078226668559024
-0.06142009859122602,-0.06142009859122602
-0.023901772692871734,-0.023901772692871734
-0.01248315176728565,-0.01248315176728565
-0.023901772692871734,-0.023901772692871734
-0.04673901454404391,-0.04673901454404391
-0.057342019689230986,-0.057342019689230986
-0.06142009859122602,-0.06142009859122602
-0.057342019689230986,-0.057342019689230986
-0.057342019689230986,-0.057342019689230986
-0.057342019689230986,-0.057342019689230986
-0.06223571437162502,-0.06223571437162502
-0.057342019689230986,-0.057342019689230986
-0.05407955656763496,-0.05407955656763496
-0.057342019689230986,-0.057342019689230986
-0.07691679841880714,-0.07691679841880714
-0.09078226668559024,-0.09078226668559024
-0.09649157714838327,-0.09649157714838327
-0.09078226668559024,-0.09078226668559024
-0.09241349824638825,-0.09241349824638825
-0.09078226668559024,-0.09078226668559024
-0.09078226668559024,-0.09078226668559024
-0.09078226668559024,-0.09078226668559024
-0.09812280870918129,-0.09812280870918129
-0.09078226668559024,-0.09078226668559024
-0.07446995107761012,-0.07446995107761012
-0.057342019689230986,-0.057342019689230986
-0.058157635469629994,-0.058157635469629994
-0.057342019689230986,-0.057342019689230986
-0.05652640390883198,-0.05652640390883198
-0.057342019689230986,-0.057342019689230986
-0.06712940905401905,-0.06712940905401905
-0.057342019689230986,-0.057342019689230986
-0.03450477783805882,-0.03450477783805882
-0.023901772692871734,-0.023901772692871734
-0.0459233987636449,-0.0459233987636449
-0.057342019689230986,-0.057342019689230986
-0.042660935642048876,-0.042660935642048876
-0.023901772692871734,-0.023901772692871734
-0.03858285674005384,-0.03858285674005384
-0.057342019689230986,-0.057342019689230986
-0.051632709226437944,-0.051632709226437944
-0.023901772692871734,-0.023901772692871734
-0.01656123066928068,-0.01656123066928068
-0.023901772692871734,-0.023901772692871734
-0.03124231471646279,-0.03124231471646279
-0.023901772692871734,-0.023901772692871734
-0.02308615691247273,-0.02308615691247273
-0.023901772692871734,-0.023901772692871734
-0.02716423581446776,-0.02716423581446776
-0.023901772692871734,-0.023901772692871734
-0.026348620034068754,-0.026348620034068754
-0.023901772692871734,-0.023901772692871734
-0.02308615691247273,-0.02308615691247273
-0.023901772692871734,-0.023901772692871734
-0.03205793049686179,-0.03205793049686179
-0.023901772692871734,-0.023901772692871734
-0.0067738413044926065,-0.0067738413044926065
0.009538474303487516,0.009538474303487516
0.006276011181891491,0.006276011181891491
0.009538474303487516,0.009538474303487516
0.02340394257027062,0.02340394257027062
0.04297872129984676,0.04297872129984676
0.04460995286064478,0.04460995286064478
0.04297872129984676,0.04297872129984676
0.041347489739048754,0.041347489739048754
0.04297872129984676,0.04297872129984676
0.03645379505665472,0.03645379505665472
0.04297872129984676,0.04297872129984676
0.0609222684686249,0.0609222684686249
0.07641896829620602,0.07641896829620602
0.0625535000294229,0.0625535000294229
0.04297872129984676,0.04297872129984676
0.034822563495856704,0.034822563495856704
0.04297872129984676,0.04297872129984676
0.04379433708024577,0.04379433708024577
0.04297872129984676,0.04297872129984676
0.040531873958649746,0.040531873958649746
0.04297872129984676,0.04297872129984676
0.039716258178250745,0.039716258178250745
0.04297872129984676,0.04297872129984676
0.04460995286064478,0.04460995286064478
0.04297872129984676,0.04297872129984676
0.033191331935058695,0.033191331935058695
0.04297872129984676,0.04297872129984676
0.06336911580982192,0.06336911580982192
0.07641896829620602,0.07641896829620602
0.05847542112742788,0.05847542112742788
0.04297872129984676,0.04297872129984676
0.05031926332343782,0.05031926332343782
0.07641896829620602,0.07641896829620602
0.08375951031979707,0.08375951031979707
0.07641896829620602,0.07641896829620602
0.06744719471181695,0.06744719471181695
0.07641896829620602,0.07641896829620602
0.08212827875899906,0.08212827875899906
0.07641896829620602,0.07641896829620602
0.05602857378623086,0.05602857378623086
0.04297872129984676,0.04297872129984676
0.03726941083705372,0.03726941083705372
0.04297872129984676,0.04297872129984676
0.04297872129984676,0.04297872129984676
0.04297872129984676,0.04297872129984676
0.039716258178250745,0.039716258178250745
0.04297872129984676,0.04297872129984676
0.041347489739048754,0.041347489739048754
0.04297872129984676,0.04297872129984676
0.040531873958649746,0.040531873958649746
0.04297872129984676,0.04297872129984676
0.041347489739048754,0.041347489739048754
0.04297872129984676,0.04297872129984676
0.040531873958649746,0.040531873958649746
0.04297872129984676,0.04297872129984676
0.041347489739048754,0.041347489739048754
0.04297872129984676,0.04297872129984676
0.041347489739048754,0.041347489739048754
0.04297872129984676,0.04297872129984676
0.040531873958649746,0.040531873958649746
0.04297872129984676,0.04297872129984676
0.04216310551944776,0.04216310551944776
0.04297872129984676,0.04297872129984676
0.039716258178250745,0.039716258178250745
0.04297872129984676,0.04297872129984676
0.04379433708024577,0.04379433708024577
0.04297872129984676,0.04297872129984676
0.03726941083705372,0.03726941083705372
0.04297872129984676,0.04297872129984676
0.047872415982240804,0.047872415982240804
0.04297872129984676,0.04297872129984676
0.01932586366827559,0.01932586366827559
0.009538474303487516,0.009538474303487516
0.011169705864285527,0.011169705864285527
0.009538474303487516,0.009538474303487516
-0.013298767547684656,-0.013298767547684656
-0.023901772692871734,-0.023901772692871734
-0.011667535986886643,-0.011667535986886643
0.009538474303487516,0.009538474303487516
0.00872285852308851,0.00872285852308851
0.009538474303487516,0.009538474303487516
0.024219558350669627,0.024219558350669627
0.04297872129984676,0.04297872129984676
0.03156010037426068,0.03156010037426068
0.009538474303487516,0.009538474303487516
-0.002695762402497576,-0.002695762402497576
0.009538474303487516,0.009538474303487516
0.024219558350669627,0.024219558350669627
0.04297872129984676,0.04297872129984676
0.05113487910383683,0.05113487910383683
0.04297872129984676,0.04297872129984676
0.006276011181891491,0.006276011181891491
-0.023901772692871734,-0.023901772692871734
-0.024717388473270742,-0.024717388473270742
0.009538474303487516,0.009538474303487516
0.03808502661745273,0.03808502661745273
0.04297872129984676,0.04297872129984676
0.02340394257027062,0.02340394257027062
0.009538474303487516,0.009538474303487516
-0.005142609743694594,-0.005142609743694594
-0.023901772692871734,-0.023901772692871734
-0.04184531986164987,-0.04184531986164987
-0.023901772692871734,-0.023901772692871734
0.007907242742689504,0.007907242742689504
0.009538474303487516,0.009538474303487516
-0.03450477783805882,-0.03450477783805882
-0.057342019689230986,-0.057342019689230986
-0.03858285674005384,-0.03858285674005384
-0.023901772692871734,-0.023901772692871734
-0.06876064061481707,-0.06876064061481707
-0.12422251368194949,-0.12422251368194949
-0.14135044507032862,-0.14135044507032862
-0.12422251368194949,-0.12422251368194949
-0.12422251368194949,-0.12422251368194949
-0.12422251368194949,-0.12422251368194949
-0.12096005056035346,-0.12096005056035346
-0.12422251368194949,-0.12422251368194949
-0.16745015004309682,-0.16745015004309682
-0.19110300767466798,-0.19110300767466798
-0.1641876869215008,-0.1641876869215008
-0.09078226668559024,-0.09078226668559024
-0.044292167202846885,-0.044292167202846885
-0.023901772692871734,-0.023901772692871734
-0.024717388473270742,-0.024717388473270742
-0.023901772692871734,-0.023901772692871734
-0.036136009398856826,-0.036136009398856826
-0.023901772692871734,-0.023901772692871734
0.02911325303306366,0.02911325303306366
0.1432994622889245,0.1432994622889245
0.3031601552471297,0.3031601552471297
0.5119577950292753,0.5119577950292753
0.7647986869529672,0.7647986869529672
1.0812576097477815,1.0812576097477815
1.4955904261904767,1.4955904261904767
2.051840388422599,2.051840388422599
2.7075954758633998,2.7075954758633998
3.3242010058450484,3.3242010058450484
3.7336401276053492,3.7336401276053492
3.893500820563555,3.893500820563555
3.9065506730499386,3.9065506730499386
3.926941067559914,3.926941067559914
3.9766936301642533,3.9766936301642533
3.960381314556273,3.960381314556273
3.7833926902096886,3.7833926902096886
3.4579619938304855,3.4579619938304855
2.990614151661855,2.990614151661855
2.353618227170231,2.353618227170231
1.5706270779871851,1.5706270779871851
0.7794797710001493,0.7794797710001493
0.06663157893141794,0.06663157893141794
-0.5597613404150188,-0.5597613404150188
-1.0417902666308314,-1.0417902666308314
-1.2293818961226028,-1.2293818961226028
-1.1657638652514803,-1.1657638652514803
-1.0956209081371657,-1.0956209081371657
-1.1470047023023031,-1.1470047023023031
-1.129061155133525,-1.129061155133525
-0.9300509047161676,-0.9300509047161676
-0.726962575396815,-0.726962575396815
-0.727778191177214,-0.727778191177214
-0.7938430693895335,-0.7938430693895335
-0.7416436594439971,-0.7416436594439971
-0.6266418344077372,-0.6266418344077372
-0.6470322289177124,-0.6470322289177124
-0.7604028223931742,-0.7604028223931742
-0.8215740059230997,-0.8215740059230997
-0.7938430693895335,-0.7938430693895335
-0.7848712958051445,-0.7848712958051445
-0.7938430693895335,-0.7938430693895335
-0.7742682906599574,-0.7742682906599574
-0.726962575396815,-0.726962575396815
-0.7155439544712289,-0.7155439544712289
-0.726962575396815,-0.726962575396815
-0.720437649153623,-0.720437649153623
-0.6935223284004558,-0.6935223284004558
-0.6861817863768647,-0.6861817863768647
-0.6935223284004558,-0.6935223284004558
-0.6886286337180617,-0.6886286337180617
-0.6600820814040965,-0.6600820814040965
-0.6364292237725253,-0.6364292237725253
-0.6266418344077372,-0.6266418344077372
-0.6290886817489343,-0.6290886817489343
-0.6266418344077372,-0.6266418344077372
-0.6250106028469392,-0.6250106028469392
-0.6266418344077372,-0.6266418344077372
-0.6331667606509293,-0.6331667606509293
-0.6266418344077372,-0.6266418344077372
-0.6103295187997572,-0.6103295187997572
-0.593201587411378,-0.593201587411378
-0.592385971630979,-0.592385971630979
-0.593201587411378,-0.593201587411378
-0.5842298138269889,-0.5842298138269889
-0.5597613404150188,-0.5597613404150188
-0.5393709459050436,-0.5393709459050436
-0.5263210934186595,-0.5263210934186595
-0.5246898618578615,-0.5246898618578615
-0.5263210934186595,-0.5263210934186595
-0.5320304038814525,-0.5320304038814525
-0.5263210934186595,-0.5263210934186595
-0.5124556251518764,-0.5124556251518764
-0.49288084642230023,-0.49288084642230023
-0.47901537815551715,-0.47901537815551715
-0.459440599425941,-0.459440599425941
-0.4398658206963649,-0.4398658206963649
-0.42600035242958173,-0.42600035242958173
-0.42763158399037976,-0.42763158399037976
-0.42600035242958173,-0.42600035242958173
-0.4137661157235967,-0.4137661157235967
-0.3925601054332225,-0.3925601054332225
-0.3770634056056414,-0.3770634056056414
-0.3591198584368632,-0.3591198584368632
-0.34199192704848413,-0.34199192704848413
-0.324863995660105,-0.324863995660105
-0.31589222207571593,-0.31589222207571593
-0.29142374866374576,-0.29142374866374576
-0.2579835016673865,-0.2579835016673865
-0.22454325467102723,-0.22454325467102723
-0.21067778640424414,-0.21067778640424414
-0.19110300767466798,-0.19110300767466798
-0.16092522379990476,-0.16092522379990476
-0.12422251368194949,-0.12422251368194949
-0.10709458229357036,-0.10709458229357036
-0.09078226668559024,-0.09078226668559024
-0.06468256171282204,-0.06468256171282204
-0.023901772692871734,-0.023901772692871734
0.010354090083886523,0.010354090083886523
0.04297872129984676,0.04297872129984676
0.073972120955009,0.073972120955009
0.10985921529256527,0.10985921529256527
0.1416682307281265,0.1416682307281265
0.17673970928528376,0.17673970928528376
0.20202379847765295,0.20202379847765295
0.21017995628164302,0.21017995628164302
0.20120818269725396,0.20120818269725396
0.21017995628164302,0.21017995628164302
0.24198897171720427,0.24198897171720427
0.27706045027436155,0.27706045027436155
0.28358537651755356,0.28358537651755356
0.27706045027436155,0.27706045027436155
0.27216675559196746,0.27216675559196746
0.27706045027436155,0.27706045027436155
0.2754292187135635,0.2754292187135635
0.27706045027436155,0.27706045027436155
0.2786916818351595,0.2786916818351595
0.27706045027436155,0.27706045027436155
0.2599325188859824,0.2599325188859824
0.24362020327800227,0.24362020327800227
0.22812350345042115,0.22812350345042115
0.21017995628164302,0.21017995628164302
0.18408025130887481,0.18408025130887481
0.17673970928528376,0.17673970928528376
0.1824490197480768,0.1824490197480768
0.17673970928528376,0.17673970928528376
0.1400369991673285,0.1400369991673285
0.10985921529256527,0.10985921529256527
0.10496552061017123,0.10496552061017123
0.10985921529256527,0.10985921529256527
0.08294389453939807,0.08294389453939807
0.04297872129984676,0.04297872129984676
0.014432168985881552,0.014432168985881552
0.009538474303487516,0.009538474303487516
-0.0035113781828965823,-0.0035113781828965823
-0.023901772692871734,-0.023901772692871734
-0.04755463032444291,-0.04755463032444291
-0.057342019689230986,-0.057342019689230986
-0.0720231037364131,-0.0720231037364131
-0.09078226668559024,-0.09078226668559024
-0.11606635587795942,-0.11606635587795942
-0.12422251368194949,-0.12422251368194949
-0.1250381294623485,-0.1250381294623485
-0.12422251368194949,-0.12422251368194949
-0.1397192135095306,-0.1397192135095306
-0.15766276067830873,-0.15766276067830873
-0.1788687709686829,-0.1788687709686829
-0.19110300767466798,-0.19110300767466798
-0.20089039703945605,-0.20089039703945605
-0.19110300767466798,-0.19110300767466798
-0.17397507628628886,-0.17397507628628886
-0.15766276067830873,-0.15766276067830873
-0.16010960801950574,-0.16010960801950574
-0.15766276067830873,-0.15766276067830873
-0.14542852397232364,-0.14542852397232364
-0.12422251368194949,-0.12422251368194949
-0.12096005056035346,-0.12096005056035346
-0.12422251368194949,-0.12422251368194949
-0.12993182414474252,-0.12993182414474252
-0.12422251368194949,-0.12422251368194949
-0.11606635587795942,-0.11606635587795942
-0.09078226668559024,-0.09078226668559024
-0.057342019689230986,-0.057342019689230986
-0.023901772692871734,-0.023901772692871734
-0.015745614888881675,-0.015745614888881675
-0.023901772692871734,-0.023901772692871734
-0.03450477783805882,-0.03450477783805882
-0.023901772692871734,-0.023901772692871734
-0.0059582255240936,-0.0059582255240936
0.009538474303487516,0.009538474303487516
0.00872285852308851,0.00872285852308851
0.009538474303487516,0.009538474303487516
0.018510247887876582,0.018510247887876582
0.04297872129984676,0.04297872129984676
0.06336911580982192,0.06336911580982192
0.07641896829620602,0.07641896829620602
0.06581596315101894,0.06581596315101894
0.04297872129984676,0.04297872129984676
0.025035174131068632,0.025035174131068632
0.04297872129984676,0.04297872129984676
0.07152527361381197,0.07152527361381197
0.07641896829620602,0.07641896829620602
0.047872415982240804,0.047872415982240804
0.04297872129984676,0.04297872129984676
0.075603352515807,0.075603352515807
0.10985921529256527,0.10985921529256527
0.09844059436697918,0.09844059436697918
0.07641896829620602,0.07641896829620602
0.08049704719820104,0.08049704719820104
0.10985921529256527,0.10985921529256527
0.11883098887695434,0.11883098887695434
0.10985921529256527,0.10985921529256527
0.10170305748857521,0.10170305748857521
0.10985921529256527,0.10985921529256527
0.11149044685336328,0.11149044685336328
0.10985921529256527,0.10985921529256527
0.10496552061017123,0.10496552061017123
0.10985921529256527,0.10985921529256527
0.10985921529256527,0.10985921529256527
0.10985921529256527,0.10985921529256527
0.10659675217096924,0.10659675217096924
0.10985921529256527,0.10985921529256527
0.10822798373176726,0.10822798373176726
0.10985921529256527,0.10985921529256527
0.11638414153575731,0.11638414153575731
0.1432994622889245,0.1432994622889245
0.1685835514812937,0.1685835514812937
0.17673970928528376,0.17673970928528376
0.1563493147753086,0.1563493147753086
0.1432994622889245,0.1432994622889245
0.15145562009291458,0.15145562009291458
0.17673970928528376,0.17673970928528376
0.19142079333246587,0.19142079333246587
0.21017995628164302,0.21017995628164302
0.2468826663995983,0.2468826663995983
0.31050069727072077,0.31050069727072077
0.3700406492398482,0.3700406492398482
0.4116370540401975,0.4116370540401975
0.42794936964817765,0.42794936964817765
0.4450773010365568,0.4450773010365568
0.4605740008641379,0.4605740008641379
0.478517548032916,0.478517548032916
0.4817800111545121,0.4817800111545121
0.478517548032916,0.478517548032916
0.4622052324249359,0.4622052324249359
0.4450773010365568,0.4450773010365568
0.4222400591853846,0.4222400591853846
0.4116370540401975,0.4116370540401975
0.4002184331146114,0.4002184331146114
0.3781968070438383,0.3781968070438383
0.32028808663550884,0.32028808663550884
0.24362020327800227,0.24362020327800227
0.1653210883596977,0.1653210883596977
0.10985921529256527,0.10985921529256527
0.06826281049221596,0.06826281049221596
0.04297872129984676,0.04297872129984676
0.028297637252664657,0.028297637252664657
0.04297872129984676,0.04297872129984676
0.075603352515807,0.075603352515807
0.10985921529256527,0.10985921529256527
0.10741236795136824,0.10741236795136824
0.07641896829620602,0.07641896829620602
0.039716258178250745,0.039716258178250745
0.04297872129984676,0.04297872129984676
0.074787736735408,0.074787736735408
0.10985921529256527,0.10985921529256527
0.10496552061017123,0.10496552061017123
0.07641896829620602,0.07641896829620602
0.04460995286064478,0.04460995286064478
0.04297872129984676,0.04297872129984676
0.034822563495856704,0.034822563495856704
0.009538474303487516,0.009538474303487516
-0.03205793049686179,-0.03205793049686179
-0.023901772692871734,-0.023901772692871734
0.03237571615465969,0.03237571615465969
0.10985921529256527,0.10985921529256527
0.1416682307281265,0.1416682307281265
0.1432994622889245,0.1432994622889245
0.13188084136333844,0.13188084136333844
0.1432994622889245,0.1432994622889245
0.1800021724068798,0.1800021724068798
0.27706045027436155,0.27706045027436155
0.4369211432325667,0.4369211432325667
0.6457187830147123,0.6457187830147123
0.8814317435500251,0.8814317435500251
1.1815783507368594,1.1815783507368594
1.5975423987403523,1.5975423987403523
2.1521611294116765,2.1521611294116765
2.7850789750013054,2.7850789750013054
3.391081499837767,3.391081499837767
3.8453794895200133,3.8453794895200133
4.0941423025417105,4.0941423025417105
4.1920161961895905,4.1920161961895905
4.262159153303905,4.262159153303905
4.325777184175028,4.325777184175028
4.295599400300264,4.295599400300264
4.084354913176922,4.084354913176922
3.7262995855817582,3.7262995855817582
3.2467175067071428,3.2467175067071428
2.6211402031411053,2.6211402031411053
1.8479364433228473,1.8479364433228473
1.0478173627514222,1.0478173627514222
0.3121319288315188,0.3121319288315188
-0.324863995660105,-0.324863995660105
-0.7946586851699325,-0.7946586851699325
-0.9610443043713297,-0.9610443043713297
-0.8900857314766162,-0.8900857314766162
-0.8272833163858928,-0.8272833163858928
-0.8860076525746212,-0.8860076525746212
-0.860723563382252,-0.860723563382252
-0.6437697657961163,-0.6437697657961163
-0.42600035242958173,-0.42600035242958173
-0.4227378893079857,-0.4227378893079857
-0.49288084642230023,-0.49288084642230023
-0.4439438995983599,-0.4439438995983599
-0.324863995660105,-0.324863995660105
-0.34199192704848413,-0.34199192704848413
-0.459440599425941,-0.459440599425941
-0.5255054776382605,-0.5255054776382605
-0.49288084642230023,-0.49288084642230023
-0.47575291503392114,-0.47575291503392114
-0.49288084642230023,-0.49288084642230023
-0.4961433095438963,-0.4961433095438963
-0.459440599425941,-0.459440599425941
-0.4325252786727738,-0.4325252786727738
-0.42600035242958173,-0.42600035242958173
-0.42763158399037976,-0.42763158399037976
-0.42600035242958173,-0.42600035242958173
-0.43089404711197576,-0.43089404711197576
-0.42600035242958173,-0.42600035242958173
-0.40968803682160165,-0.40968803682160165
-0.3925601054332225,-0.3925601054332225
-0.3925601054332225,-0.3925601054332225
-0.3925601054332225,-0.3925601054332225
-0.3819571002880354,-0.3819571002880354
-0.3591198584368632,-0.3591198584368632
-0.34199192704848413,-0.34199192704848413
-0.324863995660105,-0.324863995660105
-0.31997030097771095,-0.31997030097771095
-0.324863995660105,-0.324863995660105
-0.3370982323660901,-0.3370982323660901
-0.324863995660105,-0.324863995660105
-0.3003955222481348,-0.3003955222481348
-0.29142374866374576,-0.29142374866374576
-0.3150766062953169,-0.3150766062953169
-0.324863995660105,-0.324863995660105
-0.2995799064677358,-0.2995799064677358
-0.2579835016673865,-0.2579835016673865
-0.24982734386339642,-0.24982734386339642
-0.2579835016673865,-0.2579835016673865
-0.2555366543261895,-0.2555366543261895
-0.22454325467102723,-0.22454325467102723
-0.20089039703945605,-0.20089039703945605
-0.19110300767466798,-0.19110300767466798
-0.195996702357062,-0.195996702357062
-0.19110300767466798,-0.19110300767466798
-0.1805000025294809,-0.1805000025294809
-0.15766276067830873,-0.15766276067830873
-0.1397192135095306,-0.1397192135095306
-0.12422251368194949,-0.12422251368194949
-0.12422251368194949,-0.12422251368194949
-0.12422251368194949,-0.12422251368194949
-0.12830059258394452,-0.12830059258394452
-0.12422251368194949,-0.12422251368194949
-0.11769758743875744,-0.11769758743875744
-0.09078226668559024,-0.09078226668559024
-0.04837024610484192,-0.04837024610484192
0.009538474303487516,0.009538474303487516
0.05113487910383683,0.05113487910383683
0.07641896829620602,0.07641896829620602
0.09436251546498416,0.09436251546498416
0.1432994622889245,0.1432994622889245
0.2215985772072291,0.2215985772072291
0.31050069727072077,0.31050069727072077
0.3806436543850353,0.3806436543850353
0.4450773010365568,0.4450773010365568
0.5095109476880783,0.5095109476880783
0.5788382890219937,0.5788382890219937
0.6245127727243381,0.6245127727243381
0.6457187830147123,0.6457187830147123
0.6530593250383033,0.6530593250383033
0.6791590300110716,0.6791590300110716
0.7142305085682288,0.7142305085682288
0.74603952400379,0.74603952400379
0.752564450246982,0.752564450246982
0.74603952400379,0.74603952400379
0.7207554348114208,0.7207554348114208
0.6791590300110716,0.6791590300110716
0.6212503096027421,0.6212503096027421
0.5788382890219937,0.5788382890219937
0.5478448893668315,0.5478448893668315
0.5119577950292753,0.5119577950292753
0.4524178430601478,0.4524178430601478
0.4116370540401975,0.4116370540401975
0.4042965120166065,0.4042965120166065
0.4116370540401975,0.4116370540401975
0.3790124228242373,0.3790124228242373
0.31050069727072077,0.31050069727072077
0.24198897171720427,0.24198897171720427
0.21017995628164302,0.21017995628164302
0.21425803518363806,0.21425803518363806
0.24362020327800227,0.24362020327800227
0.2746136029331645,0.2746136029331645
0.27706045027436155,0.27706045027436155
0.23709527703481023,0.23709527703481023
0.17673970928528376,0.17673970928528376
0.1286183782417424,0.1286183782417424
0.10985921529256527,0.10985921529256527
0.11230606263376229,0.11230606263376229
0.10985921529256527,0.10985921529256527
0.06744719471181695,0.06744719471181695
-0.023901772692871734,-0.023901772692871734
-0.12340689790155047,-0.12340689790155047
-0.19110300767466798,-0.19110300767466798
-0.2963174433461398,-0.2963174433461398
-0.5597613404150188,-0.5597613404150188
-1.0238467194620533,-1.0238467194620533
-1.5637843660861952,-1.5637843660861952
-2.0539694501059977,-2.0539694501059977
-2.468302266548693,-2.468302266548693
-2.8728476936266003,-2.8728476936266003
-3.238243563245355,-3.238243563245355
-3.4747721395610665,-3.4747721395610665
-3.5392057862125883,-3.5392057862125883
-3.571014801648149,-3.571014801648149
-3.7072226369747834,-3.7072226369747834
-3.941304365949298,-3.941304365949298
-4.108505600931094,-4.108505600931094
-4.143577079488252,-4.143577079488252
-4.108505600931094,-4.108505600931094
-4.0546749594247595,-4.0546749594247595
-3.8409836249602205,-3.8409836249602205
-3.3230676044068517,-3.3230676044068517
-2.5351827605414115,-2.5351827605414115
-1.6991765856324303,-1.6991765856324303
-0.9610443043713297,-0.9610443043713297
-0.329757690342499,-0.329757690342499
0.24362020327800227,0.24362020327800227
0.7060743507642387,0.7060743507642387
0.9809368687587038,0.9809368687587038
1.0673921414809984,1.0673921414809984
1.0812576097477815,1.0812576097477815
1.1081729305009487,1.1081729305009487
1.1481381037405,1.1481381037405
1.1562942615444902,1.1562942615444902
1.1481381037405,1.1481381037405
1.155478645764091,1.155478645764091
1.1815783507368594,1.1815783507368594
1.1995218979056375,1.1995218979056375
1.2150185977332186,1.2150185977332186
1.2264372186588046,1.2264372186588046
1.2150185977332186,1.2150185977332186
1.1807627349564602,1.1807627349564602
1.1815783507368594,1.1815783507368594
1.2337777606823956,1.2337777606823956
1.281899091725937,1.281899091725937
1.2623243129963608,1.2623243129963608
1.2150185977332186,1.2150185977332186
1.1929969716624453,1.1929969716624453
1.2150185977332186,1.2150185977332186
1.2411183027059867,1.2411183027059867
1.281899091725937,1.281899091725937
1.3218642649654884,1.3218642649654884
1.3487795857186555,1.3487795857186555
1.3308360385498774,1.3308360385498774
1.3153393387222962,1.3153393387222962
1.3316516543302763,1.3316516543302763
1.3822198327150148,1.3822198327150148
1.408319537687783,1.408319537687783
1.415660079711374,1.415660079711374
1.42707870063696,1.42707870063696
1.4825405737040926,1.4825405737040926
1.5445273730144171,1.5445273730144171
1.5828613146931703,1.5828613146931703
1.5787832357911753,1.5787832357911753
1.5828613146931703,1.5828613146931703
1.6065141723247416,1.6065141723247416
1.6505574244662877,1.6505574244662877
1.6791039767802531,1.6791039767802531
1.7174379184590063,1.7174379184590063
1.7622967863809516,1.7622967863809516
1.8177586594480841,1.8177586594480841
