ECG,PPG
-0.473648128408329,-0.473648128408329
-0.5163476163778536,-0.5163476163778536
-0.4607389808826587,-0.4607389808826587
-0.48457125323774225,-0.48457125323774225
-0.4786131851489714,-0.4786131851489714
-0.4567669354901448,-0.4567669354901448
-0.43293466313506124,-0.43293466313506124
-0.4190325042612625,-0.4190325042612625
-0.4071163680837207,-0.4071163680837207
-0.391228186513665,-0.391228186513665
-0.37831903898799474,-0.37831903898799474
-0.3743469935954808,-0.3743469935954808
-0.3733539822473523,-0.3733539822473523
-0.3733539822473523,-0.3733539822473523
-0.37633301629173777,-0.37633301629173777
-0.3842771070767656,-0.3842771070767656
-0.39321420920992195,-0.39321420920992195
-0.4011582999949498,-0.4011582999949498
-0.41009540212810613,-0.41009540212810613
-0.42002551560939094,-0.42002551560939094
-0.4319416517869327,-0.4319416517869327
-0.44683682200885994,-0.44683682200885994
-0.4617319922307872,-0.4617319922307872
-0.47464113975645744,-0.47464113975645744
-0.4815922191933568,-0.4815922191933568
-0.48258523054148533,-0.48258523054148533
-0.4786131851489714,-0.4786131851489714
-0.46967608301581504,-0.46967608301581504
-0.45974596953453023,-0.45974596953453023
-0.4458438106607315,-0.4458438106607315
-0.4319416517869327,-0.4319416517869327
-0.4170464815650055,-0.4170464815650055
-0.41009540212810613,-0.41009540212810613
-0.41307443617249157,-0.41307443617249157
-0.4319416517869327,-0.4319416517869327
-0.45974596953453023,-0.45974596953453023
-0.4935083553708986,-0.4935083553708986
-0.5183336390741107,-0.5183336390741107
-0.5342218206441663,-0.5342218206441663
-0.5342218206441663,-0.5342218206441663
-0.5282637525553955,-0.5282637525553955
-0.5163476163778536,-0.5163476163778536
-0.5084035255928259,-0.5084035255928259
-0.5014524461559264,-0.5014524461559264
-0.500459434807798,-0.500459434807798
-0.49748040076341254,-0.49748040076341254
-0.4994664234596695,-0.4994664234596695
-0.498473412111541,-0.498473412111541
-0.500459434807798,-0.500459434807798
-0.5014524461559264,-0.5014524461559264
-0.5014524461559264,-0.5014524461559264
-0.500459434807798,-0.500459434807798
-0.4994664234596695,-0.4994664234596695
-0.498473412111541,-0.498473412111541
-0.49748040076341254,-0.49748040076341254
-0.49549437806715557,-0.49549437806715557
-0.4945013667190271,-0.4945013667190271
-0.49251534402277014,-0.49251534402277014
-0.4935083553708986,-0.4935083553708986
-0.49549437806715557,-0.49549437806715557
-0.500459434807798,-0.500459434807798
-0.5054244915484404,-0.5054244915484404
-0.5143615936815967,-0.5143615936815967
-0.5242917071628815,-0.5242917071628815
-0.5302497752516524,-0.5302497752516524
-0.5173406277259822,-0.5173406277259822
-0.47066909436394355,-0.47066909436394355
-0.37136795955109536,-0.37136795955109536
-0.2154651778949237,-0.2154651778949237
-0.011897851528584908,-0.011897851528584908
0.20457862236342414,0.20457862236342414
0.3932507785078357,0.3932507785078357
0.5124121402832535,0.5124121402832535
0.542202480727108,0.542202480727108
0.47765674309875666,0.47765674309875666
0.34062117705702616,0.34062117705702616
0.1579070890013855,0.1579070890013855
-0.03175807849115454,-0.03175807849115454
-0.2095071098061528,-0.2095071098061528
-0.3495217098922687,-0.3495217098922687
-0.4518018787495024,-0.4518018787495024
-0.5133685823334683,-0.5133685823334683
-0.5491169908660936,-0.5491169908660936
-0.5659981837842778,-0.5659981837842778
-0.5818863653543335,-0.5818863653543335
-0.5957885242281322,-0.5957885242281322
-0.6146557398425734,-0.6146557398425734
-0.6295509100645006,-0.6295509100645006
-0.6434530689382993,-0.6434530689382993
-0.6464321029826848,-0.6464321029826848
-0.6464321029826848,-0.6464321029826848
-0.640474034893914,-0.640474034893914
-0.6335229554570145,-0.6335229554570145
-0.6275648873682437,-0.6275648873682437
-0.6245858533238582,-0.6245858533238582
-0.6255788646719866,-0.6255788646719866
-0.6265718760201152,-0.6265718760201152
-0.6295509100645006,-0.6295509100645006
-0.6315369327607576,-0.6315369327607576
-0.6335229554570145,-0.6335229554570145
-0.6365019895014,-0.6365019895014
-0.640474034893914,-0.640474034893914
-0.6444460802864278,-0.6444460802864278
-0.6474251143308133,-0.6474251143308133
-0.6484181256789417,-0.6484181256789417
-0.6454390916345564,-0.6454390916345564
-0.6424600575901709,-0.6424600575901709
-0.6394810235457854,-0.6394810235457854
-0.6414670462420424,-0.6414670462420424
-0.6434530689382993,-0.6434530689382993
-0.6484181256789417,-0.6484181256789417
-0.6523901710714557,-0.6523901710714557
-0.6563622164639696,-0.6563622164639696
-0.6583482391602266,-0.6583482391602266
-0.663313295900869,-0.663313295900869
-0.6672853412933829,-0.6672853412933829
-0.6742364207302823,-0.6742364207302823
-0.6801944888190532,-0.6801944888190532
-0.6871455682559525,-0.6871455682559525
-0.690124602300338,-0.690124602300338
-0.6950896590409804,-0.6950896590409804
-0.6950896590409804,-0.6950896590409804
-0.6990617044334944,-0.6990617044334944
-0.6970756817372374,-0.6970756817372374
-0.6990617044334944,-0.6990617044334944
-0.6950896590409804,-0.6950896590409804
-0.6950896590409804,-0.6950896590409804
-0.690124602300338,-0.690124602300338
-0.6891315909522095,-0.6891315909522095
-0.6841665342115671,-0.6841665342115671
-0.6811875001671817,-0.6811875001671817
-0.6732434093821539,-0.6732434093821539
-0.665299318597126,-0.665299318597126
-0.6523901710714557,-0.6523901710714557
-0.6414670462420424,-0.6414670462420424
-0.6285578987163721,-0.6285578987163721
-0.6196207965832158,-0.6196207965832158
-0.6086976717538025,-0.6086976717538025
-0.6007535809687746,-0.6007535809687746
-0.5908234674874898,-0.5908234674874898
-0.580893354006205,-0.580893354006205
-0.5679842064805347,-0.5679842064805347
-0.5550750589548645,-0.5550750589548645
-0.5431589227773227,-0.5431589227773227
-0.5352148319922948,-0.5352148319922948
-0.5282637525553955,-0.5282637525553955
-0.5232986958147531,-0.5232986958147531
-0.5203196617703676,-0.5203196617703676
-0.5173406277259822,-0.5173406277259822
-0.5153546050297252,-0.5153546050297252
-0.5163476163778536,-0.5163476163778536
-0.5173406277259822,-0.5173406277259822
-0.521312673118496,-0.521312673118496
-0.5262777298591386,-0.5262777298591386
-0.531242786599781,-0.531242786599781
-0.5352148319922948,-0.5352148319922948
-0.5381938660366803,-0.5381938660366803
-0.5391868773848087,-0.5391868773848087
-0.5391868773848087,-0.5391868773848087
-0.5362078433404234,-0.5362078433404234
-0.5352148319922948,-0.5352148319922948
-0.5322357979479094,-0.5322357979479094
-0.5322357979479094,-0.5322357979479094
-0.5302497752516524,-0.5302497752516524
-0.5322357979479094,-0.5322357979479094
-0.531242786599781,-0.531242786599781
-0.5342218206441663,-0.5342218206441663
-0.5322357979479094,-0.5322357979479094
-0.5292567639035239,-0.5292567639035239
-0.5193266504222391,-0.5193266504222391
-0.5074105142446974,-0.5074105142446974
-0.4895363099783847,-0.4895363099783847
-0.47066909436394355,-0.47066909436394355
-0.4498158560532454,-0.4498158560532454
-0.4319416517869327,-0.4319416517869327
-0.4140674475206201,-0.4140674475206201
-0.3991722772986928,-0.3991722772986928
-0.3842771070767656,-0.3842771070767656
-0.37037494820296685,-0.37037494820296685
-0.3574658006772966,-0.3574658006772966
-0.3455496644997548,-0.3455496644997548
-0.33561955101847,-0.33561955101847
-0.32866847158157064,-0.32866847158157064
-0.3227104034927997,-0.3227104034927997
-0.3197313694484143,-0.3197313694484143
-0.3147663127077719,-0.3147663127077719
-0.30880824461900097,-0.30880824461900097
-0.30086415383397314,-0.30086415383397314
-0.29093404035268833,-0.29093404035268833
-0.27901790417514655,-0.27901790417514655
-0.26710176799760477,-0.26710176799760477
-0.25419262047193447,-0.25419262047193447
-0.24426250699064966,-0.24426250699064966
-0.23532540485749331,-0.23532540485749331
-0.22936733676872242,-0.22936733676872242
-0.2253952913762085,-0.2253952913762085
-0.22440228002808002,-0.22440228002808002
-0.22340926867995153,-0.22340926867995153
-0.2253952913762085,-0.2253952913762085
-0.226388302724337,-0.226388302724337
-0.2303603481168509,-0.2303603481168509
-0.23433239350936483,-0.23433239350936483
-0.2422764842943927,-0.2422764842943927
-0.24922756373129207,-0.24922756373129207
-0.2591576772125769,-0.2591576772125769
-0.26710176799760477,-0.26710176799760477
-0.2750458587826326,-0.2750458587826326
-0.281996938219532,-0.281996938219532
-0.2899410290045598,-0.2899410290045598
-0.2968921084414592,-0.2968921084414592
-0.3078152332708725,-0.3078152332708725
-0.3177453467521573,-0.3177453467521573
-0.33065449427782756,-0.33065449427782756
-0.3415776191072409,-0.3415776191072409
-0.3515077325885257,-0.3515077325885257
-0.3574658006772966,-0.3574658006772966
-0.36044483472168204,-0.36044483472168204
-0.3594518233735536,-0.3594518233735536
-0.3574658006772966,-0.3574658006772966
-0.35349375528478266,-0.35349375528478266
-0.3495217098922687,-0.3495217098922687
-0.3445566531516263,-0.3445566531516263
-0.3405846077591124,-0.3405846077591124
-0.3366125623665985,-0.3366125623665985
-0.3346265396703415,-0.3346265396703415
-0.33264051697408453,-0.33264051697408453
-0.33363352832221305,-0.33363352832221305
-0.3346265396703415,-0.3346265396703415
-0.3366125623665985,-0.3366125623665985
-0.3366125623665985,-0.3366125623665985
-0.33561955101847,-0.33561955101847
-0.33264051697408453,-0.33264051697408453
-0.33065449427782756,-0.33065449427782756
-0.32866847158157064,-0.32866847158157064
-0.32866847158157064,-0.32866847158157064
-0.33065449427782756,-0.33065449427782756
-0.33561955101847,-0.33561955101847
-0.34257063045536934,-0.34257063045536934
-0.3525007439366542,-0.3525007439366542
-0.36044483472168204,-0.36044483472168204
-0.3693819368548384,-0.3693819368548384
-0.3733539822473523,-0.3733539822473523
-0.37534000494360925,-0.37534000494360925
-0.3723609708992238,-0.3723609708992238
-0.37037494820296685,-0.37037494820296685
-0.36640290281045296,-0.36640290281045296
-0.36640290281045296,-0.36640290281045296
-0.36342386876606747,-0.36342386876606747
-0.362430857417939,-0.362430857417939
-0.35845881202542507,-0.35845881202542507
-0.3564727893291681,-0.3564727893291681
-0.35547977798103964,-0.35547977798103964
-0.3594518233735536,-0.3594518233735536
-0.36640290281045296,-0.36640290281045296
-0.37831903898799474,-0.37831903898799474
-0.389242163817408,-0.389242163817408
-0.4011582999949498,-0.4011582999949498
-0.41009540212810613,-0.41009540212810613
-0.42002551560939094,-0.42002551560939094
-0.4289626177425473,-0.4289626177425473
-0.4398857425719606,-0.4398857425719606
-0.444850799312603,-0.444850799312603
-0.44683682200885994,-0.44683682200885994
-0.44286477661634605,-0.44286477661634605
-0.43591369717944667,-0.43591369717944667
-0.42598358369816186,-0.42598358369816186
-0.4140674475206201,-0.4140674475206201
-0.4001652886468213,-0.4001652886468213
-0.3842771070767656,-0.3842771070767656
-0.36640290281045296,-0.36640290281045296
-0.3525007439366542,-0.3525007439366542
-0.3455496644997548,-0.3455496644997548
-0.35051472124039723,-0.35051472124039723
-0.36640290281045296,-0.36640290281045296
-0.3902351751655365,-0.3902351751655365
-0.41307443617249157,-0.41307443617249157
-0.43293466313506124,-0.43293466313506124
-0.44286477661634605,-0.44286477661634605
-0.444850799312603,-0.444850799312603
-0.4408787539200891,-0.4408787539200891
-0.43492068583131815,-0.43492068583131815
-0.42796960639441883,-0.42796960639441883
-0.42499057235003335,-0.42499057235003335
-0.42101852695751946,-0.42101852695751946
-0.42002551560939094,-0.42002551560939094
-0.4190325042612625,-0.4190325042612625
-0.42101852695751946,-0.42101852695751946
-0.4230045496537764,-0.4230045496537764
-0.4289626177425473,-0.4289626177425473
-0.43492068583131815,-0.43492068583131815
-0.4408787539200891,-0.4408787539200891
-0.4458438106607315,-0.4458438106607315
-0.44683682200885994,-0.44683682200885994
-0.44782983335698845,-0.44782983335698845
-0.44782983335698845,-0.44782983335698845
-0.4488228447051169,-0.4488228447051169
-0.4508088674013739,-0.4508088674013739
-0.45279489009763085,-0.45279489009763085
-0.4567669354901448,-0.4567669354901448
-0.45875295818640177,-0.45875295818640177
-0.4657040376233011,-0.4657040376233011
-0.47563415110458596,-0.47563415110458596
-0.4895363099783847,-0.4895363099783847
-0.498473412111541,-0.498473412111541
-0.49251534402277014,-0.49251534402277014
-0.4498158560532454,-0.4498158560532454
-0.3574658006772966,-0.3574658006772966
-0.20454205306551038,-0.20454205306551038
-0.004946772091685535,-0.004946772091685535
0.21550174719283746,0.21550174719283746
0.41509702816666233,0.41509702816666233
0.5580906622971636,0.5580906622971636
0.6166783318367441,0.6166783318367441
0.5849019686966327,0.5849019686966327
0.47269168635811426,0.47269168635811426
0.3048727685244008,0.3048727685244008
0.10924953294308988,0.10924953294308988
-0.08240165724570711,-0.08240165724570711
-0.24823455238316358,-0.24823455238316358
-0.3693819368548384,-0.3693819368548384
-0.44683682200885994,-0.44683682200885994
-0.48556426458587076,-0.48556426458587076
-0.5024454575040549,-0.5024454575040549
-0.5093965369409543,-0.5093965369409543
-0.5173406277259822,-0.5173406277259822
-0.52528471851101,-0.52528471851101
-0.5322357979479094,-0.5322357979479094
-0.531242786599781,-0.531242786599781
-0.52528471851101,-0.52528471851101
-0.5143615936815967,-0.5143615936815967
-0.5054244915484404,-0.5054244915484404
-0.49748040076341254,-0.49748040076341254
-0.4935083553708986,-0.4935083553708986
-0.4935083553708986,-0.4935083553708986
-0.4915223326746416,-0.4915223326746416
-0.48755028728212774,-0.48755028728212774
-0.4786131851489714,-0.4786131851489714
-0.4657040376233011,-0.4657040376233011
-0.4508088674013739,-0.4508088674013739
-0.4339276744831897,-0.4339276744831897
-0.4190325042612625,-0.4190325042612625
-0.4041373340393352,-0.4041373340393352
-0.39321420920992195,-0.39321420920992195
-0.38229108438050863,-0.38229108438050863
-0.37831903898799474,-0.37831903898799474
-0.37831903898799474,-0.37831903898799474
-0.38527011842489406,-0.38527011842489406
-0.3952002319061789,-0.3952002319061789
-0.4071163680837207,-0.4071163680837207
-0.416053470216877,-0.416053470216877
-0.4230045496537764,-0.4230045496537764
-0.42499057235003335,-0.42499057235003335
-0.42598358369816186,-0.42598358369816186
-0.42796960639441883,-0.42796960639441883
-0.4319416517869327,-0.4319416517869327
-0.43492068583131815,-0.43492068583131815
-0.4369067085275751,-0.4369067085275751
-0.43789971987570364,-0.43789971987570364
-0.43789971987570364,-0.43789971987570364
-0.43492068583131815,-0.43492068583131815
-0.43293466313506124,-0.43293466313506124
-0.43094864043880426,-0.43094864043880426
-0.42995562909067575,-0.42995562909067575
-0.42598358369816186,-0.42598358369816186
-0.42101852695751946,-0.42101852695751946
-0.41307443617249157,-0.41307443617249157
-0.40314432269120676,-0.40314432269120676
-0.3902351751655365,-0.3902351751655365
-0.37831903898799474,-0.37831903898799474
-0.364416880114196,-0.364416880114196
-0.3515077325885257,-0.3515077325885257
-0.33561955101847,-0.33561955101847
-0.3197313694484143,-0.3197313694484143
-0.3028501765302301,-0.3028501765302301
-0.2869619949601744,-0.2869619949601744
-0.27206682473824717,-0.27206682473824717
-0.26114369990883385,-0.26114369990883385
-0.24922756373129207,-0.24922756373129207
-0.2412834729462642,-0.2412834729462642
-0.22936733676872242,-0.22936733676872242
-0.21745120059118064,-0.21745120059118064
-0.20255603036925343,-0.20255603036925343
-0.18567483745106922,-0.18567483745106922
-0.16680762183662806,-0.16680762183662806
-0.15091944026657236,-0.15091944026657236
-0.1370172813927736,-0.1370172813927736
-0.13006620195587423,-0.13006620195587423
-0.1270871679114888,-0.1270871679114888
-0.13006620195587423,-0.13006620195587423
-0.13403824734838818,-0.13403824734838818
-0.13900330408903058,-0.13900330408903058
-0.14198233813341601,-0.14198233813341601
-0.14198233813341601,-0.14198233813341601
-0.13900330408903058,-0.13900330408903058
-0.13503125869651667,-0.13503125869651667
-0.13006620195587423,-0.13006620195587423
-0.1270871679114888,-0.1270871679114888
-0.12510114521523183,-0.12510114521523183
-0.12510114521523183,-0.12510114521523183
-0.12609415656336032,-0.12609415656336032
-0.12907319060774577,-0.12907319060774577
-0.13105921330400272,-0.13105921330400272
-0.13403824734838818,-0.13403824734838818
-0.13602427004464512,-0.13602427004464512
-0.1380102927409021,-0.1380102927409021
-0.1370172813927736,-0.1370172813927736
-0.1370172813927736,-0.1370172813927736
-0.13503125869651667,-0.13503125869651667
-0.13503125869651667,-0.13503125869651667
-0.13503125869651667,-0.13503125869651667
-0.1370172813927736,-0.1370172813927736
-0.13999631543715907,-0.13999631543715907
-0.14595438352592996,-0.14595438352592996
-0.15091944026657236,-0.15091944026657236
-0.15886353105160023,-0.15886353105160023
-0.16482159914037112,-0.16482159914037112
-0.170779667229142,-0.170779667229142
-0.1757447239697844,-0.1757447239697844
-0.17971676936229833,-0.17971676936229833
-0.1817027920585553,-0.1817027920585553
-0.1826958034066838,-0.1826958034066838
-0.1817027920585553,-0.1817027920585553
-0.1817027920585553,-0.1817027920585553
-0.18368881475481227,-0.18368881475481227
-0.18865387149545468,-0.18865387149545468
-0.19560495093235405,-0.19560495093235405
-0.20553506441363886,-0.20553506441363886
-0.21347915519866673,-0.21347915519866673
-0.21745120059118064,-0.21745120059118064
-0.21645818924305216,-0.21645818924305216
-0.21050012115428127,-0.21050012115428127
-0.20057000767299646,-0.20057000767299646
-0.19063989419171165,-0.19063989419171165
-0.1817027920585553,-0.1817027920585553
-0.17375870127352744,-0.17375870127352744
-0.16680762183662806,-0.16680762183662806
-0.16184256509598566,-0.16184256509598566
-0.15588449700721477,-0.15588449700721477
-0.14992642891844388,-0.14992642891844388
-0.143968360829673,-0.143968360829673
-0.1380102927409021,-0.1380102927409021
-0.13403824734838818,-0.13403824734838818
-0.13006620195587423,-0.13006620195587423
-0.12410813386710336,-0.12410813386710336
-0.11417802038581853,-0.11417802038581853
-0.10027586151201978,-0.10027586151201978
-0.08240165724570711,-0.08240165724570711
-0.06452745297939444,-0.06452745297939444
-0.048639271409338734,-0.048639271409338734
-0.034737112535539995,-0.034737112535539995
-0.019841942313612762,-0.019841942313612762
-0.0009747266991716078,-0.0009747266991716078
0.026829591048425885,0.026829591048425885
0.06357101092917972,0.06357101092917972
0.10527748755057596,0.10527748755057596
0.1469839641719722,0.1469839641719722
0.18074635000834058,0.18074635000834058
0.20557163371155263,0.20557163371155263
0.2224528266297368,0.2224528266297368
0.2343689628072786,0.2343689628072786
0.2462850989848204,0.2462850989848204
0.2572082238142337,0.2572082238142337
0.27011737133990393,0.27011737133990393
0.2800474848211888,0.2800474848211888
0.28600555290995966,0.28600555290995966
0.2869985642580881,0.2869985642580881
0.2840195302137027,0.2840195302137027
0.2780614621249318,0.2780614621249318
0.2730964053842894,0.2730964053842894
0.27111038268803245,0.27111038268803245
0.2740894167324179,0.2740894167324179
0.28104049616931726,0.28104049616931726
0.2889845869543451,0.2889845869543451
0.29593566639124447,0.29593566639124447
0.2999077117837584,0.2999077117837584
0.3018937344800154,0.3018937344800154
0.3018937344800154,0.3018937344800154
0.3018937344800154,0.3018937344800154
0.3018937344800154,0.3018937344800154
0.3018937344800154,0.3018937344800154
0.3018937344800154,0.3018937344800154
0.30288674582814384,0.30288674582814384
0.3058657798725293,0.3058657798725293
0.30884481391691476,0.30884481391691476
0.3148028820056856,0.3148028820056856
0.3227469727907135,0.3227469727907135
0.3336700976201268,0.3336700976201268
0.34558623379766856,0.34558623379766856
0.3594883926714673,0.3594883926714673
0.37438356289339453,0.37438356289339453
0.39027174446345025,0.39027174446345025
0.40218788064099203,0.40218788064099203
0.4111249827741484,0.4111249827741484
0.4141040168185338,0.4141040168185338
0.41311100547040536,0.41311100547040536
0.406159926033506,0.406159926033506
0.3982158352484781,0.3982158352484781
0.3862996990709363,0.3862996990709363
0.37736259693778,0.37736259693778
0.3664394721083667,0.3664394721083667
0.35849538132333886,0.35849538132333886
0.348565267842054,0.348565267842054
0.3396281657088977,0.3396281657088977
0.33069106357574135,0.33069106357574135
0.32572600683509895,0.32572600683509895
0.321753961442585,0.321753961442585
0.323739984138842,0.323739984138842
0.32969805222761284,0.32969805222761284
0.34260719975328313,0.34260719975328313
0.35849538132333886,0.35849538132333886
0.3783556082859085,0.3783556082859085
0.39722282390034963,0.39722282390034963
0.41509702816666233,0.41509702816666233
0.4240341302998186,0.4240341302998186
0.42502714164794714,0.42502714164794714
0.41509702816666233,0.41509702816666233
0.40020185794473506,0.40020185794473506
0.3833206650265509,0.3833206650265509
0.3694185061527521,0.3694185061527521
0.3604814040195958,0.3604814040195958
0.35750236997521034,0.35750236997521034
0.35849538132333886,0.35849538132333886
0.36246742671585275,0.36246742671585275
0.36842549480462367,0.36842549480462367
0.37537657424152304,0.37537657424152304
0.3813346423302939,0.3813346423302939
0.3872927104190648,0.3872927104190648
0.3912647558115787,0.3912647558115787
0.39523680120409266,0.39523680120409266
0.39523680120409266,0.39523680120409266
0.3992088465966066,0.3992088465966066
0.3992088465966066,0.3992088465966066
0.406159926033506,0.406159926033506
0.40814594872976295,0.40814594872976295
0.4141040168185338,0.4141040168185338
0.4141040168185338,0.4141040168185338
0.4160900395147908,0.4160900395147908
0.41509702816666233,0.41509702816666233
0.4160900395147908,0.4160900395147908
0.41509702816666233,0.41509702816666233
0.41509702816666233,0.41509702816666233
0.41211799412227684,0.41211799412227684
0.4091389600778914,0.4091389600778914
0.40020185794473506,0.40020185794473506
0.3982158352484781,0.3982158352484781
0.4111249827741484,0.4111249827741484
0.46176856152870094,0.46176856152870094
0.5620627076896776,0.5620627076896776
0.7229305460864917,0.7229305460864917
0.9304699178453444,0.9304699178453444
1.1578695165667667,1.1578695165667667
1.3624298542812339,1.3624298542812339
1.5084025224561208,1.5084025224561208
1.5679832033438297,1.5679832033438297
1.5381928628999753,1.5381928628999753
1.4259825805614568,1.4259825805614568
1.255184628683358,1.255184628683358
1.055589347709533,1.055589347709533
0.8569870780838368,0.8569870780838368
0.6851961148576093,0.6851961148576093
0.5590836736452922,0.5590836736452922
0.47964276579501364,0.47964276579501364
0.43992231186987435,0.43992231186987435
0.4240341302998186,0.4240341302998186
0.41708305086291925,0.41708305086291925
0.4091389600778914,0.4091389600778914
0.3982158352484781,0.3982158352484781
0.3882857217671933,0.3882857217671933
0.3813346423302939,0.3813346423302939
0.37736259693778,0.37736259693778
0.37736259693778,0.37736259693778
0.37934861963403693,0.37934861963403693
0.3843136763746794,0.3843136763746794
0.3892787331153218,0.3892787331153218
0.40020185794473506,0.40020185794473506
0.41013197142601987,0.41013197142601987
0.42502714164794714,0.42502714164794714
0.4359502664773604,0.4359502664773604
0.44985242535115916,0.44985242535115916
0.45978253883244397,0.45978253883244397
0.46971265231372883,0.46971265231372883
0.4736846977062427,0.4736846977062427
0.47765674309875666,0.47765674309875666
0.47765674309875666,0.47765674309875666
0.47765674309875666,0.47765674309875666
0.47269168635811426,0.47269168635811426
0.4687196409656003,0.4687196409656003
0.4607755501805725,0.4607755501805725
0.45481748209180156,0.45481748209180156
0.44588037995864527,0.44588037995864527
0.43992231186987435,0.43992231186987435
0.4339642437811035,0.4339642437811035
0.42999219838858954,0.42999219838858954
0.4240341302998186,0.4240341302998186
0.4190690735591762,0.4190690735591762
0.41211799412227684,0.41211799412227684
0.404173903337249,0.404173903337249
0.3942437898559642,0.3942437898559642
0.3843136763746794,0.3843136763746794
0.37537657424152304,0.37537657424152304
0.3694185061527521,0.3694185061527521
0.3664394721083667,0.3664394721083667
0.3664394721083667,0.3664394721083667
0.36743248345649515,0.36743248345649515
0.36842549480462367,0.36842549480462367
0.3694185061527521,0.3694185061527521
0.3723975401971376,0.3723975401971376
0.3763695855896515,0.3763695855896515
0.3823276536784224,0.3823276536784224
0.3872927104190648,0.3872927104190648
0.39523680120409266,0.39523680120409266
0.40218788064099203,0.40218788064099203
0.4111249827741484,0.4111249827741484
0.42204810760356165,0.42204810760356165
0.4369432778254889,0.4369432778254889
0.45183844804741613,0.45183844804741613
0.4687196409656003,0.4687196409656003
0.48460782253565604,0.48460782253565604
0.5014890154538403,0.5014890154538403
0.5163841856757675,0.5163841856757675
0.5332653785939516,0.5332653785939516
0.5461745261196219,0.5461745261196219
0.5590836736452922,0.5590836736452922
0.56702776443032,0.56702776443032
0.5769578779116048,0.5769578779116048
0.5839089573485042,0.5839089573485042
0.593839070829789,0.593839070829789
0.6027761729629454,0.6027761729629454
0.6136992977923587,0.6136992977923587
0.6216433885773865,0.6216433885773865
0.6295874793624144,0.6295874793624144
0.6335595247549283,0.6335595247549283
0.6375315701474422,0.6375315701474422
0.6385245814955707,0.6385245814955707
0.6385245814955707,0.6385245814955707
0.6345525361030568,0.6345525361030568
0.6295874793624144,0.6295874793624144
0.6216433885773865,0.6216433885773865
0.6156853204886157,0.6156853204886157
0.6107202637479733,0.6107202637479733
0.6117132750961017,0.6117132750961017
0.6136992977923587,0.6136992977923587
0.6196573658811295,0.6196573658811295
0.622636399925515,0.622636399925515
0.624622422621772,0.624622422621772
0.6236294112736435,0.6236294112736435
0.6216433885773865,0.6216433885773865
0.6186643545330011,0.6186643545330011
0.6176713431848726,0.6176713431848726
0.6186643545330011,0.6186643545330011
0.622636399925515,0.622636399925515
0.626608445318029,0.626608445318029
0.6305804907105429,0.6305804907105429
0.6325665134067998,0.6325665134067998
0.6335595247549283,0.6335595247549283
0.6325665134067998,0.6325665134067998
0.6325665134067998,0.6325665134067998
0.6315735020586714,0.6315735020586714
0.6315735020586714,0.6315735020586714
0.6276014566661574,0.6276014566661574
0.6236294112736435,0.6236294112736435
0.6146923091404871,0.6146923091404871
0.6087342410517163,0.6087342410517163
0.5997971389185599,0.5997971389185599
0.5988041275704314,0.5988041275704314
0.5968181048741745,0.5968181048741745
0.6017831616148169,0.6017831616148169
0.6057552070073309,0.6057552070073309
0.6146923091404871,0.6146923091404871
0.6206503772292581,0.6206503772292581
0.6305804907105429,0.6305804907105429
0.6365385587993138,0.6365385587993138
0.6444826495843416,0.6444826495843416
0.6464686722805986,0.6464686722805986
0.6504407176731125,0.6504407176731125
0.651433729021241,0.651433729021241
0.6544127630656265,0.6544127630656265
0.6554057744137549,0.6554057744137549
0.6593778198062689,0.6593778198062689
0.6613638425025258,0.6613638425025258
0.6653358878950397,0.6653358878950397
0.6683149219394252,0.6683149219394252
0.6732799786800676,0.6732799786800676
0.67824503542071,0.67824503542071
0.6842031035094809,0.6842031035094809
0.6891681602501233,0.6891681602501233
0.6931402056426372,0.6931402056426372
0.6961192396870227,0.6961192396870227
0.7000912850795366,0.7000912850795366
0.703070319123922,0.703070319123922
0.7080353758645644,0.7080353758645644
0.7110144099089499,0.7110144099089499
0.7139934439533353,0.7139934439533353
0.7139934439533353,0.7139934439533353
0.7130004326052068,0.7130004326052068
0.7090283872126929,0.7090283872126929
0.7040633304720505,0.7040633304720505
0.6961192396870227,0.6961192396870227
0.6921471942945088,0.6921471942945088
0.6881751489019948,0.6881751489019948
0.6911541829463803,0.6911541829463803
0.6951262283388941,0.6951262283388941
0.7040633304720505,0.7040633304720505
0.7080353758645644,0.7080353758645644
0.7130004326052068,0.7130004326052068
0.7120074212570784,0.7120074212570784
0.7130004326052068,0.7130004326052068
0.7110144099089499,0.7110144099089499
0.7130004326052068,0.7130004326052068
0.7110144099089499,0.7110144099089499
0.7110144099089499,0.7110144099089499
0.7040633304720505,0.7040633304720505
0.7000912850795366,0.7000912850795366
0.6911541829463803,0.6911541829463803
0.6881751489019948,0.6881751489019948
0.6842031035094809,0.6842031035094809
0.6851961148576093,0.6851961148576093
0.6842031035094809,0.6842031035094809
0.6861891262057379,0.6861891262057379
0.6851961148576093,0.6851961148576093
0.6871821375538664,0.6871821375538664
0.6921471942945088,0.6921471942945088
0.703070319123922,0.703070319123922
0.7169724779977208,0.7169724779977208
0.733853670915905,0.733853670915905
0.7477558297897038,0.7477558297897038
0.758678954619117,0.758678954619117
0.7616579886635024,0.7616579886635024
0.762651000011631,0.762651000011631
0.760664977315374,0.760664977315374
0.7596719659672455,0.7596719659672455
0.758678954619117,0.758678954619117
0.7576859432709886,0.7576859432709886
0.7527208865303462,0.7527208865303462
0.7437837843971898,0.7437837843971898
0.7288886141752626,0.7288886141752626
0.7120074212570784,0.7120074212570784
0.6951262283388941,0.6951262283388941
0.6812240694650954,0.6812240694650954
0.6703009446356821,0.6703009446356821
0.6663288992431682,0.6663288992431682
0.6653358878950397,0.6653358878950397
0.6722869673319392,0.6722869673319392
0.67824503542071,0.67824503542071
0.6901611715982517,0.6901611715982517
0.7020773077757936,0.7020773077757936
0.7169724779977208,0.7169724779977208
0.7249165687827487,0.7249165687827487
0.7308746368715195,0.7308746368715195
0.7229305460864917,0.7229305460864917
0.7080353758645644,0.7080353758645644
0.6832100921613524,0.6832100921613524
0.6603708311543973,0.6603708311543973
0.6405106041918277,0.6405106041918277
0.6305804907105429,0.6305804907105429
0.6236294112736435,0.6236294112736435
0.6216433885773865,0.6216433885773865
0.6166783318367441,0.6166783318367441
0.6127062864442302,0.6127062864442302
0.6057552070073309,0.6057552070073309
0.5997971389185599,0.5997971389185599
0.593839070829789,0.593839070829789
0.5888740140891466,0.5888740140891466
0.5819229346522473,0.5819229346522473
0.5769578779116048,0.5769578779116048
0.5709998098228339,0.5709998098228339
0.5660347530821915,0.5660347530821915
0.5580906622971636,0.5580906622971636
0.5511395828602643,0.5511395828602643
0.5392234466827225,0.5392234466827225
0.5302863445495662,0.5302863445495662
0.517377197023896,0.517377197023896
0.5074470835426111,0.5074470835426111
0.49553094736506936,0.49553094736506936
0.48262179983939907,0.48262179983939907
0.46772662961747186,0.46772662961747186
0.4488594140030307,0.4488594140030307
0.428999187040461,0.428999187040461
0.40814594872976295,0.40814594872976295
0.3862996990709363,0.3862996990709363
0.36246742671585275,0.36246742671585275
0.33565612031638375,0.33565612031638375
0.30884481391691476,0.30884481391691476
0.2899775983024736,0.2899775983024736
0.29792168908750144,0.29792168908750144
0.35055129053831097,0.35055129053831097
0.46276157287682945,0.46276157287682945
0.6335595247549283,0.6335595247549283
0.8440779305581665,0.8440779305581665
1.055589347709533,1.055589347709533
1.2293663336320173,1.2293663336320173
1.3266814457486085,1.3266814457486085
1.3306534911411225,1.3306534911411225
1.241282469809559,1.241282469809559
1.082400654109002,1.082400654109002
0.8808193504389203,0.8808193504389203
0.6722869673319392,0.6722869673319392
0.4836148111875275,0.4836148111875275
0.3346631089682553,0.3346631089682553
0.23039691741476467,0.23039691741476467
0.1688302138307988,0.1688302138307988
0.13705385069068737,0.13705385069068737
0.1251377145131456,0.1251377145131456
0.1191796464243747,0.1191796464243747
0.11520760103186078,0.11520760103186078
0.10726351024683292,0.10726351024683292
0.09634038541741963,0.09634038541741963
0.08442424923987785,0.08442424923987785
0.0705220903660791,0.0705220903660791
0.058605954188537306,0.058605954188537306
0.04966885205538097,0.04966885205538097
0.04271777261848159,0.04271777261848159
0.03874572722596767,0.03874572722596767
0.030801636440939813,0.030801636440939813
0.01888550026339803,0.01888550026339803
-0.0009747266991716078,-0.0009747266991716078
-0.026793021750512135,-0.026793021750512135
-0.05559035084623811,-0.05559035084623811
-0.08438767994196408,-0.08438767994196408
-0.1102059749933046,-0.1102059749933046
-0.13105921330400272,-0.13105921330400272
-0.14595438352592996,-0.14595438352592996
-0.15687750835534325,-0.15687750835534325
-0.16382858779224263,-0.16382858779224263
-0.16879364453288503,-0.16879364453288503
-0.170779667229142,-0.170779667229142
-0.17375870127352744,-0.17375870127352744
-0.1757447239697844,-0.1757447239697844
-0.17872375801416987,-0.17872375801416987
-0.1826958034066838,-0.1826958034066838
-0.18865387149545468,-0.18865387149545468
-0.19461193958422557,-0.19461193958422557
-0.19957699632486797,-0.19957699632486797
-0.2035490417173819,-0.2035490417173819
-0.20851409845802432,-0.20851409845802432
-0.21347915519866673,-0.21347915519866673
-0.22241625733182305,-0.22241625733182305
-0.23234637081310788,-0.23234637081310788
-0.24326949564252118,-0.24326949564252118
-0.25121358642754904,-0.25121358642754904
-0.255185631820063,-0.255185631820063
-0.25419262047193447,-0.25419262047193447
-0.253199609123806,-0.253199609123806
-0.253199609123806,-0.253199609123806
-0.2581646658644484,-0.2581646658644484
-0.26610875664947625,-0.26610875664947625
-0.27405284743450414,-0.27405284743450414
-0.27603887013076106,-0.27603887013076106
-0.27107381339011866,-0.27107381339011866
-0.2591576772125769,-0.2591576772125769
-0.24326949564252118,-0.24326949564252118
-0.22738131407246548,-0.22738131407246548
-0.21347915519866673,-0.21347915519866673
-0.2035490417173819,-0.2035490417173819
-0.19361892823609708,-0.19361892823609708
-0.1817027920585553,-0.1817027920585553
-0.16680762183662806,-0.16680762183662806
-0.14992642891844388,-0.14992642891844388
-0.13403824734838818,-0.13403824734838818
-0.11914307712646094,-0.11914307712646094
-0.10921296364517613,-0.10921296364517613
-0.10027586151201978,-0.10027586151201978
-0.09233177072699193,-0.09233177072699193
-0.0833946685938356,-0.0833946685938356
-0.07545057780880775,-0.07545057780880775
-0.06949250972003684,-0.06949250972003684
-0.06849949837190837,-0.06849949837190837
-0.06949250972003684,-0.06949250972003684
-0.07346455511255078,-0.07346455511255078
-0.07445756646067926,-0.07445756646067926
-0.07445756646067926,-0.07445756646067926
-0.0724715437644223,-0.0724715437644223
-0.07346455511255078,-0.07346455511255078
-0.0774366005050647,-0.0774366005050647
-0.08736671398634953,-0.08736671398634953
-0.09531080477137738,-0.09531080477137738
-0.10424790690453371,-0.10424790690453371
-0.10821995229704764,-0.10821995229704764
-0.11219199768956158,-0.11219199768956158
-0.11318500903769005,-0.11318500903769005
-0.11715705443020398,-0.11715705443020398
-0.12013608847458943,-0.12013608847458943
-0.12410813386710336,-0.12410813386710336
-0.12510114521523183,-0.12510114521523183
-0.12609415656336032,-0.12609415656336032
-0.12510114521523183,-0.12510114521523183
-0.12510114521523183,-0.12510114521523183
-0.12510114521523183,-0.12510114521523183
-0.12510114521523183,-0.12510114521523183
-0.12609415656336032,-0.12609415656336032
-0.1320522246521312,-0.1320522246521312
-0.14198233813341601,-0.14198233813341601
-0.1598565423997287,-0.1598565423997287
-0.1817027920585553,-0.1817027920585553
-0.20652807576176735,-0.20652807576176735
-0.2303603481168509,-0.2303603481168509
-0.2502205750794205,-0.2502205750794205
-0.2641227339532193,-0.2641227339532193
-0.27206682473824717,-0.27206682473824717
-0.27405284743450414,-0.27405284743450414
-0.27206682473824717,-0.27206682473824717
-0.27107381339011866,-0.27107381339011866
-0.27603887013076106,-0.27603887013076106
-0.2859689836120459,-0.2859689836120459
-0.3028501765302301,-0.3028501765302301
-0.32072438079654275,-0.32072438079654275
-0.3346265396703415,-0.3346265396703415
-0.34257063045536934,-0.34257063045536934
-0.3465426758478833,-0.3465426758478833
-0.3455496644997548,-0.3455496644997548
-0.3445566531516263,-0.3445566531516263
-0.3445566531516263,-0.3445566531516263
-0.3455496644997548,-0.3455496644997548
-0.3445566531516263,-0.3445566531516263
-0.3445566531516263,-0.3445566531516263
-0.3395915964109839,-0.3395915964109839
-0.3366125623665985,-0.3366125623665985
-0.3316475056259561,-0.3316475056259561
-0.33065449427782756,-0.33065449427782756
-0.3296614829296991,-0.3296614829296991
-0.33363352832221305,-0.33363352832221305
-0.3366125623665985,-0.3366125623665985
-0.34257063045536934,-0.34257063045536934
-0.3465426758478833,-0.3465426758478833
-0.3515077325885257,-0.3515077325885257
-0.35349375528478266,-0.35349375528478266
-0.35349375528478266,-0.35349375528478266
-0.34852869854414026,-0.34852869854414026
-0.3415776191072409,-0.3415776191072409
-0.33363352832221305,-0.33363352832221305
-0.32767546023344213,-0.32767546023344213
-0.3246964261890567,-0.3246964261890567
-0.32767546023344213,-0.32767546023344213
-0.3316475056259561,-0.3316475056259561
-0.33561955101847,-0.33561955101847
-0.3366125623665985,-0.3366125623665985
-0.33561955101847,-0.33561955101847
-0.33264051697408453,-0.33264051697408453
-0.3316475056259561,-0.3316475056259561
-0.3316475056259561,-0.3316475056259561
-0.33363352832221305,-0.33363352832221305
-0.33363352832221305,-0.33363352832221305
-0.33363352832221305,-0.33363352832221305
-0.3316475056259561,-0.3316475056259561
-0.3316475056259561,-0.3316475056259561
-0.3346265396703415,-0.3346265396703415
-0.34356364180349785,-0.34356364180349785
-0.3574658006772966,-0.3574658006772966
-0.3743469935954808,-0.3743469935954808
-0.3902351751655365,-0.3902351751655365
-0.40513034538746373,-0.40513034538746373
-0.41307443617249157,-0.41307443617249157
-0.4190325042612625,-0.4190325042612625
-0.4170464815650055,-0.4170464815650055
-0.41307443617249157,-0.41307443617249157
-0.40314432269120676,-0.40314432269120676
-0.39321420920992195,-0.39321420920992195
-0.3773260276398662,-0.3773260276398662
-0.36342386876606747,-0.36342386876606747
-0.3495217098922687,-0.3495217098922687
-0.34356364180349785,-0.34356364180349785
-0.34356364180349785,-0.34356364180349785
-0.3544867666329111,-0.3544867666329111
-0.37136795955109536,-0.37136795955109536
-0.39321420920992195,-0.39321420920992195
-0.41307443617249157,-0.41307443617249157
-0.43293466313506124,-0.43293466313506124
-0.44782983335698845,-0.44782983335698845
-0.46471102627517263,-0.46471102627517263
-0.4786131851489714,-0.4786131851489714
-0.4935083553708986,-0.4935083553708986
-0.5024454575040549,-0.5024454575040549
-0.5084035255928259,-0.5084035255928259
-0.5074105142446974,-0.5074105142446974
-0.5044314802003119,-0.5044314802003119
-0.5014524461559264,-0.5014524461559264
-0.4994664234596695,-0.4994664234596695
-0.49748040076341254,-0.49748040076341254
-0.4935083553708986,-0.4935083553708986
-0.4865572759339992,-0.4865572759339992
-0.4786131851489714,-0.4786131851489714
-0.471662105712072,-0.471662105712072
-0.471662105712072,-0.471662105712072
-0.48059920784522836,-0.48059920784522836
-0.498473412111541,-0.498473412111541
-0.5223056844666246,-0.5223056844666246
-0.5491169908660936,-0.5491169908660936
-0.5739422745693057,-0.5739422745693057
-0.5957885242281322,-0.5957885242281322
-0.6086976717538025,-0.6086976717538025
-0.6186277852350873,-0.6186277852350873
-0.6206138079313442,-0.6206138079313442
-0.6225998306276013,-0.6225998306276013
-0.6225998306276013,-0.6225998306276013
-0.6265718760201152,-0.6265718760201152
-0.6295509100645006,-0.6295509100645006
-0.6365019895014,-0.6365019895014
-0.6384880121976569,-0.6384880121976569
-0.640474034893914,-0.640474034893914
-0.6365019895014,-0.6365019895014
-0.6355089781532716,-0.6355089781532716
-0.6295509100645006,-0.6295509100645006
-0.6305439214126292,-0.6305439214126292
-0.6305439214126292,-0.6305439214126292
-0.634515966805143,-0.634515966805143
-0.6394810235457854,-0.6394810235457854
-0.6454390916345564,-0.6454390916345564
-0.6504041483751988,-0.6504041483751988
-0.6553692051158412,-0.6553692051158412
-0.6603342618564836,-0.6603342618564836
-0.6662923299452544,-0.6662923299452544
-0.6722503980340253,-0.6722503980340253
-0.6792014774709247,-0.6792014774709247
-0.6831735228634387,-0.6831735228634387
-0.6851595455596956,-0.6851595455596956
-0.6841665342115671,-0.6841665342115671
-0.6841665342115671,-0.6841665342115671
-0.6851595455596956,-0.6851595455596956
-0.6871455682559525,-0.6871455682559525
-0.6811875001671817,-0.6811875001671817
-0.6513971597233272,-0.6513971597233272
-0.5779143199618195,-0.5779143199618195
-0.4508088674013739,-0.4508088674013739
-0.27206682473824717,-0.27206682473824717
-0.06452745297939444,-0.06452745297939444
0.1360608393425589,0.1360608393425589
0.28600555290995966,0.28600555290995966
0.3594883926714673,0.3594883926714673
0.3386351543607692,0.3386351543607692
0.23734799685166405,0.23734799685166405
0.0754871471067215,0.0754871471067215
-0.11219199768956158,-0.11219199768956158
-0.29887813113771616,-0.29887813113771616
-0.4567669354901448,-0.4567669354901448
-0.5799003426580766,-0.5799003426580766
-0.6603342618564836,-0.6603342618564836
-0.7129638633072931,-0.7129638633072931
-0.7397751697067622,-0.7397751697067622
-0.7596353966693318,-0.7596353966693318
-0.7685724988024881,-0.7685724988024881
-0.7804886349800298,-0.7804886349800298
-0.7854536917206723,-0.7854536917206723
-0.7943907938538286,-0.7943907938538286
-0.7983628392463425,-0.7983628392463425
-0.8053139186832419,-0.8053139186832419
-0.8092859640757558,-0.8092859640757558
-0.8122649981201413,-0.8122649981201413
-0.8102789754238843,-0.8102789754238843
-0.803327895986985,-0.803327895986985
-0.7933977825057001,-0.7933977825057001
-0.7814816463281583,-0.7814816463281583
-0.7715515328468735,-0.7715515328468735
-0.7675794874543596,-0.7675794874543596
-0.7675794874543596,-0.7675794874543596
-0.770558521498745,-0.770558521498745
-0.7735375555431305,-0.7735375555431305
-0.774530566891259,-0.774530566891259
-0.7695655101506166,-0.7695655101506166
-0.7626144307137172,-0.7626144307137172
-0.7526843172324323,-0.7526843172324323
-0.743747215099276,-0.743747215099276
-0.7367961356623767,-0.7367961356623767
-0.7358031243142482,-0.7358031243142482
-0.7377891470105051,-0.7377891470105051
-0.7427542037511475,-0.7427542037511475
-0.7467262491436615,-0.7467262491436615
-0.749705283188047,-0.749705283188047
-0.7487122718399184,-0.7487122718399184
-0.7487122718399184,-0.7487122718399184
-0.7467262491436615,-0.7467262491436615
-0.7487122718399184,-0.7487122718399184
-0.7516913058843039,-0.7516913058843039
-0.7576493739730747,-0.7576493739730747
-0.7626144307137172,-0.7626144307137172
-0.7695655101506166,-0.7695655101506166
-0.7735375555431305,-0.7735375555431305
-0.7785026122837729,-0.7785026122837729
-0.7804886349800298,-0.7804886349800298
-0.7854536917206723,-0.7854536917206723
-0.7854536917206723,-0.7854536917206723
-0.7854536917206723,-0.7854536917206723
-0.7765165895875159,-0.7765165895875159
-0.7675794874543596,-0.7675794874543596
-0.7516913058843039,-0.7516913058843039
-0.7377891470105051,-0.7377891470105051
-0.720907954092321,-0.720907954092321
-0.7109778406110362,-0.7109778406110362
-0.6970756817372374,-0.6970756817372374
-0.6881385796040811,-0.6881385796040811
-0.6742364207302823,-0.6742364207302823
-0.6643063072489975,-0.6643063072489975
-0.6513971597233272,-0.6513971597233272
-0.6414670462420424,-0.6414670462420424
-0.6305439214126292,-0.6305439214126292
-0.6206138079313442,-0.6206138079313442
-0.6077046604056741,-0.6077046604056741
-0.5957885242281322,-0.5957885242281322
-0.5818863653543335,-0.5818863653543335
-0.5709632405249202,-0.5709632405249202
-0.5580540929992499,-0.5580540929992499
-0.5481239795179651,-0.5481239795179651
-0.5372008546885518,-0.5372008546885518
-0.527270741207267,-0.527270741207267
-0.5183336390741107,-0.5183336390741107
-0.5113825596372112,-0.5113825596372112
-0.5064175028965688,-0.5064175028965688
-0.5024454575040549,-0.5024454575040549
-0.4994664234596695,-0.4994664234596695
-0.49748040076341254,-0.49748040076341254
-0.49549437806715557,-0.49549437806715557
-0.49549437806715557,-0.49549437806715557
-0.49648738941528403,-0.49648738941528403
-0.498473412111541,-0.498473412111541
-0.500459434807798,-0.500459434807798
-0.5024454575040549,-0.5024454575040549
-0.5014524461559264,-0.5014524461559264
-0.5014524461559264,-0.5014524461559264
-0.4994664234596695,-0.4994664234596695
-0.500459434807798,-0.500459434807798
-0.4994664234596695,-0.4994664234596695
-0.5024454575040549,-0.5024454575040549
-0.5024454575040549,-0.5024454575040549
-0.5044314802003119,-0.5044314802003119
-0.5014524461559264,-0.5014524461559264
-0.4994664234596695,-0.4994664234596695
-0.49251534402277014,-0.49251534402277014
-0.4885432986302562,-0.4885432986302562
-0.4815922191933568,-0.4815922191933568
-0.47960619649709985,-0.47960619649709985
-0.4766271624527144,-0.4766271624527144
-0.4776201738008429,-0.4776201738008429
-0.4776201738008429,-0.4776201738008429
-0.47960619649709985,-0.47960619649709985
-0.48059920784522836,-0.48059920784522836
-0.48556426458587076,-0.48556426458587076
-0.4895363099783847,-0.4895363099783847
-0.49549437806715557,-0.49549437806715557
-0.500459434807798,-0.500459434807798
-0.5074105142446974,-0.5074105142446974
-0.5113825596372112,-0.5113825596372112
-0.5163476163778536,-0.5163476163778536
-0.5203196617703676,-0.5203196617703676
-0.52528471851101,-0.52528471851101
-0.5302497752516524,-0.5302497752516524
-0.5381938660366803,-0.5381938660366803
-0.5471309681698366,-0.5471309681698366
-0.5580540929992499,-0.5580540929992499
-0.5669911951324063,-0.5669911951324063
-0.5749352859174341,-0.5749352859174341
-0.5789073313099481,-0.5789073313099481
-0.5799003426580766,-0.5799003426580766
-0.5769213086136911,-0.5769213086136911
-0.5759282972655626,-0.5759282972655626
-0.5739422745693057,-0.5739422745693057
-0.5749352859174341,-0.5749352859174341
-0.5749352859174341,-0.5749352859174341
-0.5769213086136911,-0.5769213086136911
-0.5769213086136911,-0.5769213086136911
-0.5769213086136911,-0.5769213086136911
-0.5739422745693057,-0.5739422745693057
-0.5729492632211771,-0.5729492632211771
-0.5689772178286633,-0.5689772178286633
-0.5689772178286633,-0.5689772178286633
-0.5659981837842778,-0.5659981837842778
-0.5669911951324063,-0.5669911951324063
-0.5650051724361493,-0.5650051724361493
-0.5669911951324063,-0.5669911951324063
-0.5640121610880208,-0.5640121610880208
-0.5669911951324063,-0.5669911951324063
-0.5679842064805347,-0.5679842064805347
-0.5749352859174341,-0.5749352859174341
-0.5818863653543335,-0.5818863653543335
-0.5938025015318753,-0.5938025015318753
-0.6017465923169031,-0.6017465923169031
-0.6106836944500594,-0.6106836944500594
-0.6106836944500594,-0.6106836944500594
-0.6067116490575456,-0.6067116490575456
-0.5938025015318753,-0.5938025015318753
-0.5779143199618195,-0.5779143199618195
-0.5550750589548645,-0.5550750589548645
-0.5342218206441663,-0.5342218206441663
-0.5143615936815967,-0.5143615936815967
-0.4994664234596695,-0.4994664234596695
-0.48755028728212774,-0.48755028728212774
-0.48059920784522836,-0.48059920784522836
-0.4766271624527144,-0.4766271624527144
-0.47265511706020047,-0.47265511706020047
-0.4657040376233011,-0.4657040376233011
-0.4547809127938878,-0.4547809127938878
-0.4388927312238321,-0.4388927312238321
-0.4190325042612625,-0.4190325042612625
-0.3971862546024359,-0.3971862546024359
-0.37831903898799474,-0.37831903898799474
-0.362430857417939,-0.362430857417939
-0.35349375528478266,-0.35349375528478266
-0.34852869854414026,-0.34852869854414026
-0.35051472124039723,-0.35051472124039723
-0.35349375528478266,-0.35349375528478266
-0.3614378460698105,-0.3614378460698105
-0.37037494820296685,-0.37037494820296685
-0.3842771070767656,-0.3842771070767656
-0.3991722772986928,-0.3991722772986928
-0.42101852695751946,-0.42101852695751946
-0.44286477661634605,-0.44286477661634605
-0.4686830716676866,-0.4686830716676866
-0.4895363099783847,-0.4895363099783847
-0.5084035255928259,-0.5084035255928259
-0.5183336390741107,-0.5183336390741107
-0.5242917071628815,-0.5242917071628815
-0.5203196617703676,-0.5203196617703676
-0.5153546050297252,-0.5153546050297252
-0.5044314802003119,-0.5044314802003119
-0.4935083553708986,-0.4935083553708986
-0.48059920784522836,-0.48059920784522836
-0.47265511706020047,-0.47265511706020047
-0.4666970489714296,-0.4666970489714296
-0.4686830716676866,-0.4686830716676866
-0.47464113975645744,-0.47464113975645744
-0.4865572759339992,-0.4865572759339992
-0.49748040076341254,-0.49748040076341254
-0.5064175028965688,-0.5064175028965688
-0.5064175028965688,-0.5064175028965688
-0.498473412111541,-0.498473412111541
-0.48258523054148533,-0.48258523054148533
-0.4607389808826587,-0.4607389808826587
-0.43591369717944667,-0.43591369717944667
-0.4120814248243631,-0.4120814248243631
-0.39321420920992195,-0.39321420920992195
-0.38030506168425166,-0.38030506168425166
-0.3723609708992238,-0.3723609708992238
-0.3683889255067099,-0.3683889255067099
-0.36540989146232444,-0.36540989146232444
-0.362430857417939,-0.362430857417939
-0.3564727893291681,-0.3564727893291681
-0.3495217098922687,-0.3495217098922687
-0.33859858506285545,-0.33859858506285545
-0.32866847158157064,-0.32866847158157064
-0.3177453467521573,-0.3177453467521573
-0.31079426731525794,-0.31079426731525794
-0.3048361992264871,-0.3048361992264871
-0.3018571651821016,-0.3018571651821016
-0.3018571651821016,-0.3018571651821016
-0.2998711424858446,-0.2998711424858446
-0.29887813113771616,-0.29887813113771616
-0.29391307439707376,-0.29391307439707376
-0.2869619949601744,-0.2869619949601744
-0.27603887013076106,-0.27603887013076106
-0.2631297226050908,-0.2631297226050908
-0.25121358642754904,-0.25121358642754904
-0.24029046159813575,-0.24029046159813575
-0.23333938216123637,-0.23333938216123637
-0.22837432542059394,-0.22837432542059394
-0.2303603481168509,-0.2303603481168509
-0.2373114275537503,-0.2373114275537503
-0.25121358642754904,-0.25121358642754904
-0.2631297226050908,-0.2631297226050908
-0.2641227339532193,-0.2641227339532193
-0.2303603481168509,-0.2303603481168509
-0.14595438352592996,-0.14595438352592996
-0.0029607493954285718,-0.0029607493954285718
0.18968345214149693,0.18968345214149693
0.406159926033506,0.406159926033506
0.6047621956592023,0.6047621956592023
0.7497418524859607,0.7497418524859607
0.8142875901143121,0.8142875901143121
0.7924413404554854,0.7924413404554854
0.6951262283388941,0.6951262283388941
0.5461745261196219,0.5461745261196219
0.3723975401971376,0.3723975401971376
0.2025925996671672,0.2025925996671672
0.057612942840408826,0.057612942840408826
-0.0506252941055957,-0.0506252941055957
-0.11914307712646094,-0.11914307712646094
-0.15389847431095782,-0.15389847431095782
-0.16680762183662806,-0.16680762183662806
-0.16879364453288503,-0.16879364453288503
-0.16879364453288503,-0.16879364453288503
-0.16978665588101352,-0.16978665588101352
-0.170779667229142,-0.170779667229142
-0.170779667229142,-0.170779667229142
-0.16978665588101352,-0.16978665588101352
-0.16780063318475655,-0.16780063318475655
-0.1658146104884996,-0.1658146104884996
-0.1658146104884996,-0.1658146104884996
-0.16382858779224263,-0.16382858779224263
-0.16283557644411414,-0.16283557644411414
-0.15886353105160023,-0.15886353105160023
-0.15389847431095782,-0.15389847431095782
-0.14694739487405845,-0.14694739487405845
-0.14198233813341601,-0.14198233813341601
-0.13900330408903058,-0.13900330408903058
-0.1380102927409021,-0.1380102927409021
-0.14098932678528756,-0.14098932678528756
-0.143968360829673,-0.143968360829673
-0.15091944026657236,-0.15091944026657236
-0.15588449700721477,-0.15588449700721477
-0.16184256509598566,-0.16184256509598566
-0.16780063318475655,-0.16780063318475655
-0.17375870127352744,-0.17375870127352744
-0.17872375801416987,-0.17872375801416987
-0.18368881475481227,-0.18368881475481227
-0.18865387149545468,-0.18865387149545468
-0.19560495093235405,-0.19560495093235405
-0.20454205306551038,-0.20454205306551038
-0.2154651778949237,-0.2154651778949237
-0.22738131407246548,-0.22738131407246548
-0.23830443890187877,-0.23830443890187877
-0.24624852968690664,-0.24624852968690664
-0.25121358642754904,-0.25121358642754904
-0.25419262047193447,-0.25419262047193447
-0.2571716545163199,-0.2571716545163199
-0.2601506885607054,-0.2601506885607054
-0.2641227339532193,-0.2641227339532193
-0.2680947793457332,-0.2680947793457332
-0.27305983608637563,-0.27305983608637563
-0.2770318814788896,-0.2770318814788896
-0.28100392687140346,-0.28100392687140346
-0.2859689836120459,-0.2859689836120459
-0.28894801765643136,-0.28894801765643136
-0.2899410290045598,-0.2899410290045598
-0.2869619949601744,-0.2869619949601744
-0.280010915523275,-0.280010915523275
-0.2690877906938617,-0.2690877906938617
-0.25419262047193447,-0.25419262047193447
-0.23830443890187877,-0.23830443890187877
-0.2204302346355661,-0.2204302346355661
-0.20255603036925343,-0.20255603036925343
-0.1826958034066838,-0.1826958034066838
-0.16283557644411414,-0.16283557644411414
-0.1429753494815445,-0.1429753494815445
-0.12609415656336032,-0.12609415656336032
-0.11219199768956158,-0.11219199768956158
-0.10424790690453371,-0.10424790690453371
-0.09828983881576282,-0.09828983881576282
-0.09531080477137738,-0.09531080477137738
-0.09034574803073497,-0.09034574803073497
-0.08438767994196408,-0.08438767994196408
-0.07346455511255078,-0.07346455511255078
-0.061548418935009,-0.061548418935009
-0.047646260061210255,-0.047646260061210255
-0.03771614657992544,-0.03771614657992544
-0.029772055794897584,-0.029772055794897584
-0.027786033098640618,-0.027786033098640618
-0.029772055794897584,-0.029772055794897584
-0.035730123883668474,-0.035730123883668474
-0.042681203320567844,-0.042681203320567844
-0.0506252941055957,-0.0506252941055957
-0.058569384890623556,-0.058569384890623556
-0.0665134756756514,-0.0665134756756514
-0.07445756646067926,-0.07445756646067926
-0.08240165724570711,-0.08240165724570711
-0.08935273668260649,-0.08935273668260649
-0.09531080477137738,-0.09531080477137738
-0.10126887286014827,-0.10126887286014827
-0.10623392960079069,-0.10623392960079069
-0.11119898634143309,-0.11119898634143309
-0.11715705443020398,-0.11715705443020398
-0.12311512251897487,-0.12311512251897487
-0.1320522246521312,-0.1320522246521312
-0.143968360829673,-0.143968360829673
-0.1598565423997287,-0.1598565423997287
-0.17872375801416987,-0.17872375801416987
-0.197590973628611,-0.197590973628611
-0.2144721665467952,-0.2144721665467952
-0.226388302724337,-0.226388302724337
-0.23433239350936483,-0.23433239350936483
-0.23929745025000726,-0.23929745025000726
-0.24326949564252118,-0.24326949564252118
-0.24922756373129207,-0.24922756373129207
-0.25617864316819144,-0.25617864316819144
-0.2651157453013478,-0.2651157453013478
-0.27206682473824717,-0.27206682473824717
-0.27901790417514655,-0.27901790417514655
-0.28100392687140346,-0.28100392687140346
-0.281996938219532,-0.281996938219532
-0.27901790417514655,-0.27901790417514655
-0.27405284743450414,-0.27405284743450414
-0.26610875664947625,-0.26610875664947625
-0.2581646658644484,-0.2581646658644484
-0.24922756373129207,-0.24922756373129207
-0.2412834729462642,-0.2412834729462642
-0.2313533594649794,-0.2313533594649794
-0.22340926867995153,-0.22340926867995153
-0.21645818924305216,-0.21645818924305216
-0.21050012115428127,-0.21050012115428127
-0.2035490417173819,-0.2035490417173819
-0.197590973628611,-0.197590973628611
-0.19063989419171165,-0.19063989419171165
-0.1826958034066838,-0.1826958034066838
-0.17475171262165592,-0.17475171262165592
-0.16879364453288503,-0.16879364453288503
-0.16382858779224263,-0.16382858779224263
-0.16084955374785717,-0.16084955374785717
-0.15886353105160023,-0.15886353105160023
-0.15687750835534325,-0.15687750835534325
-0.15091944026657236,-0.15091944026657236
-0.1429753494815445,-0.1429753494815445
-0.1330452360002597,-0.1330452360002597
-0.12410813386710336,-0.12410813386710336
-0.12013608847458943,-0.12013608847458943
-0.12013608847458943,-0.12013608847458943
-0.12410813386710336,-0.12410813386710336
-0.1280801792596173,-0.1280801792596173
-0.1280801792596173,-0.1280801792596173
-0.12410813386710336,-0.12410813386710336
-0.1161640430820755,-0.1161640430820755
-0.10623392960079069,-0.10623392960079069
-0.09828983881576282,-0.09828983881576282
-0.09233177072699193,-0.09233177072699193
-0.08736671398634953,-0.08736671398634953
-0.08538069129009256,-0.08538069129009256
-0.08240165724570711,-0.08240165724570711
-0.08041563454945015,-0.08041563454945015
-0.0774366005050647,-0.0774366005050647
-0.0774366005050647,-0.0774366005050647
-0.07644358915693622,-0.07644358915693622
-0.07644358915693622,-0.07644358915693622
-0.07445756646067926,-0.07445756646067926
-0.07147853241629382,-0.07147853241629382
-0.06552046432752293,-0.06552046432752293
-0.059562396238752036,-0.059562396238752036
-0.05459733949810963,-0.05459733949810963
-0.0506252941055957,-0.0506252941055957
-0.046653248713081776,-0.046653248713081776
-0.04566023736495329,-0.04566023736495329
-0.04466722601682481,-0.04466722601682481
-0.04466722601682481,-0.04466722601682481
-0.04367421466869633,-0.04367421466869633
-0.042681203320567844,-0.042681203320567844
-0.03870915792805392,-0.03870915792805392
-0.03175807849115454,-0.03175807849115454
-0.018848930965484283,-0.018848930965484283
-0.0019677380473000898,-0.0019677380473000898
0.01789248891526955,0.01789248891526955
0.03973873857409615,0.03973873857409615
0.059598965536665785,0.059598965536665785
0.07747316980297847,0.07747316980297847
0.09137532867677721,0.09137532867677721
0.10031243080993354,0.10031243080993354
0.10527748755057596,0.10527748755057596
0.10627049889870444,0.10627049889870444
0.10229845350619052,0.10229845350619052
0.09534737406929114,0.09534737406929114
0.0864102719361348,0.0864102719361348
0.07648015845484998,0.07648015845484998
0.06853606766982213,0.06853606766982213
0.06059197688479427,0.06059197688479427
0.054633908796023374,0.054633908796023374
0.048675840707252484,0.048675840707252484
0.04569680666286704,0.04569680666286704
0.04470379531473856,0.04470379531473856
0.048675840707252484,0.048675840707252484
0.05661993149228034,0.05661993149228034
0.06754305632169365,0.06754305632169365
0.0814452151954924,0.0814452151954924
0.09634038541741963,0.09634038541741963
0.11222856698747534,0.11222856698747534
0.1251377145131456,0.1251377145131456
0.13109578260191648,0.13109578260191648
0.130102771253788,0.130102771253788
0.12116566912063167,0.12116566912063167
0.10726351024683292,0.10726351024683292
0.0923683400249057,0.0923683400249057
0.08045220384736392,0.08045220384736392
0.07449413575859302,0.07449413575859302
0.07350112441046454,0.07350112441046454
0.0754871471067215,0.0754871471067215
0.08045220384736392,0.08045220384736392
0.0864102719361348,0.0864102719361348
0.09137532867677721,0.09137532867677721
0.09634038541741963,0.09634038541741963
0.10130544215806203,0.10130544215806203
0.10527748755057596,0.10527748755057596
0.10924953294308988,0.10924953294308988
0.1142145896837323,0.1142145896837323
0.12017265777250319,0.12017265777250319
0.1251377145131456,0.1251377145131456
0.12910975990565954,0.12910975990565954
0.13109578260191648,0.13109578260191648
0.130102771253788,0.130102771253788
0.13109578260191648,0.13109578260191648
0.12811674855753105,0.12811674855753105
0.12712373720940257,0.12712373720940257
0.1251377145131456,0.1251377145131456
0.1251377145131456,0.1251377145131456
0.12414470316501712,0.12414470316501712
0.12613072586127408,0.12613072586127408
0.130102771253788,0.130102771253788
0.13506782799443043,0.13506782799443043
0.14003288473507283,0.14003288473507283
0.14201890743132978,0.14201890743132978
0.13903987338694435,0.13903987338694435
0.13208879395004497,0.13208879395004497
0.12315169181688863,0.12315169181688863
0.12116566912063167,0.12116566912063167
0.14003288473507283,0.14003288473507283
0.19762754292652476,0.19762754292652476
0.30785180256878625,0.30785180256878625
0.47269168635811426,0.47269168635811426
0.6802310581169669,0.6802310581169669
0.8986935547052329,0.8986935547052329
1.0903447448940298,1.0903447448940298
1.218443208802604,1.218443208802604
1.2611426967721286,1.2611426967721286
1.2134781520619615,1.2134781520619615
1.0873657108496444,1.0873657108496444
0.9066376454902608,0.9066376454902608
0.7020773077757936,0.7020773077757936
0.5064540721944827,0.5064540721944827
0.3436002111014116,0.3436002111014116
0.2294039060666362,0.2294039060666362
0.16187913439389942,0.16187913439389942
0.13109578260191648,0.13109578260191648
0.1191796464243747,0.1191796464243747
0.11222856698747534,0.11222856698747534
0.10527748755057596,0.10527748755057596
0.0973333967655481,0.0973333967655481
0.09336135137303418,0.09336135137303418
0.09435436272116265,0.09435436272116265
0.10130544215806203,0.10130544215806203
0.10825652159496141,0.10825652159496141
0.11520760103186078,0.11520760103186078
0.12017265777250319,0.12017265777250319
0.12414470316501712,0.12414470316501712
0.13109578260191648,0.13109578260191648
0.13903987338694435,0.13903987338694435
0.15095600956448613,0.15095600956448613
0.16088612304577093,0.16088612304577093
0.17081623652705577,0.17081623652705577
0.17776731596395515,0.17776731596395515
0.18273237270459755,0.18273237270459755
0.18571140674898298,0.18571140674898298
0.18869044079336844,0.18869044079336844
0.19266248618588236,0.19266248618588236
0.1966345315783963,0.1966345315783963
0.20060657697091022,0.20060657697091022
0.2025925996671672,0.2025925996671672
0.2015995883190387,0.2015995883190387
0.19862055427465325,0.19862055427465325
0.19464850888213933,0.19464850888213933
0.19067646348962541,0.19067646348962541
0.18670441809711147,0.18670441809711147
0.18372538405272604,0.18372538405272604
0.18074635000834058,0.18074635000834058
0.17776731596395515,0.17776731596395515
0.1737952705714412,0.1737952705714412
0.1688302138307988,0.1688302138307988
0.1638651570901564,0.1638651570901564
0.158900100349514,0.158900100349514
0.15492805495700004,0.15492805495700004
0.1519490209126146,0.1519490209126146
0.14797697552010067,0.14797697552010067
0.14400493012758675,0.14400493012758675
0.14003288473507283,0.14003288473507283
0.13804686203881586,0.13804686203881586
0.14003288473507283,0.14003288473507283
0.1469839641719722,0.1469839641719722
0.15691407765325702,0.15691407765325702
0.16982322517892728,0.16982322517892728
0.18074635000834058,0.18074635000834058
0.19166947483775387,0.19166947483775387
0.2015995883190387,0.2015995883190387
0.21152970180032352,0.21152970180032352
0.2234458379778653,0.2234458379778653
0.23635498550353556,0.23635498550353556
0.2512501557254628,0.2512501557254628
0.26813134864364696,0.26813134864364696
0.2850125415618312,0.2850125415618312
0.3048727685244008,0.3048727685244008
0.32473299548697043,0.32473299548697043
0.3436002111014116,0.3436002111014116
0.3594883926714673,0.3594883926714673
0.3723975401971376,0.3723975401971376
0.3813346423302939,0.3813346423302939
0.3882857217671933,0.3882857217671933
0.3922577671597072,0.3922577671597072
0.3982158352484781,0.3982158352484781
0.40218788064099203,0.40218788064099203
0.40715293738163444,0.40715293738163444
0.4091389600778914,0.4091389600778914
0.41311100547040536,0.41311100547040536
0.41509702816666233,0.41509702816666233
0.4190690735591762,0.4190690735591762
0.4210550962554332,0.4210550962554332
0.4240341302998186,0.4240341302998186
0.42800617569233257,0.42800617569233257
0.4339642437811035,0.4339642437811035
0.4409153232180028,0.4409153232180028
0.4488594140030307,0.4488594140030307
0.4528314593955446,0.4528314593955446
0.45183844804741613,0.45183844804741613
0.44488736861051675,0.44488736861051675
0.43495725512923195,0.43495725512923195
0.42502714164794714,0.42502714164794714
0.4210550962554332,0.4210550962554332
0.4210550962554332,0.4210550962554332
0.428999187040461,0.428999187040461
0.4379362891736174,0.4379362891736174
0.4468733913067737,0.4468733913067737
0.44985242535115916,0.44985242535115916
0.4468733913067737,0.4468733913067737
0.4379362891736174,0.4379362891736174
0.4240341302998186,0.4240341302998186
0.40715293738163444,0.40715293738163444
0.3912647558115787,0.3912647558115787
0.37736259693778,0.37736259693778
0.36743248345649515,0.36743248345649515
0.3614744153677243,0.3614744153677243
0.35849538132333886,0.35849538132333886
0.35551634727895337,0.35551634727895337
0.3545233359308249,0.3545233359308249
0.35055129053831097,0.35055129053831097
0.3445932224495401,0.3445932224495401
0.3346631089682553,0.3346631089682553
0.32473299548697043,0.32473299548697043
0.3148028820056856,0.3148028820056856
0.30785180256878625,0.30785180256878625
0.30288674582814384,0.30288674582814384
0.30387975717627236,0.30387975717627236
0.3048727685244008,0.3048727685244008
0.3098378252650432,0.3098378252650432
0.3118238479613002,0.3118238479613002
0.3148028820056856,0.3148028820056856
0.31380987065755717,0.31380987065755717
0.3148028820056856,0.3148028820056856
0.3148028820056856,0.3148028820056856
0.31877492739819957,0.31877492739819957
0.321753961442585,0.321753961442585
0.3267190181832274,0.3267190181832274
0.32969805222761284,0.32969805222761284
0.3326770862719983,0.3326770862719983
0.3346631089682553,0.3346631089682553
0.3386351543607692,0.3386351543607692
0.34260719975328313,0.34260719975328313
0.348565267842054,0.348565267842054
0.35253731323456794,0.35253731323456794
0.3545233359308249,0.3545233359308249
0.35253731323456794,0.35253731323456794
0.348565267842054,0.348565267842054
0.3436002111014116,0.3436002111014116
0.34260719975328313,0.34260719975328313
0.3436002111014116,0.3436002111014116
0.3495582791901825,0.3495582791901825
0.35750236997521034,0.35750236997521034
0.36544646076023823,0.36544646076023823
0.3714045288490091,0.3714045288490091
0.37537657424152304,0.37537657424152304
0.37736259693778,0.37736259693778
0.38034163098216545,0.38034163098216545
0.3823276536784224,0.3823276536784224
0.38530668772280785,0.38530668772280785
0.3872927104190648,0.3872927104190648
0.3872927104190648,0.3872927104190648
0.38530668772280785,0.38530668772280785
0.3813346423302939,0.3813346423302939
0.3763695855896515,0.3763695855896515
0.3723975401971376,0.3723975401971376
0.3664394721083667,0.3664394721083667
0.3644534494121097,0.3644534494121097
0.3614744153677243,0.3614744153677243
0.36246742671585275,0.36246742671585275
0.3644534494121097,0.3644534494121097
0.36743248345649515,0.36743248345649515
0.3694185061527521,0.3694185061527521
0.37339055154526607,0.37339055154526607
0.37438356289339453,0.37438356289339453
0.37934861963403693,0.37934861963403693
0.3833206650265509,0.3833206650265509
0.3912647558115787,0.3912647558115787
0.3992088465966066,0.3992088465966066
0.41013197142601987,0.41013197142601987
0.4190690735591762,0.4190690735591762
0.428999187040461,0.428999187040461
0.4359502664773604,0.4359502664773604
0.4438943572623883,0.4438943572623883
0.4468733913067737,0.4468733913067737
0.4468733913067737,0.4468733913067737
0.4409153232180028,0.4409153232180028
0.430985209736718,0.430985209736718
0.41807606221104776,0.41807606221104776
0.40715293738163444,0.40715293738163444
0.3962298125522212,0.3962298125522212
0.3882857217671933,0.3882857217671933
0.37934861963403693,0.37934861963403693
0.3694185061527521,0.3694185061527521
0.35849538132333886,0.35849538132333886
0.3495582791901825,0.3495582791901825
0.3445932224495401,0.3445932224495401
0.34558623379766856,0.34558623379766856
0.3515443018864395,0.3515443018864395
0.3614744153677243,0.3614744153677243
0.37339055154526607,0.37339055154526607
0.3872927104190648,0.3872927104190648
0.40020185794473506,0.40020185794473506
0.41013197142601987,0.41013197142601987
0.41509702816666233,0.41509702816666233
0.41311100547040536,0.41311100547040536
0.40218788064099203,0.40218788064099203
0.3862996990709363,0.3862996990709363
0.36544646076023823,0.36544646076023823
0.34558623379766856,0.34558623379766856
0.32473299548697043,0.32473299548697043
0.3068587912206578,0.3068587912206578
0.2899775983024736,0.2899775983024736
0.2770684507768033,0.2770684507768033
0.2671383372955185,0.2671383372955185
0.26316629190300456,0.26316629190300456
0.26316629190300456,0.26316629190300456
0.2691243599917755,0.2691243599917755
0.27607543942867485,0.27607543942867485
0.2840195302137027,0.2840195302137027
0.28799157560621663,0.28799157560621663
0.2869985642580881,0.2869985642580881
0.2780614621249318,0.2780614621249318
0.26415930325113307,0.26415930325113307
0.24429907628856343,0.24429907628856343
0.22642487202225076,0.22642487202225076
0.2075576564078096,0.2075576564078096
0.19365549753401085,0.19365549753401085
0.1797533386602121,0.1797533386602121
0.1688302138307988,0.1688302138307988
0.15691407765325702,0.15691407765325702
0.1469839641719722,0.1469839641719722
0.14102589608320132,0.14102589608320132
0.13705385069068737,0.13705385069068737
0.13506782799443043,0.13506782799443043
0.12811674855753105,0.12811674855753105
0.11520760103186078,0.11520760103186078
0.0923683400249057,0.0923683400249057
0.06555703362543669,0.06555703362543669
0.046689818010995525,0.046689818010995525
0.054633908796023374,0.054633908796023374
0.10726351024683292,0.10726351024683292
0.22046680393347987,0.22046680393347987
0.3882857217671933,0.3882857217671933
0.593839070829789,0.593839070829789
0.7983994085442563,0.7983994085442563
0.9642323036817128,0.9642323036817128
1.055589347709533,1.055589347709533
1.0565823590576615,1.0565823590576615
0.9662183263779698,0.9662183263779698
0.8043574766330271,0.8043574766330271
0.597811116222303,0.597811116222303
0.3843136763746794,0.3843136763746794
0.18869044079336844,0.18869044079336844
0.03477368183345374,0.03477368183345374
-0.07545057780880775,-0.07545057780880775
-0.14098932678528756,-0.14098932678528756
-0.18070978071042682,-0.18070978071042682
-0.20652807576176735,-0.20652807576176735
-0.23234637081310788,-0.23234637081310788
-0.25617864316819144,-0.25617864316819144
-0.28398296091578895,-0.28398296091578895
-0.3048361992264871,-0.3048361992264871
-0.3237034148409282,-0.3237034148409282
-0.3366125623665985,-0.3366125623665985
-0.3495217098922687,-0.3495217098922687
-0.3614378460698105,-0.3614378460698105
-0.37534000494360925,-0.37534000494360925
-0.391228186513665,-0.391228186513665
-0.4091023907799777,-0.4091023907799777
-0.43789971987570364,-0.43789971987570364
-0.473648128408329,-0.473648128408329
-0.5242917071628815,-0.5242917071628815
-0.580893354006205,-0.580893354006205
-0.640474034893914,-0.640474034893914
-0.692110624996595,-0.692110624996595
-0.7298450562254774,-0.7298450562254774
-0.7516913058843039,-0.7516913058843039
-0.7596353966693318,-0.7596353966693318
-0.7586423853212033,-0.7586423853212033
-0.7546703399286894,-0.7546703399286894
-0.749705283188047,-0.749705283188047
-0.7427542037511475,-0.7427542037511475
-0.7358031243142482,-0.7358031243142482
-0.7248799994848348,-0.7248799994848348
-0.7129638633072931,-0.7129638633072931
-0.7030337498260083,-0.7030337498260083
-0.6980686930853659,-0.6980686930853659
-0.6980686930853659,-0.6980686930853659
-0.7050197725222652,-0.7050197725222652
-0.71494988600355,-0.71494988600355
-0.7288520448773488,-0.7288520448773488
-0.7417611924030191,-0.7417611924030191
-0.7566563626249463,-0.7566563626249463
-0.7655934647581026,-0.7655934647581026
-0.7735375555431305,-0.7735375555431305
-0.774530566891259,-0.774530566891259
-0.7755235782393874,-0.7755235782393874
-0.7715515328468735,-0.7715515328468735
-0.770558521498745,-0.770558521498745
-0.7655934647581026,-0.7655934647581026
-0.7646004534099742,-0.7646004534099742
-0.7576493739730747,-0.7576493739730747
-0.7536773285805609,-0.7536773285805609
-0.743747215099276,-0.743747215099276
-0.7348101129661198,-0.7348101129661198
-0.7199149427441924,-0.7199149427441924
-0.7070057952185222,-0.7070057952185222
-0.690124602300338,-0.690124602300338
-0.6762224434265393,-0.6762224434265393
-0.6593412505083551,-0.6593412505083551
-0.6434530689382993,-0.6434530689382993
-0.6265718760201152,-0.6265718760201152
-0.609690683101931,-0.609690683101931
-0.5908234674874898,-0.5908234674874898
-0.5739422745693057,-0.5739422745693057
-0.556068070302993,-0.556068070302993
-0.5411729000810658,-0.5411729000810658
-0.5282637525553955,-0.5282637525553955
-0.521312673118496,-0.521312673118496
-0.5163476163778536,-0.5163476163778536
-0.5123755709853398,-0.5123755709853398
-0.5054244915484404,-0.5054244915484404
-0.49648738941528403,-0.49648738941528403
-0.48556426458587076,-0.48556426458587076
-0.4766271624527144,-0.4766271624527144
-0.47066909436394355,-0.47066909436394355
-0.471662105712072,-0.471662105712072
-0.473648128408329,-0.473648128408329
-0.4776201738008429,-0.4776201738008429
-0.4786131851489714,-0.4786131851489714
-0.47960619649709985,-0.47960619649709985
-0.47960619649709985,-0.47960619649709985
-0.48059920784522836,-0.48059920784522836
-0.4776201738008429,-0.4776201738008429
-0.473648128408329,-0.473648128408329
-0.46272500357891566,-0.46272500357891566
-0.4537879014457593,-0.4537879014457593
-0.44286477661634605,-0.44286477661634605
-0.4398857425719606,-0.4398857425719606
-0.4369067085275751,-0.4369067085275751
-0.43789971987570364,-0.43789971987570364
-0.43293466313506124,-0.43293466313506124
-0.42796960639441883,-0.42796960639441883
-0.42101852695751946,-0.42101852695751946
-0.42101852695751946,-0.42101852695751946
-0.4239975610019049,-0.4239975610019049
-0.43492068583131815,-0.43492068583131815
-0.4438577879644745,-0.4438577879644745
-0.4518018787495024,-0.4518018787495024
-0.4518018787495024,-0.4518018787495024
-0.4498158560532454,-0.4498158560532454
-0.444850799312603,-0.444850799312603
-0.444850799312603,-0.444850799312603
-0.44782983335698845,-0.44782983335698845
-0.45775994683827326,-0.45775994683827326
-0.4657040376233011,-0.4657040376233011
-0.47265511706020047,-0.47265511706020047
-0.473648128408329,-0.473648128408329
-0.47066909436394355,-0.47066909436394355
-0.4637180149270442,-0.4637180149270442
-0.45775994683827326,-0.45775994683827326
-0.4547809127938878,-0.4547809127938878
-0.4567669354901448,-0.4567669354901448
-0.4607389808826587,-0.4607389808826587
-0.4657040376233011,-0.4657040376233011
-0.46967608301581504,-0.46967608301581504
-0.471662105712072,-0.471662105712072
-0.47066909436394355,-0.47066909436394355
-0.46967608301581504,-0.46967608301581504
-0.46769006031955807,-0.46769006031955807
-0.4686830716676866,-0.4686830716676866
-0.46967608301581504,-0.46967608301581504
-0.47066909436394355,-0.47066909436394355
-0.4686830716676866,-0.4686830716676866
-0.4657040376233011,-0.4657040376233011
-0.45974596953453023,-0.45974596953453023
-0.45279489009763085,-0.45279489009763085
-0.4408787539200891,-0.4408787539200891
-0.4289626177425473,-0.4289626177425473
-0.41506045886874854,-0.41506045886874854
-0.4071163680837207,-0.4071163680837207
-0.4021513113430783,-0.4021513113430783
-0.40513034538746373,-0.40513034538746373
-0.40513034538746373,-0.40513034538746373
-0.4061233567355922,-0.4061233567355922
-0.39817926595056435,-0.39817926595056435
-0.3902351751655365,-0.3902351751655365
-0.38030506168425166,-0.38030506168425166
-0.37534000494360925,-0.37534000494360925
-0.3743469935954808,-0.3743469935954808
-0.38129807303238017,-0.38129807303238017
-0.3902351751655365,-0.3902351751655365
-0.4021513113430783,-0.4021513113430783
-0.41009540212810613,-0.41009540212810613
-0.41506045886874854,-0.41506045886874854
-0.4110884134762346,-0.4110884134762346
-0.40314432269120676,-0.40314432269120676
-0.3902351751655365,-0.3902351751655365
-0.38030506168425166,-0.38030506168425166
-0.3733539822473523,-0.3733539822473523
-0.3733539822473523,-0.3733539822473523
-0.3773260276398662,-0.3773260276398662
-0.38328409572863714,-0.38328409572863714
-0.38824915246927955,-0.38824915246927955
-0.39222119786179344,-0.39222119786179344
-0.39321420920992195,-0.39321420920992195
-0.39222119786179344,-0.39222119786179344
-0.38824915246927955,-0.38824915246927955
-0.38030506168425166,-0.38030506168425166
-0.3673959141585814,-0.3673959141585814
-0.3525007439366542,-0.3525007439366542
-0.33859858506285545,-0.33859858506285545
-0.32866847158157064,-0.32866847158157064
-0.32171739214467127,-0.32171739214467127
-0.3197313694484143,-0.3197313694484143
-0.3177453467521573,-0.3177453467521573
-0.3177453467521573,-0.3177453467521573
-0.3177453467521573,-0.3177453467521573
-0.3227104034927997,-0.3227104034927997
-0.33065449427782756,-0.33065449427782756
-0.3475356871960118,-0.3475356871960118
-0.36540989146232444,-0.36540989146232444
-0.3862631297730226,-0.3862631297730226
-0.4021513113430783,-0.4021513113430783
-0.416053470216877,-0.416053470216877
-0.4220115383056479,-0.4220115383056479
-0.42598358369816186,-0.42598358369816186
-0.42598358369816186,-0.42598358369816186
-0.42796960639441883,-0.42796960639441883
-0.4289626177425473,-0.4289626177425473
-0.43293466313506124,-0.43293466313506124
-0.43293466313506124,-0.43293466313506124
-0.4289626177425473,-0.4289626177425473
-0.41803949291313397,-0.41803949291313397
-0.40513034538746373,-0.40513034538746373
-0.39222119786179344,-0.39222119786179344
-0.38725614112115103,-0.38725614112115103
-0.3902351751655365,-0.3902351751655365
-0.40314432269120676,-0.40314432269120676
-0.41803949291313397,-0.41803949291313397
-0.43094864043880426,-0.43094864043880426
-0.4388927312238321,-0.4388927312238321
-0.4438577879644745,-0.4438577879644745
-0.4458438106607315,-0.4458438106607315
-0.44782983335698845,-0.44782983335698845
-0.4488228447051169,-0.4488228447051169
-0.4498158560532454,-0.4498158560532454
-0.44782983335698845,-0.44782983335698845
-0.44187176526821753,-0.44187176526821753
-0.4339276744831897,-0.4339276744831897
-0.4269765950462903,-0.4269765950462903
-0.42101852695751946,-0.42101852695751946
-0.4190325042612625,-0.4190325042612625
-0.41803949291313397,-0.41803949291313397
-0.4170464815650055,-0.4170464815650055
-0.4120814248243631,-0.4120814248243631
-0.4041373340393352,-0.4041373340393352
-0.3991722772986928,-0.3991722772986928
-0.39817926595056435,-0.39817926595056435
-0.4061233567355922,-0.4061233567355922
-0.41803949291313397,-0.41803949291313397
-0.42995562909067575,-0.42995562909067575
-0.43492068583131815,-0.43492068583131815
-0.4289626177425473,-0.4289626177425473
-0.416053470216877,-0.416053470216877
-0.39817926595056435,-0.39817926595056435
-0.389242163817408,-0.389242163817408
-0.38725614112115103,-0.38725614112115103
-0.4011582999949498,-0.4011582999949498
-0.4220115383056479,-0.4220115383056479
-0.4488228447051169,-0.4488228447051169
-0.4607389808826587,-0.4607389808826587
-0.444850799312603,-0.444850799312603
-0.3773260276398662,-0.3773260276398662
-0.25121358642754904,-0.25121358642754904
-0.06750648702377988,-0.06750648702377988
0.1469839641719722,0.1469839641719722
0.3594883926714673,0.3594883926714673
0.5253212878089238,0.5253212878089238
0.6127062864442302,0.6127062864442302
0.6067482183554593,0.6067482183554593
0.517377197023896,0.517377197023896
0.3664394721083667,0.3664394721083667
0.18769742944523995,0.18769742944523995
0.006969364085856247,0.006969364085856247
-0.15191245161470085,-0.15191245161470085
-0.281996938219532,-0.281996938219532
-0.3773260276398662,-0.3773260276398662
-0.4438577879644745,-0.4438577879644745
-0.48457125323774225,-0.48457125323774225
-0.5064175028965688,-0.5064175028965688
-0.5133685823334683,-0.5133685823334683
-0.5113825596372112,-0.5113825596372112
-0.5044314802003119,-0.5044314802003119
-0.5014524461559264,-0.5014524461559264
-0.5034384688521835,-0.5034384688521835
-0.5143615936815967,-0.5143615936815967
-0.5292567639035239,-0.5292567639035239
-0.5451449454735797,-0.5451449454735797
-0.5550750589548645,-0.5550750589548645
-0.5570610816511214,-0.5570610816511214
-0.5501100022142221,-0.5501100022142221
-0.5372008546885518,-0.5372008546885518
-0.52528471851101,-0.52528471851101
-0.5183336390741107,-0.5183336390741107
-0.5163476163778536,-0.5163476163778536
-0.5203196617703676,-0.5203196617703676
-0.5223056844666246,-0.5223056844666246
-0.52528471851101,-0.52528471851101
-0.5203196617703676,-0.5203196617703676
-0.5143615936815967,-0.5143615936815967
-0.5024454575040549,-0.5024454575040549
-0.4945013667190271,-0.4945013667190271
-0.48556426458587076,-0.48556426458587076
-0.4815922191933568,-0.4815922191933568
-0.4786131851489714,-0.4786131851489714
-0.48059920784522836,-0.48059920784522836
-0.4835782418896138,-0.4835782418896138
-0.49052932132651317,-0.49052932132651317
-0.49648738941528403,-0.49648738941528403
-0.5024454575040549,-0.5024454575040549
-0.5064175028965688,-0.5064175028965688
-0.5084035255928259,-0.5084035255928259
-0.5074105142446974,-0.5074105142446974
-0.5054244915484404,-0.5054244915484404
-0.500459434807798,-0.500459434807798
-0.4935083553708986,-0.4935083553708986
-0.48457125323774225,-0.48457125323774225
-0.4766271624527144,-0.4766271624527144
-0.47066909436394355,-0.47066909436394355
-0.46967608301581504,-0.46967608301581504
-0.471662105712072,-0.471662105712072
-0.47464113975645744,-0.47464113975645744
-0.4766271624527144,-0.4766271624527144
-0.473648128408329,-0.473648128408329
-0.46471102627517263,-0.46471102627517263
-0.4508088674013739,-0.4508088674013739
-0.4319416517869327,-0.4319416517869327
-0.4110884134762346,-0.4110884134762346
-0.38824915246927955,-0.38824915246927955
-0.3683889255067099,-0.3683889255067099
-0.3515077325885257,-0.3515077325885257
-0.3405846077591124,-0.3405846077591124
-0.3316475056259561,-0.3316475056259561
-0.32568943753718516,-0.32568943753718516
-0.3187383581002858,-0.3187383581002858
-0.3117872786633864,-0.3117872786633864
-0.30086415383397314,-0.30086415383397314
-0.29093404035268833,-0.29093404035268833
-0.2770318814788896,-0.2770318814788896
-0.2651157453013478,-0.2651157453013478
-0.2522065977756775,-0.2522065977756775
-0.2412834729462642,-0.2412834729462642
-0.2303603481168509,-0.2303603481168509
-0.22340926867995153,-0.22340926867995153
-0.21347915519866673,-0.21347915519866673
-0.20454205306551038,-0.20454205306551038
-0.1926259168879686,-0.1926259168879686
-0.18368881475481227,-0.18368881475481227
-0.17773074666604138,-0.17773074666604138
-0.17971676936229833,-0.17971676936229833
-0.1866678487991977,-0.1866678487991977
-0.19957699632486797,-0.19957699632486797
-0.21248614385053824,-0.21248614385053824
-0.22340926867995153,-0.22340926867995153
-0.22837432542059394,-0.22837432542059394
-0.22936733676872242,-0.22936733676872242
-0.22340926867995153,-0.22340926867995153
-0.21347915519866673,-0.21347915519866673
-0.19957699632486797,-0.19957699632486797
-0.1826958034066838,-0.1826958034066838
-0.16780063318475655,-0.16780063318475655
-0.15886353105160023,-0.15886353105160023
-0.15787051970347174,-0.15787051970347174
-0.16680762183662806,-0.16680762183662806
-0.17872375801416987,-0.17872375801416987
-0.19063989419171165,-0.19063989419171165
-0.19461193958422557,-0.19461193958422557
-0.1916329055398401,-0.1916329055398401
-0.18368881475481227,-0.18368881475481227
-0.1767377353179129,-0.1767377353179129
-0.17375870127352744,-0.17375870127352744
-0.17872375801416987,-0.17872375801416987
-0.1876608601473262,-0.1876608601473262
-0.19957699632486797,-0.19957699632486797
-0.20752108710989584,-0.20752108710989584
-0.21050012115428127,-0.21050012115428127
-0.20553506441363886,-0.20553506441363886
-0.19858398497673949,-0.19858398497673949
-0.18964688284358316,-0.18964688284358316
-0.18567483745106922,-0.18567483745106922
-0.18368881475481227,-0.18368881475481227
-0.18865387149545468,-0.18865387149545468
-0.19361892823609708,-0.19361892823609708
-0.19957699632486797,-0.19957699632486797
-0.20454205306551038,-0.20454205306551038
-0.2095071098061528,-0.2095071098061528
-0.21347915519866673,-0.21347915519866673
-0.21844421193930913,-0.21844421193930913
-0.2204302346355661,-0.2204302346355661
-0.22241625733182305,-0.22241625733182305
-0.2214232459836946,-0.2214232459836946
-0.2204302346355661,-0.2204302346355661
-0.21745120059118064,-0.21745120059118064
-0.21645818924305216,-0.21645818924305216
-0.2154651778949237,-0.2154651778949237
-0.2154651778949237,-0.2154651778949237
-0.21347915519866673,-0.21347915519866673
-0.2095071098061528,-0.2095071098061528
-0.20156301902112495,-0.20156301902112495
-0.1926259168879686,-0.1926259168879686
-0.1826958034066838,-0.1826958034066838
-0.1767377353179129,-0.1767377353179129
-0.17375870127352744,-0.17375870127352744
-0.17375870127352744,-0.17375870127352744
-0.1757447239697844,-0.1757447239697844
-0.17971676936229833,-0.17971676936229833
-0.1826958034066838,-0.1826958034066838
-0.18567483745106922,-0.18567483745106922
-0.1876608601473262,-0.1876608601473262
-0.18865387149545468,-0.18865387149545468
-0.1876608601473262,-0.1876608601473262
-0.18468182610294076,-0.18468182610294076
-0.17872375801416987,-0.17872375801416987
-0.17276568992539895,-0.17276568992539895
-0.16482159914037112,-0.16482159914037112
-0.15787051970347174,-0.15787051970347174
-0.15191245161470085,-0.15191245161470085
-0.1489334175703154,-0.1489334175703154
-0.14794040622218693,-0.14794040622218693
-0.15290546296282934,-0.15290546296282934
-0.15787051970347174,-0.15787051970347174
-0.16283557644411414,-0.16283557644411414
-0.16482159914037112,-0.16482159914037112
-0.1658146104884996,-0.1658146104884996
-0.16283557644411414,-0.16283557644411414
-0.16184256509598566,-0.16184256509598566
-0.15886353105160023,-0.15886353105160023
-0.15588449700721477,-0.15588449700721477
-0.1489334175703154,-0.1489334175703154
-0.1380102927409021,-0.1380102927409021
-0.12212211117084638,-0.12212211117084638
-0.10424790690453371,-0.10424790690453371
-0.08736671398634953,-0.08736671398634953
-0.07346455511255078,-0.07346455511255078
-0.06452745297939444,-0.06452745297939444
-0.06254143028313748,-0.06254143028313748
-0.06452745297939444,-0.06452745297939444
-0.07147853241629382,-0.07147853241629382
-0.07942262320132167,-0.07942262320132167
-0.08736671398634953,-0.08736671398634953
-0.09431779342324889,-0.09431779342324889
-0.10027586151201978,-0.10027586151201978
-0.10921296364517613,-0.10921296364517613
-0.12212211117084638,-0.12212211117084638
-0.1380102927409021,-0.1380102927409021
-0.15787051970347174,-0.15787051970347174
-0.17872375801416987,-0.17872375801416987
-0.197590973628611,-0.197590973628611
-0.21248614385053824,-0.21248614385053824
-0.2204302346355661,-0.2204302346355661
-0.21645818924305216,-0.21645818924305216
-0.20255603036925343,-0.20255603036925343
-0.17971676936229833,-0.17971676936229833
-0.15389847431095782,-0.15389847431095782
-0.13006620195587423,-0.13006620195587423
-0.11318500903769005,-0.11318500903769005
-0.1052409182526622,-0.1052409182526622
-0.10722694094891916,-0.10722694094891916
-0.11815006577833247,-0.11815006577833247
-0.13602427004464512,-0.13602427004464512
-0.1598565423997287,-0.1598565423997287
-0.18468182610294076,-0.18468182610294076
-0.20454205306551038,-0.20454205306551038
-0.2144721665467952,-0.2144721665467952
-0.21248614385053824,-0.21248614385053824
-0.2035490417173819,-0.2035490417173819
-0.19063989419171165,-0.19063989419171165
-0.18368881475481227,-0.18368881475481227
-0.1817027920585553,-0.1817027920585553
-0.1866678487991977,-0.1866678487991977
-0.1926259168879686,-0.1926259168879686
-0.19659796228048254,-0.19659796228048254
-0.19461193958422557,-0.19461193958422557
-0.1876608601473262,-0.1876608601473262
-0.17773074666604138,-0.17773074666604138
-0.16978665588101352,-0.16978665588101352
-0.16283557644411414,-0.16283557644411414
-0.15886353105160023,-0.15886353105160023
-0.15489148565908628,-0.15489148565908628
-0.15091944026657236,-0.15091944026657236
-0.14496137217780147,-0.14496137217780147
-0.1370172813927736,-0.1370172813927736
-0.12907319060774577,-0.12907319060774577
-0.12311512251897487,-0.12311512251897487
-0.12013608847458943,-0.12013608847458943
-0.12510114521523183,-0.12510114521523183
-0.13403824734838818,-0.13403824734838818
-0.15091944026657236,-0.15091944026657236
-0.16879364453288503,-0.16879364453288503
-0.18865387149545468,-0.18865387149545468
-0.20652807576176735,-0.20652807576176735
-0.21943722328743762,-0.21943722328743762
-0.21645818924305216,-0.21645818924305216
-0.18468182610294076,-0.18468182610294076
-0.10623392960079069,-0.10623392960079069
0.026829591048425885,0.026829591048425885
0.21053669045219503,0.21053669045219503
0.42006208490730473,0.42006208490730473
0.6216433885773865,0.6216433885773865
0.7735741248410443,0.7735741248410443
0.8490429872988089,0.8490429872988089
0.8321617943806247,0.8321617943806247
0.7328606595677765,0.7328606595677765
0.572985832519091,0.572985832519091
0.3862996990709363,0.3862996990709363
0.20060657697091022,0.20060657697091022
0.04371078396661008,0.04371078396661008
-0.07644358915693622,-0.07644358915693622
-0.15588449700721477,-0.15588449700721477
-0.20553506441363886,-0.20553506441363886
-0.23333938216123637,-0.23333938216123637
-0.2522065977756775,-0.2522065977756775
-0.26610875664947625,-0.26610875664947625
-0.27901790417514655,-0.27901790417514655
-0.28894801765643136,-0.28894801765643136
-0.29887813113771616,-0.29887813113771616
-0.30384318787835857,-0.30384318787835857
-0.3098012559671295,-0.3098012559671295
-0.3127802900115149,-0.3127802900115149
-0.31575932405590035,-0.31575932405590035
-0.3147663127077719,-0.3147663127077719
-0.31079426731525794,-0.31079426731525794
-0.3078152332708725,-0.3078152332708725
-0.3028501765302301,-0.3028501765302301
-0.3028501765302301,-0.3028501765302301
-0.3028501765302301,-0.3028501765302301
-0.3048361992264871,-0.3048361992264871
-0.306822221922744,-0.306822221922744
-0.30880824461900097,-0.30880824461900097
-0.3098012559671295,-0.3098012559671295
-0.3117872786633864,-0.3117872786633864
-0.3147663127077719,-0.3147663127077719
-0.31675233540402886,-0.31675233540402886
-0.3177453467521573,-0.3177453467521573
-0.3177453467521573,-0.3177453467521573
-0.3197313694484143,-0.3197313694484143
-0.32171739214467127,-0.32171739214467127
-0.32866847158157064,-0.32866847158157064
-0.33561955101847,-0.33561955101847
-0.3445566531516263,-0.3445566531516263
-0.3515077325885257,-0.3515077325885257
-0.3564727893291681,-0.3564727893291681
-0.3564727893291681,-0.3564727893291681
-0.35547977798103964,-0.35547977798103964
-0.3525007439366542,-0.3525007439366542
-0.3525007439366542,-0.3525007439366542
-0.3515077325885257,-0.3515077325885257
-0.35547977798103964,-0.35547977798103964
-0.35845881202542507,-0.35845881202542507
-0.364416880114196,-0.364416880114196
-0.3673959141585814,-0.3673959141585814
-0.3693819368548384,-0.3693819368548384
-0.3673959141585814,-0.3673959141585814
-0.36342386876606747,-0.36342386876606747
-0.35547977798103964,-0.35547977798103964
-0.34852869854414026,-0.34852869854414026
-0.3395915964109839,-0.3395915964109839
-0.33363352832221305,-0.33363352832221305
-0.32568943753718516,-0.32568943753718516
-0.3187383581002858,-0.3187383581002858
-0.306822221922744,-0.306822221922744
-0.29391307439707376,-0.29391307439707376
-0.27901790417514655,-0.27901790417514655
-0.2641227339532193,-0.2641227339532193
-0.24922756373129207,-0.24922756373129207
-0.2363184162056218,-0.2363184162056218
-0.22440228002808002,-0.22440228002808002
-0.21248614385053824,-0.21248614385053824
-0.19858398497673949,-0.19858398497673949
-0.18567483745106922,-0.18567483745106922
-0.1717726785772705,-0.1717726785772705
-0.1598565423997287,-0.1598565423997287
-0.15091944026657236,-0.15091944026657236
-0.143968360829673,-0.143968360829673
-0.1380102927409021,-0.1380102927409021
-0.1320522246521312,-0.1320522246521312
-0.12410813386710336,-0.12410813386710336
-0.1161640430820755,-0.1161640430820755
-0.10821995229704764,-0.10821995229704764
-0.10325489555640524,-0.10325489555640524
-0.10027586151201978,-0.10027586151201978
-0.10027586151201978,-0.10027586151201978
-0.09729682746763434,-0.09729682746763434
-0.09332478207512042,-0.09332478207512042
-0.08538069129009256,-0.08538069129009256
-0.07644358915693622,-0.07644358915693622
-0.0665134756756514,-0.0665134756756514
-0.06055540758688052,-0.06055540758688052
-0.05757637354249508,-0.05757637354249508
-0.05757637354249508,-0.05757637354249508
-0.05757637354249508,-0.05757637354249508
-0.05757637354249508,-0.05757637354249508
-0.05658336219436659,-0.05658336219436659
-0.05559035084623811,-0.05559035084623811
-0.052611316801852666,-0.052611316801852666
-0.051618305453724186,-0.051618305453724186
-0.0506252941055957,-0.0506252941055957
-0.051618305453724186,-0.051618305453724186
-0.053604328149981145,-0.053604328149981145
-0.05757637354249508,-0.05757637354249508
-0.06254143028313748,-0.06254143028313748
-0.0665134756756514,-0.0665134756756514
-0.07048552106816533,-0.07048552106816533
-0.07545057780880775,-0.07545057780880775
-0.08041563454945015,-0.08041563454945015
-0.08736671398634953,-0.08736671398634953
-0.09233177072699193,-0.09233177072699193
-0.09729682746763434,-0.09729682746763434
-0.10126887286014827,-0.10126887286014827
-0.1052409182526622,-0.1052409182526622
-0.10921296364517613,-0.10921296364517613
-0.11417802038581853,-0.11417802038581853
-0.12013608847458943,-0.12013608847458943
-0.12410813386710336,-0.12410813386710336
-0.1280801792596173,-0.1280801792596173
-0.13403824734838818,-0.13403824734838818
-0.1429753494815445,-0.1429753494815445
-0.15489148565908628,-0.15489148565908628
-0.16879364453288503,-0.16879364453288503
-0.1826958034066838,-0.1826958034066838
-0.1926259168879686,-0.1926259168879686
-0.19858398497673949,-0.19858398497673949
-0.20057000767299646,-0.20057000767299646
-0.20156301902112495,-0.20156301902112495
-0.19957699632486797,-0.19957699632486797
-0.197590973628611,-0.197590973628611
-0.19461193958422557,-0.19461193958422557
-0.19361892823609708,-0.19361892823609708
-0.1916329055398401,-0.1916329055398401
-0.1916329055398401,-0.1916329055398401
-0.19063989419171165,-0.19063989419171165
-0.19063989419171165,-0.19063989419171165
-0.18964688284358316,-0.18964688284358316
-0.18964688284358316,-0.18964688284358316
-0.1876608601473262,-0.1876608601473262
-0.1876608601473262,-0.1876608601473262
-0.1866678487991977,-0.1866678487991977
-0.18567483745106922,-0.18567483745106922
-0.18567483745106922,-0.18567483745106922
-0.1876608601473262,-0.1876608601473262
-0.19063989419171165,-0.19063989419171165
-0.19858398497673949,-0.19858398497673949
-0.20752108710989584,-0.20752108710989584
-0.21745120059118064,-0.21745120059118064
-0.22738131407246548,-0.22738131407246548
-0.2373114275537503,-0.2373114275537503
-0.24525551833877815,-0.24525551833877815
-0.255185631820063,-0.255185631820063
-0.26710176799760477,-0.26710176799760477
-0.281996938219532,-0.281996938219532
-0.2968921084414592,-0.2968921084414592
-0.3117872786633864,-0.3117872786633864
-0.3237034148409282,-0.3237034148409282
-0.33363352832221305,-0.33363352832221305
-0.3415776191072409,-0.3415776191072409
-0.3495217098922687,-0.3495217098922687
-0.35547977798103964,-0.35547977798103964
-0.362430857417939,-0.362430857417939
-0.3673959141585814,-0.3673959141585814
-0.3723609708992238,-0.3723609708992238
-0.37534000494360925,-0.37534000494360925
-0.37831903898799474,-0.37831903898799474
-0.37831903898799474,-0.37831903898799474
-0.3773260276398662,-0.3773260276398662
-0.3723609708992238,-0.3723609708992238
-0.36540989146232444,-0.36540989146232444
-0.3544867666329111,-0.3544867666329111
-0.3455496644997548,-0.3455496644997548
-0.33760557371472694,-0.33760557371472694
-0.33760557371472694,-0.33760557371472694
-0.3405846077591124,-0.3405846077591124
-0.3525007439366542,-0.3525007439366542
-0.36540989146232444,-0.36540989146232444
-0.38328409572863714,-0.38328409572863714
-0.3991722772986928,-0.3991722772986928
-0.4170464815650055,-0.4170464815650055
-0.4319416517869327,-0.4319416517869327
-0.4498158560532454,-0.4498158560532454
-0.4666970489714296,-0.4666970489714296
-0.4865572759339992,-0.4865572759339992
-0.5054244915484404,-0.5054244915484404
-0.52528471851101,-0.52528471851101
-0.5401798887329372,-0.5401798887329372
-0.552096024910479,-0.552096024910479
-0.5570610816511214,-0.5570610816511214
-0.5590471043473784,-0.5590471043473784
-0.5550750589548645,-0.5550750589548645
-0.5501100022142221,-0.5501100022142221
-0.5411729000810658,-0.5411729000810658
-0.5332288092960379,-0.5332288092960379
-0.527270741207267,-0.527270741207267
-0.5262777298591386,-0.5262777298591386
-0.5332288092960379,-0.5332288092960379
-0.5501100022142221,-0.5501100022142221
-0.5759282972655626,-0.5759282972655626
-0.6077046604056741,-0.6077046604056741
-0.6394810235457854,-0.6394810235457854
-0.6682783526415115,-0.6682783526415115
-0.690124602300338,-0.690124602300338
-0.7030337498260083,-0.7030337498260083
-0.7050197725222652,-0.7050197725222652
-0.6980686930853659,-0.6980686930853659
-0.6821805115153101,-0.6821805115153101
-0.6583482391602266,-0.6583482391602266
-0.6295509100645006,-0.6295509100645006
-0.5997605696206462,-0.5997605696206462
-0.5719562518730487,-0.5719562518730487
-0.5511030135623506,-0.5511030135623506
-0.5362078433404234,-0.5362078433404234
-0.5302497752516524,-0.5302497752516524
-0.52528471851101,-0.52528471851101
-0.5223056844666246,-0.5223056844666246
-0.5133685823334683,-0.5133685823334683
-0.5034384688521835,-0.5034384688521835
-0.4865572759339992,-0.4865572759339992
-0.4686830716676866,-0.4686830716676866
-0.4498158560532454,-0.4498158560532454
-0.4339276744831897,-0.4339276744831897
-0.42002551560939094,-0.42002551560939094
-0.41009540212810613,-0.41009540212810613
-0.3991722772986928,-0.3991722772986928
-0.38527011842489406,-0.38527011842489406
-0.36640290281045296,-0.36640290281045296
-0.34257063045536934,-0.34257063045536934
-0.3127802900115149,-0.3127802900115149
-0.2849759722639174,-0.2849759722639174
-0.2591576772125769,-0.2591576772125769
-0.2422764842943927,-0.2422764842943927
-0.23234637081310788,-0.23234637081310788
-0.23234637081310788,-0.23234637081310788
-0.23830443890187877,-0.23830443890187877
-0.2472415410350351,-0.2472415410350351
-0.24525551833877815,-0.24525551833877815
-0.2214232459836946,-0.2214232459836946
-0.15886353105160023,-0.15886353105160023
-0.047646260061210255,-0.047646260061210255
0.11620061237998926,0.11620061237998926
0.31579589335381414,0.31579589335381414
0.5213492424164099,0.5213492424164099
0.6951262283388941,0.6951262283388941
0.8033644652848987,0.8033644652848987
0.8252107149437253,0.8252107149437253
0.7616579886635024,0.7616579886635024
0.6256154339699005,0.6256154339699005
0.4478664026549022,0.4478664026549022
0.25820123516236215,0.25820123516236215
0.08343123789174936,0.08343123789174936
-0.058569384890623556,-0.058569384890623556
-0.15787051970347174,-0.15787051970347174
-0.21745120059118064,-0.21745120059118064
-0.24426250699064966,-0.24426250699064966
-0.25419262047193447,-0.25419262047193447
-0.255185631820063,-0.255185631820063
-0.2571716545163199,-0.2571716545163199
-0.2581646658644484,-0.2581646658644484
-0.26114369990883385,-0.26114369990883385
-0.26114369990883385,-0.26114369990883385
-0.2621367112569623,-0.2621367112569623
-0.2601506885607054,-0.2601506885607054
-0.2571716545163199,-0.2571716545163199
-0.253199609123806,-0.253199609123806
-0.24624852968690664,-0.24624852968690664
-0.2412834729462642,-0.2412834729462642
-0.23333938216123637,-0.23333938216123637
-0.2303603481168509,-0.2303603481168509
-0.226388302724337,-0.226388302724337
-0.22440228002808002,-0.22440228002808002
-0.22241625733182305,-0.22241625733182305
-0.2214232459836946,-0.2214232459836946
-0.21844421193930913,-0.21844421193930913
-0.2154651778949237,-0.2154651778949237
-0.21347915519866673,-0.21347915519866673
-0.21149313250240975,-0.21149313250240975
-0.21149313250240975,-0.21149313250240975
-0.21149313250240975,-0.21149313250240975
-0.21248614385053824,-0.21248614385053824
-0.21248614385053824,-0.21248614385053824
-0.21347915519866673,-0.21347915519866673
-0.2154651778949237,-0.2154651778949237
-0.21844421193930913,-0.21844421193930913
-0.22340926867995153,-0.22340926867995153
-0.2313533594649794,-0.2313533594649794
-0.23929745025000726,-0.23929745025000726
-0.24823455238316358,-0.24823455238316358
-0.255185631820063,-0.255185631820063
-0.2591576772125769,-0.2591576772125769
-0.2591576772125769,-0.2591576772125769
-0.2581646658644484,-0.2581646658644484
-0.2571716545163199,-0.2571716545163199
-0.25617864316819144,-0.25617864316819144
-0.25617864316819144,-0.25617864316819144
-0.255185631820063,-0.255185631820063
-0.253199609123806,-0.253199609123806
-0.24922756373129207,-0.24922756373129207
-0.2422764842943927,-0.2422764842943927
-0.23333938216123637,-0.23333938216123637
-0.22340926867995153,-0.22340926867995153
-0.21248614385053824,-0.21248614385053824
-0.19858398497673949,-0.19858398497673949
-0.18567483745106922,-0.18567483745106922
-0.1717726785772705,-0.1717726785772705
-0.15886353105160023,-0.15886353105160023
-0.14496137217780147,-0.14496137217780147
-0.1320522246521312,-0.1320522246521312
-0.11715705443020398,-0.11715705443020398
-0.10325489555640524,-0.10325489555640524
-0.088359725334478,-0.088359725334478
-0.07346455511255078,-0.07346455511255078
-0.059562396238752036,-0.059562396238752036
-0.046653248713081776,-0.046653248713081776
-0.03374410118741151,-0.03374410118741151
-0.021827965009869728,-0.021827965009869728
-0.010904840180456427,-0.010904840180456427
-0.0019677380473000898,-0.0019677380473000898
0.006969364085856247,0.006969364085856247
0.012927432174627138,0.012927432174627138
0.016899477567141066,0.016899477567141066
0.01888550026339803,0.01888550026339803
0.01888550026339803,0.01888550026339803
0.01888550026339803,0.01888550026339803
0.01789248891526955,0.01789248891526955
0.015906466219012583,0.015906466219012583
0.015906466219012583,0.015906466219012583
0.015906466219012583,0.015906466219012583
0.016899477567141066,0.016899477567141066
0.01888550026339803,0.01888550026339803
0.020871522959654994,0.020871522959654994
0.01987851161152651,0.01987851161152651
0.01789248891526955,0.01789248891526955
0.011934420826498657,0.011934420826498657
0.003990330041470802,0.003990330041470802
-0.003953760743557053,-0.003953760743557053
-0.008918817484199463,-0.008918817484199463
-0.009911828832327945,-0.009911828832327945
-0.007925806136070981,-0.007925806136070981
-0.0019677380473000898,-0.0019677380473000898
0.004983341389599283,0.004983341389599283
0.010941409478370174,0.010941409478370174
0.015906466219012583,0.015906466219012583
0.01789248891526955,0.01789248891526955
0.01789248891526955,0.01789248891526955
0.015906466219012583,0.015906466219012583
0.011934420826498657,0.011934420826498657
0.007962375433984729,0.007962375433984729
0.004983341389599283,0.004983341389599283
0.002004307345213838,0.002004307345213838
-0.0009747266991716078,-0.0009747266991716078
-0.003953760743557053,-0.003953760743557053
-0.006932794787942499,-0.006932794787942499
-0.009911828832327945,-0.009911828832327945
-0.011897851528584908,-0.011897851528584908
-0.01289086287671339,-0.01289086287671339
-0.011897851528584908,-0.011897851528584908
-0.008918817484199463,-0.008918817484199463
-0.004946772091685535,-0.004946772091685535
1.8284648956874048e-05,1.8284648956874048e-05
0.006969364085856247,0.006969364085856247
0.016899477567141066,0.016899477567141066
0.03179464778906829,0.03179464778906829
0.05165487475163793,0.05165487475163793
0.07648015845484998,0.07648015845484998
0.10428447620244748,0.10428447620244748
0.13407481664630194,0.13407481664630194
0.16088612304577093,0.16088612304577093
0.18571140674898298,0.18571140674898298
0.2065646450596811,0.2065646450596811
0.2234458379778653,0.2234458379778653
0.23734799685166405,0.23734799685166405
0.24926413302920583,0.24926413302920583
0.25820123516236215,0.25820123516236215
0.26515231459926153,0.26515231459926153
0.27011737133990393,0.27011737133990393
0.2740894167324179,0.2740894167324179
0.2780614621249318,0.2780614621249318
0.28104049616931726,0.28104049616931726
0.2840195302137027,0.2840195302137027
0.28799157560621663,0.28799157560621663
0.29295663234685904,0.29295663234685904
0.29792168908750144,0.29792168908750144
0.30288674582814384,0.30288674582814384
0.3048727685244008,0.3048727685244008
0.3048727685244008,0.3048727685244008
0.30090072313188687,0.30090072313188687
0.296928677739373,0.296928677739373
0.29097060965060206,0.29097060965060206
0.2889845869543451,0.2889845869543451
0.28799157560621663,0.28799157560621663
0.29097060965060206,0.29097060965060206
0.2919636209987306,0.2919636209987306
0.29593566639124447,0.29593566639124447
0.29792168908750144,0.29792168908750144
0.30090072313188687,0.30090072313188687
0.30288674582814384,0.30288674582814384
0.3058657798725293,0.3058657798725293
0.30785180256878625,0.30785180256878625
0.3118238479613002,0.3118238479613002
0.3167889047019426,0.3167889047019426
0.32473299548697043,0.32473299548697043
0.3336700976201268,0.3336700976201268
0.3445932224495401,0.3445932224495401
0.3565093586270819,0.3565093586270819
0.3723975401971376,0.3723975401971376
0.3922577671597072,0.3922577671597072
0.42006208490730473,0.42006208490730473
0.45680350478805853,0.45680350478805853
0.4985099814094548,0.4985099814094548
0.5412094693789795,0.5412094693789795
0.5829159460003758,0.5829159460003758
0.6186643545330011,0.6186643545330011
0.651433729021241,0.651433729021241
0.6812240694650954,0.6812240694650954
0.7100213985608215,0.7100213985608215
0.7348466822640335,0.7348466822640335
0.7596719659672455,0.7596719659672455
0.7765531588854298,0.7765531588854298
0.791448329107357,0.791448329107357
0.7983994085442563,0.7983994085442563
0.8043574766330271,0.8043574766330271
0.8033644652848987,0.8033644652848987
0.8003854312405133,0.8003854312405133
0.7904553177592285,0.7904553177592285
0.7795321929298151,0.7795321929298151
0.762651000011631,0.762651000011631
0.7497418524859607,0.7497418524859607
0.7348466822640335,0.7348466822640335
0.7249165687827487,0.7249165687827487
0.7149864553014639,0.7149864553014639
0.7130004326052068,0.7130004326052068
0.7110144099089499,0.7110144099089499
0.7169724779977208,0.7169724779977208
0.7239235574346201,0.7239235574346201
0.735839693612162,0.735839693612162
0.7487488411378322,0.7487488411378322
0.7636440113597595,0.7636440113597595
0.7765531588854298,0.7765531588854298
0.7884692950629715,0.7884692950629715
0.7934343518036139,0.7934343518036139
0.7924413404554854,0.7924413404554854
0.7835042383223291,0.7835042383223291
0.7705950907966588,0.7705950907966588
0.7556999205747316,0.7556999205747316
0.7437837843971898,0.7437837843971898
0.7378257163084189,0.7378257163084189
0.7378257163084189,0.7378257163084189
0.7417977617009328,0.7417977617009328
0.7497418524859607,0.7497418524859607
0.7556999205747316,0.7556999205747316
0.762651000011631,0.762651000011631
0.7656300340560164,0.7656300340560164
0.7686090681004019,0.7686090681004019
0.7686090681004019,0.7686090681004019
0.7696020794485303,0.7696020794485303
0.7686090681004019,0.7686090681004019
0.7696020794485303,0.7696020794485303
0.7696020794485303,0.7696020794485303
0.7715881021447873,0.7715881021447873
0.7696020794485303,0.7696020794485303
0.7705950907966588,0.7705950907966588
0.7686090681004019,0.7686090681004019
0.7696020794485303,0.7696020794485303
0.7676160567522734,0.7676160567522734
0.7705950907966588,0.7705950907966588
0.7666230454041449,0.7666230454041449
0.7696020794485303,0.7696020794485303
0.7646370227078879,0.7646370227078879
0.7676160567522734,0.7676160567522734
0.7636440113597595,0.7636440113597595
0.7676160567522734,0.7676160567522734
0.7666230454041449,0.7666230454041449
0.7696020794485303,0.7696020794485303
0.7686090681004019,0.7686090681004019
0.7705950907966588,0.7705950907966588
0.7676160567522734,0.7676160567522734
0.7636440113597595,0.7636440113597595
0.7517278751822176,0.7517278751822176
0.7408047503528044,0.7408047503528044
0.735839693612162,0.735839693612162
0.7547069092266031,0.7547069092266031
0.812301567418055,0.812301567418055
0.925504861104702,0.925504861104702
1.0913377562421585,1.0913377562421585
1.2978841166528825,1.2978841166528825
1.5103885451523777,1.5103885451523777
1.6940956445561468,1.6940956445561468
1.8132570063315647,1.8132570063315647
1.8499984262123186,1.8499984262123186
1.797368824761509,1.797368824761509
1.6702633722010634,1.6702633722010634
1.4915213295379366,1.4915213295379366
1.2919260485641118,1.2919260485641118
1.1012678697234433,1.1012678697234433
0.9463580994154001,0.9463580994154001
0.8351408284250101,0.8351408284250101
0.7715881021447873,0.7715881021447873
0.7398117390046759,0.7398117390046759
0.7288886141752626,0.7288886141752626
0.7199515120421063,0.7199515120421063
0.7120074212570784,0.7120074212570784
0.7010842964276651,0.7010842964276651
0.6951262283388941,0.6951262283388941
0.6901611715982517,0.6901611715982517
0.6941332169907657,0.6941332169907657
0.6971122510351512,0.6971122510351512
0.7080353758645644,0.7080353758645644
0.7130004326052068,0.7130004326052068
0.7288886141752626,0.7288886141752626
0.7378257163084189,0.7378257163084189
0.7556999205747316,0.7556999205747316
0.7636440113597595,0.7636440113597595
0.7775461702335582,0.7775461702335582
0.7825112269742006,0.7825112269742006
0.791448329107357,0.791448329107357
0.7954203744998709,0.7954203744998709
0.8013784425886418,0.8013784425886418
0.8043574766330271,0.8043574766330271
0.8073365106774126,0.8073365106774126
0.8053504879811557,0.8053504879811557
0.8053504879811557,0.8053504879811557
0.8023714539367702,0.8023714539367702
0.8003854312405133,0.8003854312405133
0.7974063971961278,0.7974063971961278
0.7944273631517423,0.7944273631517423
0.7884692950629715,0.7884692950629715
0.7825112269742006,0.7825112269742006
0.7765531588854298,0.7765531588854298
0.7705950907966588,0.7705950907966588
0.7656300340560164,0.7656300340560164
0.7596719659672455,0.7596719659672455
0.7497418524859607,0.7497418524859607
0.7378257163084189,0.7378257163084189
0.7219375347383632,0.7219375347383632
0.7090283872126929,0.7090283872126929
0.6971122510351512,0.6971122510351512
0.6921471942945088,0.6921471942945088
0.6891681602501233,0.6891681602501233
0.6911541829463803,0.6911541829463803
0.6891681602501233,0.6891681602501233
0.6891681602501233,0.6891681602501233
0.6851961148576093,0.6851961148576093
0.6871821375538664,0.6871821375538664
0.6891681602501233,0.6891681602501233
0.6990982737314081,0.6990982737314081
0.7080353758645644,0.7080353758645644
0.7239235574346201,0.7239235574346201
0.733853670915905,0.733853670915905
0.7477558297897038,0.7477558297897038
0.7576859432709886,0.7576859432709886
0.7725811134929158,0.7725811134929158
0.785490261018586,0.785490261018586
0.8053504879811557,0.8053504879811557
0.8222316808993398,0.8222316808993398
0.845070941906295,0.845070941906295
0.8639381575207361,0.8639381575207361
0.8857844071795627,0.8857844071795627
0.9016725887496184,0.9016725887496184
0.9175607703196741,0.9175607703196741
0.9274908838009589,0.9274908838009589
0.9344419632378583,0.9344419632378583
0.9364279859341152,0.9364279859341152
0.9384140086303723,0.9384140086303723
0.9374209972822438,0.9374209972822438
0.9384140086303723,0.9384140086303723
0.9404000313266292,0.9404000313266292
0.9433790653710147,0.9433790653710147
0.9443720767191431,0.9443720767191431
0.9453650880672716,0.9453650880672716
0.9413930426747577,0.9413930426747577
0.9364279859341152,0.9364279859341152
0.9304699178453444,0.9304699178453444
0.9274908838009589,0.9274908838009589
0.9284838951490875,0.9284838951490875
0.9354349745859868,0.9354349745859868
0.9433790653710147,0.9433790653710147
0.9552952015485564,0.9552952015485564
0.9642323036817128,0.9642323036817128
0.9721763944667406,0.9721763944667406
0.9741624171629976,0.9741624171629976
0.977141451207383,0.977141451207383
0.9751554285111261,0.9751554285111261
0.9741624171629976,0.9741624171629976
0.9701903717704836,0.9701903717704836
0.9672113377260982,0.9672113377260982
0.9602602582891988,0.9602602582891988
0.956288212896685,0.956288212896685
0.9493371334597855,0.9493371334597855
0.9493371334597855,0.9493371334597855
0.9493371334597855,0.9493371334597855
0.9602602582891988,0.9602602582891988
0.9691973604223552,0.9691973604223552
0.9830995192961539,0.9830995192961539
0.9880645760367963,0.9880645760367963
0.9920366214293103,0.9920366214293103
0.9860785533405394,0.9860785533405394
0.9801204852517685,0.9801204852517685
0.9691973604223552,0.9691973604223552
0.9622462809854558,0.9622462809854558
0.9513231561560426,0.9513231561560426
0.9453650880672716,0.9453650880672716
0.9354349745859868,0.9354349745859868
0.9294769064972159,0.9294769064972159
0.921532815712188,0.921532815712188
0.9175607703196741,0.9175607703196741
0.9135887249271603,0.9135887249271603
0.9116027022309032,0.9116027022309032
0.9076306568383893,0.9076306568383893
0.9056446341421324,0.9056446341421324
0.9036586114458753,0.9036586114458753
0.9036586114458753,0.9036586114458753
0.9066376454902608,0.9066376454902608
0.9135887249271603,0.9135887249271603
0.921532815712188,0.921532815712188
0.9304699178453444,0.9304699178453444
0.9374209972822438,0.9374209972822438
0.9433790653710147,0.9433790653710147
0.9443720767191431,0.9443720767191431
0.9443720767191431,0.9443720767191431
0.9413930426747577,0.9413930426747577
0.9423860540228862,0.9423860540228862
0.9423860540228862,0.9423860540228862
0.9463580994154001,0.9463580994154001
0.9483441221116571,0.9483441221116571
0.9552952015485564,0.9552952015485564
0.9592672469410704,0.9592672469410704
0.9662183263779698,0.9662183263779698
0.9691973604223552,0.9691973604223552
0.9731694058148691,0.9731694058148691
0.9682043490742267,0.9682043490742267
0.9632392923335843,0.9632392923335843
0.9493371334597855,0.9493371334597855
0.9404000313266292,0.9404000313266292
0.9274908838009589,0.9274908838009589
0.9235188384084451,0.9235188384084451
0.9195467930159311,0.9195467930159311
0.9225258270603165,0.9225258270603165
0.921532815712188,0.921532815712188
0.9245118497565735,0.9245118497565735
0.9205398043640596,0.9205398043640596
0.9175607703196741,0.9175607703196741
0.9076306568383893,0.9076306568383893
0.8996865660533615,0.8996865660533615
0.8877704298758197,0.8877704298758197
0.8798263390907918,0.8798263390907918
0.8689032142613785,0.8689032142613785
0.8599661121282222,0.8599661121282222
0.8500359986469374,0.8500359986469374
0.8420919078619095,0.8420919078619095
0.8361338397731386,0.8361338397731386
0.8361338397731386,0.8361338397731386
0.8420919078619095,0.8420919078619095
0.8550010553875798,0.8550010553875798
0.869896225609507,0.869896225609507
0.8867774185276912,0.8867774185276912
0.90067957740149,0.90067957740149
0.9106096908827748,0.9106096908827748
0.9106096908827748,0.9106096908827748
0.9056446341421324,0.9056446341421324
0.8917424752683336,0.8917424752683336
0.8768473050464064,0.8768473050464064
0.8589731007800937,0.8589731007800937
0.8440779305581665,0.8440779305581665
0.8301757716843677,0.8301757716843677
0.8192526468549545,0.8192526468549545
0.8063434993292842,0.8063434993292842
0.7944273631517423,0.7944273631517423
0.7785391815816867,0.7785391815816867
0.7666230454041449,0.7666230454041449
0.7537138978784746,0.7537138978784746
0.7487488411378322,0.7487488411378322
0.7447767957453183,0.7447767957453183
0.7487488411378322,0.7487488411378322
0.7527208865303462,0.7527208865303462
0.762651000011631,0.762651000011631
0.7696020794485303,0.7696020794485303
0.7815182156260722,0.7815182156260722
0.7884692950629715,0.7884692950629715
0.7983994085442563,0.7983994085442563
0.7993924198923847,0.7993924198923847
0.7993924198923847,0.7993924198923847
0.7884692950629715,0.7884692950629715
0.7745671361891727,0.7745671361891727
0.75669293192286,0.75669293192286
0.7437837843971898,0.7437837843971898
0.735839693612162,0.735839693612162
0.7388187276565474,0.7388187276565474
0.7467628184415752,0.7467628184415752
0.758678954619117,0.758678954619117
0.7656300340560164,0.7656300340560164
0.7666230454041449,0.7666230454041449
0.7616579886635024,0.7616579886635024
0.7556999205747316,0.7556999205747316
0.7507348638340892,0.7507348638340892
0.7507348638340892,0.7507348638340892
0.7527208865303462,0.7527208865303462
0.7556999205747316,0.7556999205747316
0.7547069092266031,0.7547069092266031
0.7497418524859607,0.7497418524859607
0.7348466822640335,0.7348466822640335
0.7130004326052068,0.7130004326052068
0.6812240694650954,0.6812240694650954
0.6484546949768556,0.6484546949768556
0.6087342410517163,0.6087342410517163
0.5759648665634763,0.5759648665634763
0.5431954920752364,0.5431954920752364
0.5183702083720244,0.5183702083720244
0.49553094736506936,0.49553094736506936
0.4786497544468851,0.4786497544468851
0.4637545842249579,0.4637545842249579
0.4538244707436731,0.4538244707436731
0.44588037995864527,0.44588037995864527
0.4379362891736174,0.4379362891736174
0.42502714164794714,0.42502714164794714
0.40814594872976295,0.40814594872976295
0.3882857217671933,0.3882857217671933
0.38530668772280785,0.38530668772280785
0.4141040168185338,0.4141040168185338
0.5014890154538403,0.5014890154538403
0.6504407176731125,0.6504407176731125
0.8550010553875798,0.8550010553875798
1.0794216200646165,1.0794216200646165
1.2879540031715977,1.2879540031715977
1.4349196826946131,1.4349196826946131
1.4974793976267073,1.4974793976267073
1.4666960458347245,1.4666960458347245
1.3564717861924631,1.3564717861924631
1.189645879706878,1.189645879706878
0.9989877008662097,0.9989877008662097
0.8093225333736697,0.8093225333736697
0.6444826495843416,0.6444826495843416
0.5153911743276389,0.5153911743276389
0.42204810760356165,0.42204810760356165
0.35750236997521034,0.35750236997521034
0.31380987065755717,0.31380987065755717
0.2790544734730603,0.2790544734730603
0.2512501557254628,0.2512501557254628
0.2284108947185077,0.2284108947185077
0.21152970180032352,0.21152970180032352
0.20060657697091022,0.20060657697091022
0.19266248618588236,0.19266248618588236
0.18571140674898298,0.18571140674898298
0.17776731596395515,0.17776731596395515
0.1688302138307988,0.1688302138307988
0.158900100349514,0.158900100349514
0.14599095282384372,0.14599095282384372
0.13109578260191648,0.13109578260191648
0.10924953294308988,0.10924953294308988
0.07945919249923543,0.07945919249923543
0.041724761270353114,0.041724761270353114
-0.0019677380473000898,-0.0019677380473000898
-0.048639271409338734,-0.048639271409338734
-0.09233177072699193,-0.09233177072699193
-0.12609415656336032,-0.12609415656336032
-0.14992642891844388,-0.14992642891844388
-0.16283557644411414,-0.16283557644411414
-0.16780063318475655,-0.16780063318475655
-0.16879364453288503,-0.16879364453288503
-0.170779667229142,-0.170779667229142
-0.17375870127352744,-0.17375870127352744
-0.17971676936229833,-0.17971676936229833
-0.1866678487991977,-0.1866678487991977
-0.19361892823609708,-0.19361892823609708
-0.20057000767299646,-0.20057000767299646
-0.20851409845802432,-0.20851409845802432
-0.2154651778949237,-0.2154651778949237
-0.22440228002808002,-0.22440228002808002
-0.23532540485749331,-0.23532540485749331
-0.24624852968690664,-0.24624852968690664
-0.2581646658644484,-0.2581646658644484
-0.2700808020419902,-0.2700808020419902
-0.28398296091578895,-0.28398296091578895
-0.2978851197895877,-0.2978851197895877
-0.3117872786633864,-0.3117872786633864
-0.32568943753718516,-0.32568943753718516
-0.33561955101847,-0.33561955101847
-0.3415776191072409,-0.3415776191072409
-0.3415776191072409,-0.3415776191072409
-0.33561955101847,-0.33561955101847
-0.32568943753718516,-0.32568943753718516
-0.3127802900115149,-0.3127802900115149
-0.29887813113771616,-0.29887813113771616
-0.2859689836120459,-0.2859689836120459
-0.27405284743450414,-0.27405284743450414
-0.2641227339532193,-0.2641227339532193
-0.253199609123806,-0.253199609123806
-0.2412834729462642,-0.2412834729462642
-0.22936733676872242,-0.22936733676872242
-0.21745120059118064,-0.21745120059118064
-0.20553506441363886,-0.20553506441363886
-0.197590973628611,-0.197590973628611
-0.19063989419171165,-0.19063989419171165
-0.1876608601473262,-0.1876608601473262
-0.18368881475481227,-0.18368881475481227
-0.17773074666604138,-0.17773074666604138
-0.1658146104884996,-0.1658146104884996
-0.14992642891844388,-0.14992642891844388
-0.13105921330400272,-0.13105921330400272
-0.11715705443020398,-0.11715705443020398
-0.10821995229704764,-0.10821995229704764
-0.1102059749933046,-0.1102059749933046
-0.11815006577833247,-0.11815006577833247
-0.1320522246521312,-0.1320522246521312
-0.143968360829673,-0.143968360829673
-0.15489148565908628,-0.15489148565908628
