ECG,PPG
-0.656390937811284,-0.656390937811284
-0.13195782381849408,-0.13195782381849408
-0.5769767805495187,-0.5769767805495187
-0.8062289703806527,-0.8062289703806527
-0.5769767805495187,-0.5769767805495187
-0.5005593839391408,-0.5005593839391408
-0.7358050950730494,-0.7358050950730494
-0.8886398882938054,-0.8886398882938054
-0.8144700621719679,-0.8144700621719679
-0.7642743212612294,-0.7642743212612294
-0.8144700621719679,-0.8144700621719679
-0.82346034412613,-0.82346034412613
-0.7358050950730494,-0.7358050950730494
-0.6294200919487977,-0.6294200919487977
-0.4983118134506002,-0.4983118134506002
-0.3567148726725469,-0.3567148726725469
-0.3394834989270695,-0.3394834989270695
-0.5604945969668882,-0.5604945969668882
-0.8938842194337332,-0.8938842194337332
-1.1358726420332634,-1.1358726420332634
-1.2107916583179477,-1.2107916583179477
-1.2122900386436415,-1.2122900386436415
-1.2107916583179477,-1.2107916583179477
-1.2272738419005782,-1.2272738419005782
-1.2107916583179477,-1.2107916583179477
-1.1531040157787409,-1.1531040157787409
-1.0519633437944171,-1.0519633437944171
-0.9583145734385617,-0.9583145734385617
-0.8938842194337332,-0.8938842194337332
-0.8841447473167242,-0.8841447473167242
-0.8938842194337332,-0.8938842194337332
-0.9081188325278232,-0.9081188325278232
-0.8938842194337332,-0.8938842194337332
-0.8654149932455532,-0.8654149932455532
-0.8144700621719679,-0.8144700621719679
-0.7747629835410852,-0.7747629835410852
-0.7358050950730494,-0.7358050950730494
-0.708834249210563,-0.708834249210563
-0.656390937811284,-0.656390937811284
-0.6099411477147798,-0.6099411477147798
-0.5769767805495187,-0.5769767805495187
-0.6054460067376988,-0.6054460067376988
-0.656390937811284,-0.656390937811284
-0.7148277705133378,-0.7148277705133378
-0.7358050950730494,-0.7358050950730494
-0.7417986163758241,-0.7417986163758241
-0.7358050950730494,-0.7358050950730494
-0.7388018557244368,-0.7388018557244368
-0.7358050950730494,-0.7358050950730494
-0.7403002360501304,-0.7403002360501304
-0.7358050950730494,-0.7358050950730494
-0.7028407279077883,-0.7028407279077883
-0.5769767805495187,-0.5769767805495187
-0.332740787461448,-0.332740787461448
0.056088907056063474,0.056088907056063474
0.5955058243057904,0.5955058243057904
1.3222202822672278,1.3222202822672278
2.1860365400296375,2.1860365400296375
3.0640874108861373,3.0640874108861373
3.77057373445071,3.77057373445071
4.172139661736618,4.172139661736618
4.13617853391997,4.13617853391997
3.6184881313928012,3.6184881313928012
2.6999809917425717,2.6999809917425717
1.6391277211514423,1.6391277211514423
0.6434539947279883,0.6434539947279883
-0.1814043745663857,-0.1814043745663857
-0.8197143933118958,-0.8197143933118958
-1.2107916583179477,-1.2107916583179477
-1.386102156424109,-1.386102156424109
-1.448284939940397,-1.448284939940397
-1.5074709628052976,-1.5074709628052976
-1.5269499070393153,-1.5269499070393153
-1.4932363497112076,-1.4932363497112076
-1.448284939940397,-1.448284939940397
-1.4595227923830996,-1.4595227923830996
-1.448284939940397,-1.448284939940397
-1.357632930235929,-1.357632930235929
-1.2107916583179477,-1.2107916583179477
-1.1148953174735519,-1.1148953174735519
-1.0519633437944171,-1.0519633437944171
-0.9905297504409759,-0.9905297504409759
-0.8938842194337332,-0.8938842194337332
-0.8174668228233553,-0.8174668228233553
-0.7358050950730494,-0.7358050950730494
-0.6571401279741309,-0.6571401279741309
-0.5769767805495187,-0.5769767805495187
-0.5350221314300955,-0.5350221314300955
-0.4983118134506002,-0.4983118134506002
-0.46085230530825805,-0.46085230530825805
-0.4188976561888349,-0.4188976561888349
-0.38818085951211434,-0.38818085951211434
-0.3394834989270695,-0.3394834989270695
-0.3095158924131958,-0.3095158924131958
-0.3394834989270695,-0.3394834989270695
-0.4368782200971591,-0.4368782200971591
-0.4983118134506002,-0.4983118134506002
-0.4983118134506002,-0.4983118134506002
-0.4983118134506002,-0.4983118134506002
-0.5739800198981313,-0.5739800198981313
-0.656390937811284,-0.656390937811284
-0.6826125935109235,-0.6826125935109235
-0.656390937811284,-0.656390937811284
-0.6526449869970499,-0.6526449869970499
-0.656390937811284,-0.656390937811284
-0.6556417476484372,-0.6556417476484372
-0.656390937811284,-0.656390937811284
-0.6983455869307073,-0.6983455869307073
-0.7358050950730494,-0.7358050950730494
-0.7455445671900583,-0.7455445671900583
-0.7358050950730494,-0.7358050950730494
-0.7462937573529052,-0.7462937573529052
-0.7358050950730494,-0.7358050950730494
-0.6938504459536262,-0.6938504459536262
-0.656390937811284,-0.656390937811284
-0.7050882983963288,-0.7050882983963288
-0.8144700621719679,-0.8144700621719679
-0.9275977767618412,-0.9275977767618412
-0.9732983766954986,-0.9732983766954986
-0.9583145734385617,-0.9583145734385617
-0.8938842194337332,-0.8938842194337332
-0.8369457670573731,-0.8369457670573731
-0.8144700621719679,-0.8144700621719679
-0.8496819998257695,-0.8496819998257695
-0.8938842194337332,-0.8938842194337332
-0.9373372488788501,-0.9373372488788501
-0.9732983766954986,-0.9732983766954986
-1.023494117606237,-1.023494117606237
-1.0519633437944171,-1.0519633437944171
-1.0587060552600387,-1.0587060552600387
-1.0519633437944171,-1.0519633437944171
-1.0841785207968313,-1.0841785207968313
-1.1313775010561824,-1.1313775010561824
-1.161345107570056,-1.161345107570056
-1.1313775010561824,-1.1313775010561824
-1.0849277109596782,-1.0849277109596782
-1.0519633437944171,-1.0519633437944171
-1.0572076749343449,-1.0572076749343449
-1.0519633437944171,-1.0519633437944171
-1.0249924979319307,-1.0249924979319307
-0.9732983766954986,-0.9732983766954986
-0.9350896783903095,-0.9350896783903095
-0.8938842194337332,-0.8938842194337332
-0.8361965768945263,-0.8361965768945263
-0.7358050950730494,-0.7358050950730494
-0.6391595640658067,-0.6391595640658067
-0.5769767805495187,-0.5769767805495187
-0.5732308297352845,-0.5732308297352845
-0.5769767805495187,-0.5769767805495187
-0.5619929772925818,-0.5619929772925818
-0.4983118134506002,-0.4983118134506002
-0.4188976561888349,-0.4188976561888349
-0.3394834989270695,-0.3394834989270695
-0.3125126530645832,-0.3125126530645832
-0.3394834989270695,-0.3394834989270695
-0.4248911774916096,-0.4248911774916096
-0.4983118134506002,-0.4983118134506002
-0.5559994559898072,-0.5559994559898072
-0.5769767805495187,-0.5769767805495187
-0.5747292100609782,-0.5747292100609782
-0.4983118134506002,-0.4983118134506002
-0.3964219513034296,-0.3964219513034296
-0.3394834989270695,-0.3394834989270695
-0.39792033162912327,-0.39792033162912327
-0.4983118134506002,-0.4983118134506002
-0.5687356887582035,-0.5687356887582035
-0.5769767805495187,-0.5769767805495187
-0.5604945969668882,-0.5604945969668882
-0.4983118134506002,-0.4983118134506002
-0.37993976772079907,-0.37993976772079907
-0.1814043745663857,-0.1814043745663857
0.1002911266640272,0.1002911266640272
0.5310754703009618,0.5310754703009618
1.1296784104155893,1.1296784104155893
1.8766210027738914,1.8766210027738914
2.6775052868571665,2.6775052868571665
3.4596598168692703,3.4596598168692703
4.070998989752294,4.070998989752294
4.3309679762601485,4.3309679762601485
4.065005468449519,4.065005468449519
3.3015806925085864,3.3015806925085864
2.2130073858921238,2.2130073858921238
1.0854761908076256,1.0854761908076256
0.13475387415498197,0.13475387415498197
-0.4983118134506002,-0.4983118134506002
-0.8391933375459137,-0.8391933375459137
-0.9732983766954986,-0.9732983766954986
-1.0279892585833181,-1.0279892585833181
-1.0519633437944171,-1.0519633437944171
-1.0886736617739123,-1.0886736617739123
-1.1313775010561824,-1.1313775010561824
-1.189814333758236,-1.189814333758236
-1.2107916583179477,-1.2107916583179477
-1.1733321501756055,-1.1733321501756055
-1.0519633437944171,-1.0519633437944171
-0.8818971768281837,-0.8818971768281837
-0.656390937811284,-0.656390937811284
-0.41814846602598804,-0.41814846602598804
-0.1814043745663857,-0.1814043745663857
-0.018830109228620807,-0.018830109228620807
0.056088907056063474,0.056088907056063474
-0.012836587925846066,-0.012836587925846066
-0.1814043745663857,-0.1814043745663857
-0.3672035349524027,-0.3672035349524027
-0.4188976561888349,-0.4188976561888349
-0.3282456464843669,-0.3282456464843669
-0.1814043745663857,-0.1814043745663857
-0.08775560421053034,-0.08775560421053034
-0.023325250205701864,-0.023325250205701864
0.03061644151927082,0.03061644151927082
0.056088907056063474,0.056088907056063474
-0.006093876460224481,-0.006093876460224481
-0.10199021730462036,-0.10199021730462036
-0.17016652212368305,-0.17016652212368305
-0.1814043745663857,-0.1814043745663857
-0.2061276499403315,-0.2061276499403315
-0.260818531828151,-0.260818531828151
-0.32599807599582636,-0.32599807599582636
-0.3394834989270695,-0.3394834989270695
-0.31176346290173634,-0.31176346290173634
-0.260818531828151,-0.260818531828151
-0.24658391873406102,-0.24658391873406102
-0.260818531828151,-0.260818531828151
-0.28479261703925,-0.28479261703925
-0.260818531828151,-0.260818531828151
-0.21361955156879994,-0.21361955156879994
-0.1814043745663857,-0.1814043745663857
-0.21137198108025942,-0.21137198108025942
-0.260818531828151,-0.260818531828151
-0.3095158924131958,-0.3095158924131958
-0.3394834989270695,-0.3394834989270695
-0.3821873382093396,-0.3821873382093396
-0.4188976561888349,-0.4188976561888349
-0.4616014954711049,-0.4616014954711049
-0.4983118134506002,-0.4983118134506002
-0.5275302298016271,-0.5275302298016271
-0.4983118134506002,-0.4983118134506002
-0.4248911774916096,-0.4248911774916096
-0.3394834989270695,-0.3394834989270695
-0.27505314492224103,-0.27505314492224103
-0.1814043745663857,-0.1814043745663857
-0.07427018127928718,-0.07427018127928718
-0.023325250205701864,-0.023325250205701864
-0.1079837386073951,-0.1079837386073951
-0.260818531828151,-0.260818531828151
-0.3866824791864206,-0.3866824791864206
-0.4188976561888349,-0.4188976561888349
-0.39417438081488904,-0.39417438081488904
-0.3394834989270695,-0.3394834989270695
-0.3304932169729074,-0.3304932169729074
-0.4188976561888349,-0.4188976561888349
-0.6369119935772661,-0.6369119935772661
-0.8938842194337332,-0.8938842194337332
-1.104406655193696,-1.104406655193696
-1.2107916583179477,-1.2107916583179477
-1.2445052156460557,-1.2445052156460557
-1.2107916583179477,-1.2107916583179477
-1.1388694026846509,-1.1388694026846509
-1.0519633437944171,-1.0519633437944171
-1.023494117606237,-1.023494117606237
-1.0519633437944171,-1.0519633437944171
-1.095416373239534,-1.095416373239534
-1.0519633437944171,-1.0519633437944171
-0.9178583046448322,-0.9178583046448322
-0.7358050950730494,-0.7358050950730494
-0.5964557247835366,-0.5964557247835366
-0.4983118134506002,-0.4983118134506002
-0.42564036765445645,-0.42564036765445645
-0.3394834989270695,-0.3394834989270695
-0.260818531828151,-0.260818531828151
-0.1814043745663857,-0.1814043745663857
-0.1304594434928004,-0.1304594434928004
-0.10199021730462036,-0.10199021730462036
-0.12971025332995353,-0.12971025332995353
-0.1814043745663857,-0.1814043745663857
-0.2638152924795384,-0.2638152924795384
-0.3394834989270695,-0.3394834989270695
-0.4301355086315375,-0.4301355086315375
-0.4983118134506002,-0.4983118134506002
-0.5357713215929424,-0.5357713215929424
-0.4983118134506002,-0.4983118134506002
-0.4024154726062043,-0.4024154726062043
-0.260818531828151,-0.260818531828151
-0.12746268284141302,-0.12746268284141302
-0.023325250205701864,-0.023325250205701864
0.027619680867883446,0.027619680867883446
0.056088907056063474,0.056088907056063474
0.09055165454701825,0.09055165454701825
0.2141680314167473,0.2141680314167473
0.49661272281000707,0.49661272281000707
1.00606203354586,1.00606203354586
1.7005613145048835,1.7005613145048835
2.509686690379474,2.509686690379474
3.333046679348154,3.333046679348154
4.0934746946377,4.0934746946377
4.600676434885012,4.600676434885012
4.647126224981516,4.647126224981516
4.115950399523105,4.115950399523105
3.1435015681479026,3.1435015681479026
1.9485432584071884,1.9485432584071884
0.768568751923411,0.768568751923411
-0.21361955156879994,-0.21361955156879994
-0.8144700621719679,-0.8144700621719679
-1.0399763011888676,-1.0399763011888676
-1.0519633437944171,-1.0519633437944171
-1.0534617241201107,-1.0534617241201107
-1.0519633437944171,-1.0519633437944171
-1.023494117606237,-1.023494117606237
-0.9732983766954986,-0.9732983766954986
-0.9695524258812643,-0.9695524258812643
-0.9732983766954986,-0.9732983766954986
-0.952321052135787,-0.952321052135787
-0.8938842194337332,-0.8938842194337332
-0.8369457670573731,-0.8369457670573731
-0.7358050950730494,-0.7358050950730494
-0.6084427673890861,-0.6084427673890861
-0.4983118134506002,-0.4983118134506002
-0.48707396100789757,-0.48707396100789757
-0.4983118134506002,-0.4983118134506002
-0.4630998757967986,-0.4630998757967986
-0.3394834989270695,-0.3394834989270695
-0.21062279091741257,-0.21062279091741257
-0.10199021730462036,-0.10199021730462036
-0.024074440368548708,-0.024074440368548708
0.056088907056063474,0.056088907056063474
0.110779788943883,0.110779788943883
0.13550306431782883,0.13550306431782883
0.1265127823636667,0.1265127823636667
0.13550306431782883,0.13550306431782883
0.16696905115739621,0.16696905115739621
0.2141680314167473,0.2141680314167473
0.22840264451083733,0.22840264451083733
0.2141680314167473,0.2141680314167473
0.1737117626230178,0.1737117626230178
0.13550306431782883,0.13550306431782883
0.08755489389563087,0.08755489389563087
0.056088907056063474,0.056088907056063474
0.0373591529848924,0.0373591529848924
0.056088907056063474,0.056088907056063474
0.09055165454701825,0.09055165454701825
0.13550306431782883,0.13550306431782883
0.12950954301505407,0.12950954301505407
0.056088907056063474,0.056088907056063474
-0.07726694193067454,-0.07726694193067454
-0.1814043745663857,-0.1814043745663857
-0.23684444661705206,-0.23684444661705206
-0.260818531828151,-0.260818531828151
-0.30651913176180845,-0.30651913176180845
-0.3394834989270695,-0.3394834989270695
-0.35147054153261903,-0.35147054153261903
-0.3394834989270695,-0.3394834989270695
-0.34697540055553794,-0.34697540055553794
-0.3394834989270695,-0.3394834989270695
-0.3125126530645832,-0.3125126530645832
-0.260818531828151,-0.260818531828151
-0.22260983352296204,-0.22260983352296204
-0.1814043745663857,-0.1814043745663857
-0.16117624016952095,-0.16117624016952095
-0.1814043745663857,-0.1814043745663857
-0.26456448264238525,-0.26456448264238525
-0.3394834989270695,-0.3394834989270695
-0.38818085951211434,-0.38818085951211434
-0.4188976561888349,-0.4188976561888349
-0.4713409675881139,-0.4713409675881139
-0.4983118134506002,-0.4983118134506002
-0.49756262328775336,-0.49756262328775336
-0.4983118134506002,-0.4983118134506002
-0.5440124133842577,-0.5440124133842577
-0.5769767805495187,-0.5769767805495187
-0.580722731363753,-0.580722731363753
-0.5769767805495187,-0.5769767805495187
-0.6211790001574824,-0.6211790001574824
-0.656390937811284,-0.656390937811284
-0.6616352689512119,-0.6616352689512119
-0.656390937811284,-0.656390937811284
-0.699843967256401,-0.699843967256401
-0.7358050950730494,-0.7358050950730494
-0.7223196721418063,-0.7223196721418063
-0.656390937811284,-0.656390937811284
-0.6114395280404735,-0.6114395280404735
-0.5769767805495187,-0.5769767805495187
-0.5462599838727982,-0.5462599838727982
-0.4983118134506002,-0.4983118134506002
-0.46235068563395176,-0.46235068563395176
-0.4188976561888349,-0.4188976561888349
-0.3806889578836459,-0.3806889578836459
-0.3394834989270695,-0.3394834989270695
-0.2930337088305653,-0.2930337088305653
-0.1814043745663857,-0.1814043745663857
-0.04130581411402609,-0.04130581411402609
0.056088907056063474,0.056088907056063474
0.03511158249635187,0.03511158249635187
-0.023325250205701864,-0.023325250205701864
-0.05404204688242242,-0.05404204688242242
-0.023325250205701864,-0.023325250205701864
-0.013585778088692909,-0.013585778088692909
-0.023325250205701864,-0.023325250205701864
-0.042055004276872934,-0.042055004276872934
-0.023325250205701864,-0.023325250205701864
-0.010589017437305538,-0.010589017437305538
-0.023325250205701864,-0.023325250205701864
-0.06902585013935927,-0.06902585013935927
-0.10199021730462036,-0.10199021730462036
-0.13570377463272829,-0.13570377463272829
-0.1814043745663857,-0.1814043745663857
-0.23609525645420523,-0.23609525645420523
-0.1814043745663857,-0.1814043745663857
0.0845581332442435,0.0845581332442435
0.6104896275627272,0.6104896275627272
1.3132300003130657,1.3132300003130657
2.1141142843963405,2.1141142843963405
2.926236420922318,2.926236420922318
3.6971530984917194,3.6971530984917194
4.294257658280653,4.294257658280653
4.568461257882598,4.568461257882598
4.348199350005626,4.348199350005626
3.6184881313928012,3.6184881313928012
2.5089375002166268,2.5089375002166268
1.3222202822672278,1.3222202822672278
0.32130222470384584,0.32130222470384584
-0.3394834989270695,-0.3394834989270695
-0.7133293901876441,-0.7133293901876441
-0.8938842194337332,-0.8938842194337332
-0.9785427078354264,-0.9785427078354264
-0.9732983766954986,-0.9732983766954986
-0.9305945374132285,-0.9305945374132285
-0.8938842194337332,-0.8938842194337332
-0.9058712620392827,-0.9058712620392827
-0.8938842194337332,-0.8938842194337332
-0.8152192523348147,-0.8152192523348147
-0.656390937811284,-0.656390937811284
-0.494565862636366,-0.494565862636366
-0.3394834989270695,-0.3394834989270695
-0.21586712205734046,-0.21586712205734046
-0.10199021730462036,-0.10199021730462036
-0.04580095509110715,-0.04580095509110715
-0.023325250205701864,-0.023325250205701864
-0.03531229281125135,-0.03531229281125135
-0.023325250205701864,-0.023325250205701864
0.0028964054939376333,0.0028964054939376333
0.056088907056063474,0.056088907056063474
0.09729436601263983,0.09729436601263983
0.13550306431782883,0.13550306431782883
0.16247391018031515,0.16247391018031515
0.2141680314167473,0.2141680314167473
0.2800967657472695,0.2800967657472695
0.372996345940278,0.372996345940278
0.47563539825029544,0.47563539825029544
0.6104896275627272,0.6104896275627272
0.7438454765494652,0.7438454765494652
0.8479829091851764,0.8479829091851764
0.8547256206507979,0.8547256206507979
0.768568751923411,0.768568751923411
0.6082420570741867,0.6082420570741867
0.4516613130391965,0.4516613130391965
0.334787647635089,0.334787647635089
0.29358218867851266,0.29358218867851266
0.28609028705004425,0.28609028705004425
0.29358218867851266,0.29358218867851266
0.28459190672435053,0.28459190672435053
0.29358218867851266,0.29358218867851266
0.2995757099812874,0.2995757099812874
0.29358218867851266,0.29358218867851266
0.24788158874485525,0.24788158874485525
0.2141680314167473,0.2141680314167473
0.2036793691368915,0.2036793691368915
0.2141680314167473,0.2141680314167473
0.18644799539141413,0.18644799539141413
0.13550306431782883,0.13550306431782883
0.07481866112723455,0.07481866112723455
0.056088907056063474,0.056088907056063474
0.07032352015015349,0.07032352015015349
0.13550306431782883,0.13550306431782883
0.21491722157959414,0.21491722157959414
0.29358218867851266,0.29358218867851266
0.3175562738896116,0.3175562738896116
0.29358218867851266,0.29358218867851266
0.2171647920681347,0.2171647920681347
0.13550306431782883,0.13550306431782883
0.06582837917307242,0.06582837917307242
0.056088907056063474,0.056088907056063474
0.08530732340709034,0.08530732340709034
0.13550306431782883,0.13550306431782883
0.14823929708622513,0.14823929708622513
0.13550306431782883,0.13550306431782883
0.09279922503555878,0.09279922503555878
0.056088907056063474,0.056088907056063474
0.010388307122406062,0.010388307122406062
-0.023325250205701864,-0.023325250205701864
-0.06527989932512507,-0.06527989932512507
-0.10199021730462036,-0.10199021730462036
-0.151436768052512,-0.151436768052512
-0.1814043745663857,-0.1814043745663857
-0.1986357483118631,-0.1986357483118631
-0.1814043745663857,-0.1814043745663857
-0.151436768052512,-0.151436768052512
-0.10199021730462036,-0.10199021730462036
-0.08550803372198981,-0.08550803372198981
-0.10199021730462036,-0.10199021730462036
-0.13495458446988146,-0.13495458446988146
-0.10199021730462036,-0.10199021730462036
-0.020328489554314495,-0.020328489554314495
0.056088907056063474,0.056088907056063474
0.061333238195991374,0.061333238195991374
0.056088907056063474,0.056088907056063474
0.07706623161577507,0.07706623161577507
0.13550306431782883,0.13550306431782883
0.1737117626230178,0.1737117626230178
0.2141680314167473,0.2141680314167473
0.25387511004762997,0.25387511004762997
0.29358218867851266,0.29358218867851266
0.26810972314172,0.26810972314172
0.2141680314167473,0.2141680314167473
0.17296257246017097,0.17296257246017097
0.2141680314167473,0.2141680314167473
0.27110648379310737,0.27110648379310737
0.29358218867851266,0.29358218867851266
0.2493799690705489,0.2493799690705489
0.2141680314167473,0.2141680314167473
0.20517774946258518,0.20517774946258518
0.2141680314167473,0.2141680314167473
0.20143179864835098,0.20143179864835098
0.2141680314167473,0.2141680314167473
0.26885891330456685,0.26885891330456685
0.372996345940278,0.372996345940278
0.510847335904097,0.510847335904097
0.768568751923411,0.768568751923411
1.2008514758860394,1.2008514758860394
1.7972068455121262,1.7972068455121262
2.4370152445833297,2.4370152445833297
3.0640874108861373,3.0640874108861373
3.6514524985580623,3.6514524985580623
4.172139661736618,4.172139661736618
4.436603789221554,4.436603789221554
4.251553818998383,4.251553818998383
3.5390739741310355,3.5390739741310355
2.509686690379474,2.509686690379474
1.4525793706025785,1.4525793706025785
0.6104896275627272,0.6104896275627272
0.020127779239415017,0.020127779239415017
-0.3394834989270695,-0.3394834989270695
-0.5545010756641134,-0.5545010756641134
-0.656390937811284,-0.656390937811284
-0.6916028754650857,-0.6916028754650857
-0.656390937811284,-0.656390937811284
-0.6091919575519329,-0.6091919575519329
-0.5769767805495187,-0.5769767805495187
-0.5702340690838972,-0.5702340690838972
-0.4983118134506002,-0.4983118134506002
-0.3552164923468532,-0.3552164923468532
-0.1814043745663857,-0.1814043745663857
-0.059286378022350324,-0.059286378022350324
0.056088907056063474,0.056088907056063474
0.1722133822973241,0.1722133822973241
0.29358218867851266,0.29358218867851266
0.34827307056633217,0.34827307056633217
0.372996345940278,0.372996345940278
0.37074877545173746,0.37074877545173746
0.372996345940278,0.372996345940278
0.3550157820319538,0.3550157820319538
0.372996345940278,0.372996345940278
0.43517912945656595,0.43517912945656595
0.5310754703009618,0.5310754703009618
0.5865155423516282,0.5865155423516282
0.6104896275627272,0.6104896275627272
0.6284701914710514,0.6284701914710514
0.6891545946616456,0.6891545946616456
0.7475914273636994,0.7475914273636994
0.768568751923411,0.768568751923411
0.7273632929668347,0.7273632929668347
0.6891545946616456,0.6891545946616456
0.6741707914047088,0.6741707914047088
0.6891545946616456,0.6891545946616456
0.6899037848244925,0.6899037848244925
0.6891545946616456,0.6891545946616456
0.6614345586363125,0.6614345586363125
0.6104896275627272,0.6104896275627272
0.5423133227436645,0.5423133227436645
0.5310754703009618,0.5310754703009618
0.5475576538835923,0.5475576538835923
0.5310754703009618,0.5310754703009618
0.4389250802708001,0.4389250802708001
0.372996345940278,0.372996345940278
0.3677520148003501,0.3677520148003501
0.372996345940278,0.372996345940278
0.29657894932990003,0.29657894932990003
0.2141680314167473,0.2141680314167473
0.20817451011397256,0.20817451011397256
0.29358218867851266,0.29358218867851266
0.35876173284618795,0.35876173284618795
0.372996345940278,0.372996345940278
0.3370352181236295,0.3370352181236295
0.29358218867851266,0.29358218867851266
0.215666411742441,0.215666411742441
0.13550306431782883,0.13550306431782883
0.08905327422132456,0.08905327422132456
0.13550306431782883,0.13550306431782883
0.20442855929973835,0.20442855929973835
0.2141680314167473,0.2141680314167473
0.11003059878103616,0.11003059878103616
-0.023325250205701864,-0.023325250205701864
-0.12746268284141302,-0.12746268284141302
-0.1814043745663857,-0.1814043745663857
-0.23160011547712417,-0.23160011547712417
-0.260818531828151,-0.260818531828151
-0.29078613834202477,-0.29078613834202477
-0.3394834989270695,-0.3394834989270695
-0.4338814594457717,-0.4338814594457717
-0.4983118134506002,-0.4983118134506002
-0.5125464265446902,-0.5125464265446902
-0.4983118134506002,-0.4983118134506002
-0.5117972363818434,-0.5117972363818434
-0.4983118134506002,-0.4983118134506002
-0.43313226928292486,-0.43313226928292486
-0.3394834989270695,-0.3394834989270695
-0.31326184322743006,-0.31326184322743006
-0.3394834989270695,-0.3394834989270695
-0.3687019152780964,-0.3687019152780964
-0.3394834989270695,-0.3394834989270695
-0.2967796596447995,-0.2967796596447995
-0.260818531828151,-0.260818531828151
-0.23984120726843944,-0.23984120726843944
-0.1814043745663857,-0.1814043745663857
-0.10124102714177352,-0.10124102714177352
-0.023325250205701864,-0.023325250205701864
0.01263587761094659,0.01263587761094659
0.056088907056063474,0.056088907056063474
0.12426521187512617,0.12426521187512617
0.2141680314167473,0.2141680314167473
0.2471323985820084,0.2471323985820084
0.2141680314167473,0.2141680314167473
0.12426521187512617,0.12426521187512617
0.056088907056063474,0.056088907056063474
0.02312453989080239,0.02312453989080239
0.056088907056063474,0.056088907056063474
0.09954193650118036,0.09954193650118036
0.13550306431782883,0.13550306431782883
0.11003059878103616,0.11003059878103616
0.056088907056063474,0.056088907056063474
-0.004595496134530795,-0.004595496134530795
-0.023325250205701864,-0.023325250205701864
-0.026322010857089236,-0.026322010857089236
-0.023325250205701864,-0.023325250205701864
-0.01583334857723344,-0.01583334857723344
0.056088907056063474,0.056088907056063474
0.18794637571710782,0.18794637571710782
0.372996345940278,0.372996345940278
0.6127371980512677,0.6127371980512677
1.00606203354586,1.00606203354586
1.5761957474723076,1.5761957474723076
2.2721934087570244,2.2721934087570244
2.9726862110188224,2.9726862110188224
3.6184881313928012,3.6184881313928012
4.091976314312006,4.091976314312006
4.251553818998383,4.251553818998383
3.9638647964651956,3.9638647964651956
3.3015806925085864,3.3015806925085864
2.4325201036062487,2.4325201036062487
1.559713563889677,1.559713563889677
0.7895460764831226,0.7895460764831226
0.2141680314167473,0.2141680314167473
-0.1551827188667462,-0.1551827188667462
-0.3394834989270695,-0.3394834989270695
-0.4398749807485465,-0.4398749807485465
-0.4983118134506002,-0.4983118134506002
-0.551504315012726,-0.551504315012726
-0.5769767805495187,-0.5769767805495187
-0.5927097739693024,-0.5927097739693024
-0.5769767805495187,-0.5769767805495187
-0.5335237511044019,-0.5335237511044019
-0.4188976561888349,-0.4188976561888349
-0.26456448264238525,-0.26456448264238525
-0.10199021730462036,-0.10199021730462036
-0.02182686988000818,-0.02182686988000818
-0.023325250205701864,-0.023325250205701864
-0.10498697795600773,-0.10498697795600773
-0.1814043745663857,-0.1814043745663857
-0.2248574040115026,-0.2248574040115026
-0.1814043745663857,-0.1814043745663857
-0.0817620829077556,-0.0817620829077556
0.056088907056063474,0.056088907056063474
0.15722957904038726,0.15722957904038726
0.2141680314167473,0.2141680314167473
0.23964049695353998,0.23964049695353998
0.29358218867851266,0.29358218867851266
0.3497714508920259,0.3497714508920259
0.372996345940278,0.372996345940278
0.33104169682085477,0.33104169682085477
0.29358218867851266,0.29358218867851266
0.2853410968871974,0.2853410968871974
0.29358218867851266,0.29358218867851266
0.2598686313504047,0.2598686313504047
0.2141680314167473,0.2141680314167473
0.17146419213447728,0.17146419213447728
0.13550306431782883,0.13550306431782883
0.05908566770745084,0.05908566770745084
-0.023325250205701864,-0.023325250205701864
-0.0870064140476835,-0.0870064140476835
-0.10199021730462036,-0.10199021730462036
-0.10648535828170141,-0.10648535828170141
-0.10199021730462036,-0.10199021730462036
-0.1267134926785662,-0.1267134926785662
-0.1814043745663857,-0.1814043745663857
-0.2735547645965474,-0.2735547645965474
-0.3394834989270695,-0.3394834989270695
-0.3619592038124748,-0.3619592038124748
-0.3394834989270695,-0.3394834989270695
-0.3319915972986011,-0.3319915972986011
-0.3394834989270695,-0.3394834989270695
-0.37619381690656484,-0.37619381690656484
-0.4188976561888349,-0.4188976561888349
-0.47508691840234807,-0.47508691840234807
-0.4983118134506002,-0.4983118134506002
-0.4810804397051228,-0.4810804397051228
-0.4188976561888349,-0.4188976561888349
-0.36795272511524957,-0.36795272511524957
-0.3394834989270695,-0.3394834989270695
-0.34322944974130376,-0.34322944974130376
-0.3394834989270695,-0.3394834989270695
-0.337235928438529,-0.337235928438529
-0.3394834989270695,-0.3394834989270695
-0.39567276114058275,-0.39567276114058275
-0.4983118134506002,-0.4983118134506002
-0.6316676624373382,-0.6316676624373382
-0.7358050950730494,-0.7358050950730494
-0.8212127736375895,-0.8212127736375895
-0.8938842194337332,-0.8938842194337332
-0.9643080947413365,-0.9643080947413365
-0.9732983766954986,-0.9732983766954986
-0.9156107341562917,-0.9156107341562917
-0.8144700621719679,-0.8144700621719679
-0.7313099540959683,-0.7313099540959683
-0.656390937811284,-0.656390937811284
-0.6031984362491583,-0.6031984362491583
-0.5769767805495187,-0.5769767805495187
-0.6114395280404735,-0.6114395280404735
-0.656390937811284,-0.656390937811284
-0.680365023022383,-0.680365023022383
-0.656390937811284,-0.656390937811284
-0.6256741411345635,-0.6256741411345635
-0.5769767805495187,-0.5769767805495187
-0.5132956167075371,-0.5132956167075371
-0.4188976561888349,-0.4188976561888349
-0.35371811202115955,-0.35371811202115955
-0.3394834989270695,-0.3394834989270695
-0.3829365283721864,-0.3829365283721864
-0.4188976561888349,-0.4188976561888349
-0.43313226928292486,-0.43313226928292486
-0.4188976561888349,-0.4188976561888349
-0.4016662824433575,-0.4016662824433575
-0.3394834989270695,-0.3394834989270695
-0.23534606629135837,-0.23534606629135837
-0.10199021730462036,-0.10199021730462036
-0.03306472232271082,-0.03306472232271082
-0.023325250205701864,-0.023325250205701864
-0.04879771574249452,-0.04879771574249452
-0.023325250205701864,-0.023325250205701864
0.023873730053649234,0.023873730053649234
0.056088907056063474,0.056088907056063474
0.021626159565108705,0.021626159565108705
-0.023325250205701864,-0.023325250205701864
-0.04355338460256662,-0.04355338460256662
-0.023325250205701864,-0.023325250205701864
-0.01658253874008028,-0.01658253874008028
-0.023325250205701864,-0.023325250205701864
-0.025572820694242392,-0.025572820694242392
0.056088907056063474,0.056088907056063474
0.272604864118801,0.272604864118801
0.6891545946616456,0.6891545946616456
1.2900051052648136,1.2900051052648136
2.0347001271345753,2.0347001271345753
2.83333684072931,2.83333684072931
3.6184881313928012,3.6184881313928012
4.247807868184149,4.247807868184149
4.568461257882598,4.568461257882598
4.432108648244473,4.432108648244473
3.8559814130152503,3.8559814130152503
2.956204027436192,2.956204027436192
1.956035160035657,1.956035160035657
1.0442707318510491,1.0442707318510491
0.372996345940278,0.372996345940278
-0.06677827965081874,-0.06677827965081874
-0.3394834989270695,-0.3394834989270695
-0.5387680822443297,-0.5387680822443297
-0.656390937811284,-0.656390937811284
-0.7118310098619505,-0.7118310098619505
-0.7358050950730494,-0.7358050950730494
-0.8054797802178058,-0.8054797802178058
-0.8938842194337332,-0.8938842194337332
-0.9448291505073185,-0.9448291505073185
-0.8938842194337332,-0.8938842194337332
-0.804730590054959,-0.804730590054959
-0.7358050950730494,-0.7358050950730494
-0.7358050950730494,-0.7358050950730494
-0.7358050950730494,-0.7358050950730494
-0.714078580350491,-0.714078580350491
-0.656390937811284,-0.656390937811284
-0.6399087542286535,-0.6399087542286535
-0.656390937811284,-0.656390937811284
-0.6863585443251577,-0.6863585443251577
-0.656390937811284,-0.656390937811284
-0.5867162526665277,-0.5867162526665277
-0.4983118134506002,-0.4983118134506002
-0.4248911774916096,-0.4248911774916096
-0.3394834989270695,-0.3394834989270695
-0.2555742006882231,-0.2555742006882231
-0.1814043745663857,-0.1814043745663857
-0.14394486642404355,-0.14394486642404355
-0.10199021730462036,-0.10199021730462036
-0.05479123704526927,-0.05479123704526927
-0.023325250205701864,-0.023325250205701864
-0.0727718009535935,-0.0727718009535935
-0.1814043745663857,-0.1814043745663857
-0.29453208915625895,-0.29453208915625895
-0.3394834989270695,-0.3394834989270695
-0.34322944974130376,-0.34322944974130376
-0.3394834989270695,-0.3394834989270695
-0.3739462464180243,-0.3739462464180243
-0.4188976561888349,-0.4188976561888349
-0.4668458266110328,-0.4668458266110328
-0.4983118134506002,-0.4983118134506002
-0.5395172724071766,-0.5395172724071766
-0.5769767805495187,-0.5769767805495187
-0.6204298099946356,-0.6204298099946356
-0.656390937811284,-0.656390937811284
-0.7035899180706351,-0.7035899180706351
-0.7358050950730494,-0.7358050950730494
-0.7530364688185268,-0.7530364688185268
-0.7358050950730494,-0.7358050950730494
-0.7050882983963288,-0.7050882983963288
-0.656390937811284,-0.656390937811284
-0.6181822395060951,-0.6181822395060951
-0.5769767805495187,-0.5769767805495187
-0.5237842789873929,-0.5237842789873929
-0.4188976561888349,-0.4188976561888349
-0.3125126530645832,-0.3125126530645832
-0.260818531828151,-0.260818531828151
-0.2975288498076463,-0.2975288498076463
-0.3394834989270695,-0.3394834989270695
-0.34847378088123165,-0.34847378088123165
-0.3394834989270695,-0.3394834989270695
-0.39567276114058275,-0.39567276114058275
-0.4983118134506002,-0.4983118134506002
-0.6024492460863113,-0.6024492460863113
-0.656390937811284,-0.656390937811284
-0.694599636116473,-0.694599636116473
-0.7358050950730494,-0.7358050950730494
-0.80922573103204,-0.80922573103204
-0.8938842194337332,-0.8938842194337332
-0.9875329897895886,-0.9875329897895886
-1.0519633437944171,-1.0519633437944171
-1.0819309503082908,-1.0819309503082908
-1.0519633437944171,-1.0519633437944171
-0.9875329897895886,-0.9875329897895886
-0.8938842194337332,-0.8938842194337332
-0.80922573103204,-0.80922573103204
-0.7358050950730494,-0.7358050950730494
-0.6931012557907793,-0.6931012557907793
-0.656390937811284,-0.656390937811284
-0.6264233312974103,-0.6264233312974103
-0.5769767805495187,-0.5769767805495187
-0.532774560941555,-0.532774560941555
-0.4983118134506002,-0.4983118134506002
-0.4960642429620597,-0.4960642429620597
-0.4983118134506002,-0.4983118134506002
-0.5043053347533749,-0.5043053347533749
-0.4983118134506002,-0.4983118134506002
-0.5028069544276813,-0.5028069544276813
-0.4983118134506002,-0.4983118134506002
-0.5005593839391408,-0.5005593839391408
-0.4983118134506002,-0.4983118134506002
-0.5290286101273207,-0.5290286101273207
-0.5769767805495187,-0.5769767805495187
-0.6601368886255182,-0.6601368886255182
-0.7358050950730494,-0.7358050950730494
-0.804730590054959,-0.804730590054959
-0.8144700621719679,-0.8144700621719679
-0.7657727015869231,-0.7657727015869231
-0.656390937811284,-0.656390937811284
-0.556748646152654,-0.556748646152654
-0.4983118134506002,-0.4983118134506002
-0.4968134331249065,-0.4968134331249065
-0.4983118134506002,-0.4983118134506002
-0.46085230530825805,-0.46085230530825805
-0.3394834989270695,-0.3394834989270695
-0.151436768052512,-0.151436768052512
0.13550306431782883,0.13550306431782883
0.5797728308860066,0.5797728308860066
1.2435553151683094,1.2435553151683094
2.0144719927377106,2.0144719927377106
2.747179972001923,2.747179972001923
3.395229462864442,3.395229462864442
4.014060537375934,4.014060537375934
4.420121605638923,4.420121605638923
4.251553818998383,4.251553818998383
3.338291010488082,3.338291010488082
2.0347001271345753,2.0347001271345753
0.8367450567424737,0.8367450567424737
-0.023325250205701864,-0.023325250205701864
-0.6369119935772661,-0.6369119935772661
-1.0519633437944171,-1.0519633437944171
-1.243006835320362,-1.243006835320362
-1.2107916583179477,-1.2107916583179477
-1.1104001764964708,-1.1104001764964708
-1.0519633437944171,-1.0519633437944171
-1.0572076749343449,-1.0572076749343449
-1.0519633437944171,-1.0519633437944171
-1.0444714421659487,-1.0444714421659487
-1.0519633437944171,-1.0519633437944171
-1.0841785207968313,-1.0841785207968313
-1.0519633437944171,-1.0519633437944171
-0.947076720995859,-0.947076720995859
-0.8144700621719679,-0.8144700621719679
-0.7552840393070673,-0.7552840393070673
-0.7358050950730494,-0.7358050950730494
-0.7380526655615899,-0.7380526655615899
-0.7358050950730494,-0.7358050950730494
-0.7567824196327609,-0.7567824196327609
-0.7358050950730494,-0.7358050950730494
-0.6646320296025994,-0.6646320296025994
-0.5769767805495187,-0.5769767805495187
-0.5365205117557892,-0.5365205117557892
-0.4983118134506002,-0.4983118134506002
-0.4293863184686907,-0.4293863184686907
-0.3394834989270695,-0.3394834989270695
-0.29078613834202477,-0.29078613834202477
-0.260818531828151,-0.260818531828151
-0.2271049745000431,-0.2271049745000431
-0.1814043745663857,-0.1814043745663857
-0.16941733196083622,-0.16941733196083622
-0.1814043745663857,-0.1814043745663857
-0.218114692545881,-0.218114692545881
-0.260818531828151,-0.260818531828151
-0.3155094137159706,-0.3155094137159706
-0.3394834989270695,-0.3394834989270695
-0.3394834989270695,-0.3394834989270695
-0.3394834989270695,-0.3394834989270695
-0.40091709228051065,-0.40091709228051065
-0.4983118134506002,-0.4983118134506002
-0.5979541051092303,-0.5979541051092303
-0.656390937811284,-0.656390937811284
-0.699843967256401,-0.699843967256401
-0.7358050950730494,-0.7358050950730494
-0.7830040753324005,-0.7830040753324005
-0.8144700621719679,-0.8144700621719679
-0.8324506260802921,-0.8324506260802921
-0.8144700621719679,-0.8144700621719679
-0.7830040753324005,-0.7830040753324005
-0.7358050950730494,-0.7358050950730494
-0.6975963967678604,-0.6975963967678604
-0.656390937811284,-0.656390937811284
-0.6226773804831761,-0.6226773804831761
-0.5769767805495187,-0.5769767805495187
-0.537269701918636,-0.537269701918636
-0.4983118134506002,-0.4983118134506002
-0.48782315117074443,-0.48782315117074443
-0.4983118134506002,-0.4983118134506002
-0.5380188920814829,-0.5380188920814829
-0.5769767805495187,-0.5769767805495187
-0.6219281903203293,-0.6219281903203293
-0.656390937811284,-0.656390937811284
-0.6983455869307073,-0.6983455869307073
-0.7358050950730494,-0.7358050950730494
-0.8024830195664184,-0.8024830195664184
-0.8938842194337332,-0.8938842194337332
-0.9987708422322912,-0.9987708422322912
-1.0519633437944171,-1.0519633437944171
-1.0609536257485792,-1.0609536257485792
-1.0519633437944171,-1.0519633437944171
-1.0661979568885072,-1.0661979568885072
-1.0519633437944171,-1.0519633437944171
-0.9905297504409759,-0.9905297504409759
-0.8938842194337332,-0.8938842194337332
-0.83769495722022,-0.83769495722022
-0.8144700621719679,-0.8144700621719679
-0.7957403081007968,-0.7957403081007968
-0.7358050950730494,-0.7358050950730494
-0.680365023022383,-0.680365023022383
-0.656390937811284,-0.656390937811284
-0.6721239312310677,-0.6721239312310677
-0.656390937811284,-0.656390937811284
-0.5942081542949961,-0.5942081542949961
-0.4983118134506002,-0.4983118134506002
-0.4391257905856996,-0.4391257905856996
-0.4188976561888349,-0.4188976561888349
-0.42713874798015017,-0.42713874798015017
-0.4188976561888349,-0.4188976561888349
-0.4166500857002943,-0.4166500857002943
-0.4188976561888349,-0.4188976561888349
-0.46085230530825805,-0.46085230530825805
-0.4983118134506002,-0.4983118134506002
-0.5050545249162218,-0.5050545249162218
-0.4188976561888349,-0.4188976561888349
-0.29228451866771843,-0.29228451866771843
-0.1814043745663857,-0.1814043745663857
-0.15817947951813358,-0.15817947951813358
-0.1814043745663857,-0.1814043745663857
-0.20388007945179099,-0.20388007945179099
-0.1814043745663857,-0.1814043745663857
-0.16417300082090833,-0.16417300082090833
-0.1814043745663857,-0.1814043745663857
-0.21886388270872784,-0.21886388270872784
-0.1814043745663857,-0.1814043745663857
-0.04355338460256662,-0.04355338460256662
0.2141680314167473,0.2141680314167473
0.6412064242394477,0.6412064242394477
1.3222202822672278,1.3222202822672278
2.1470786515616016,2.1470786515616016
2.9060082865254535,2.9060082865254535
3.4971193250116124,3.4971193250116124
4.014060537375934,4.014060537375934
4.346700969679932,4.346700969679932
4.172139661736618,4.172139661736618
3.332297489185307,3.332297489185307
2.1935284416581062,2.1935284416581062
1.2150860889801294,1.2150860889801294
0.5310754703009618,0.5310754703009618
-0.03231553215986398,-0.03231553215986398
-0.4983118134506002,-0.4983118134506002
-0.7695186524011574,-0.7695186524011574
-0.8144700621719679,-0.8144700621719679
-0.7979878785893373,-0.7979878785893373
-0.8144700621719679,-0.8144700621719679
-0.8699101342226343,-0.8699101342226343
-0.8938842194337332,-0.8938842194337332
-0.9021253112250485,-0.9021253112250485
-0.8938842194337332,-0.8938842194337332
-0.8818971768281837,-0.8818971768281837
-0.8144700621719679,-0.8144700621719679
-0.7050882983963288,-0.7050882983963288
-0.5769767805495187,-0.5769767805495187
-0.532774560941555,-0.532774560941555
-0.5769767805495187,-0.5769767805495187
-0.6826125935109235,-0.6826125935109235
-0.7358050950730494,-0.7358050950730494
-0.7268148131188873,-0.7268148131188873
-0.656390937811284,-0.656390937811284
-0.5642405477811224,-0.5642405477811224
-0.4188976561888349,-0.4188976561888349
-0.23160011547712417,-0.23160011547712417
-0.023325250205701864,-0.023325250205701864
0.1302587331779009,0.1302587331779009
0.2141680314167473,0.2141680314167473
0.2261550740222968,0.2261550740222968
0.2141680314167473,0.2141680314167473
0.19918422815981046,0.19918422815981046
0.2141680314167473,0.2141680314167473
0.22765345434799047,0.22765345434799047
0.2141680314167473,0.2141680314167473
0.14074739545775672,0.14074739545775672
0.056088907056063474,0.056088907056063474
-0.006843066623071323,-0.006843066623071323
-0.023325250205701864,-0.023325250205701864
-0.04879771574249452,-0.04879771574249452
-0.10199021730462036,-0.10199021730462036
-0.18814708603200728,-0.18814708603200728
-0.260818531828151,-0.260818531828151
-0.33648673827568215,-0.33648673827568215
-0.4188976561888349,-0.4188976561888349
-0.4990610036134471,-0.4990610036134471
-0.4983118134506002,-0.4983118134506002
-0.4241419873287628,-0.4241419873287628
-0.3394834989270695,-0.3394834989270695
-0.32749645632152,-0.32749645632152
-0.3394834989270695,-0.3394834989270695
-0.3244996956701327,-0.3244996956701327
-0.260818531828151,-0.260818531828151
-0.21212117124310625,-0.21212117124310625
-0.1814043745663857,-0.1814043745663857
-0.17840761391499832,-0.17840761391499832
-0.1814043745663857,-0.1814043745663857
-0.19563898766047572,-0.19563898766047572
-0.1814043745663857,-0.1814043745663857
-0.16492219098375516,-0.16492219098375516
-0.1814043745663857,-0.1814043745663857
-0.260818531828151,-0.260818531828151
-0.3394834989270695,-0.3394834989270695
-0.41065656439751963,-0.41065656439751963
-0.4983118134506002,-0.4983118134506002
-0.6324168526001851,-0.6324168526001851
-0.7358050950730494,-0.7358050950730494
-0.7845024556580942,-0.7845024556580942
-0.8144700621719679,-0.8144700621719679
-0.8781512260139496,-0.8781512260139496
-0.8938842194337332,-0.8938842194337332
-0.8107241113577337,-0.8107241113577337
-0.656390937811284,-0.656390937811284
-0.5477583641984919,-0.5477583641984919
-0.4983118134506002,-0.4983118134506002
-0.4915691019849786,-0.4915691019849786
-0.4983118134506002,-0.4983118134506002
-0.5395172724071766,-0.5395172724071766
-0.5769767805495187,-0.5769767805495187
-0.5942081542949961,-0.5942081542949961
-0.5769767805495187,-0.5769767805495187
-0.5769767805495187,-0.5769767805495187
-0.5769767805495187,-0.5769767805495187
-0.5642405477811224,-0.5642405477811224
-0.4983118134506002,-0.4983118134506002
-0.4144025152117538,-0.4144025152117538
-0.3394834989270695,-0.3394834989270695
-0.323001315344439,-0.323001315344439
-0.3394834989270695,-0.3394834989270695
-0.3627083939753217,-0.3627083939753217
-0.3394834989270695,-0.3394834989270695
-0.3200045546930516,-0.3200045546930516
-0.3394834989270695,-0.3394834989270695
-0.4301355086315375,-0.4301355086315375
-0.4983118134506002,-0.4983118134506002
-0.5028069544276813,-0.5028069544276813
-0.4188976561888349,-0.4188976561888349
-0.3095158924131958,-0.3095158924131958
-0.1814043745663857,-0.1814043745663857
-0.0817620829077556,-0.0817620829077556
-0.023325250205701864,-0.023325250205701864
-0.022576060042855024,-0.022576060042855024
-0.023325250205701864,-0.023325250205701864
-0.018830109228620807,-0.018830109228620807
-0.023325250205701864,-0.023325250205701864
-0.05628961737096295,-0.05628961737096295
-0.023325250205701864,-0.023325250205701864
0.15872795936608095,0.15872795936608095
0.5310754703009618,0.5310754703009618
1.0525118236423645,1.0525118236423645
1.7185418784132076,1.7185418784132076
2.490207746145456,2.490207746145456
3.3015806925085864,3.3015806925085864
3.9923340226533757,3.9923340226533757
4.4096329433590675,4.4096329433590675
4.38266209749658,4.38266209749658
3.8559814130152503,3.8559814130152503
2.9045099061997597,2.9045099061997597
1.7972068455121262,1.7972068455121262
0.7917936469716631,0.7917936469716631
0.056088907056063474,0.056088907056063474
-0.41290413488606015,-0.41290413488606015
-0.656390937811284,-0.656390937811284
-0.7702678425640042,-0.7702678425640042
-0.8144700621719679,-0.8144700621719679
-0.8571739014542379,-0.8571739014542379
-0.8938842194337332,-0.8938842194337332
-0.9395848193673906,-0.9395848193673906
-0.9732983766954986,-0.9732983766954986
-1.0017676028836786,-1.0017676028836786
-0.9732983766954986,-0.9732983766954986
-0.8833955571538774,-0.8833955571538774
-0.7358050950730494,-0.7358050950730494
-0.6241757608088698,-0.6241757608088698
-0.5769767805495187,-0.5769767805495187
-0.5934589641321493,-0.5934589641321493
-0.5769767805495187,-0.5769767805495187
-0.5402664625700234,-0.5402664625700234
-0.4983118134506002,-0.4983118134506002
-0.48257882003081654,-0.48257882003081654
-0.4188976561888349,-0.4188976561888349
-0.3050207514361148,-0.3050207514361148
-0.1814043745663857,-0.1814043745663857
-0.10723454844454826,-0.10723454844454826
-0.023325250205701864,-0.023325250205701864
0.09654517584979298,0.09654517584979298
0.2141680314167473,0.2141680314167473
0.2418880674420805,0.2418880674420805
0.2141680314167473,0.2141680314167473
0.1931907068570357,0.1931907068570357
0.2141680314167473,0.2141680314167473
0.2246566936966031,0.2246566936966031
0.2141680314167473,0.2141680314167473
0.1759593331115583,0.1759593331115583
0.13550306431782883,0.13550306431782883
0.08680570373278403,0.08680570373278403
0.056088907056063474,0.056088907056063474
0.0006488350053971049,0.0006488350053971049
-0.10199021730462036,-0.10199021730462036
-0.24883148922260157,-0.24883148922260157
-0.3394834989270695,-0.3394834989270695
-0.3567148726725469,-0.3567148726725469
-0.3394834989270695,-0.3394834989270695
-0.3522197316954659,-0.3522197316954659
-0.3394834989270695,-0.3394834989270695
-0.27430395475939423,-0.27430395475939423
-0.1814043745663857,-0.1814043745663857
-0.15593190902959306,-0.15593190902959306
-0.1814043745663857,-0.1814043745663857
-0.2076260302660252,-0.2076260302660252
-0.1814043745663857,-0.1814043745663857
-0.16192543033236778,-0.16192543033236778
-0.1814043745663857,-0.1814043745663857
-0.2405903974312863,-0.2405903974312863
-0.260818531828151,-0.260818531828151
-0.2338476859656647,-0.2338476859656647
-0.1814043745663857,-0.1814043745663857
-0.16642057130944884,-0.16642057130944884
-0.1814043745663857,-0.1814043745663857
-0.24208877775697996,-0.24208877775697996
-0.3394834989270695,-0.3394834989270695
-0.47508691840234807,-0.47508691840234807
-0.5769767805495187,-0.5769767805495187
-0.6339152329258788,-0.6339152329258788
-0.656390937811284,-0.656390937811284
-0.6781174525338425,-0.6781174525338425
-0.656390937811284,-0.656390937811284
-0.6069443870633924,-0.6069443870633924
-0.5769767805495187,-0.5769767805495187
-0.6174330493432483,-0.6174330493432483
-0.656390937811284,-0.656390937811284
-0.6623844591140587,-0.6623844591140587
-0.656390937811284,-0.656390937811284
-0.699843967256401,-0.699843967256401
-0.7358050950730494,-0.7358050950730494
-0.7215704819789593,-0.7215704819789593
-0.656390937811284,-0.656390937811284
-0.6129379083661671,-0.6129379083661671
-0.5769767805495187,-0.5769767805495187
-0.5417648428957171,-0.5417648428957171
-0.4983118134506002,-0.4983118134506002
-0.4915691019849786,-0.4915691019849786
-0.4983118134506002,-0.4983118134506002
-0.5065529052419154,-0.5065529052419154
-0.4983118134506002,-0.4983118134506002
-0.5035561445905281,-0.5035561445905281
-0.4983118134506002,-0.4983118134506002
-0.47808367905373544,-0.47808367905373544
-0.4188976561888349,-0.4188976561888349
-0.34847378088123165,-0.34847378088123165
-0.260818531828151,-0.260818531828151
-0.20462926961463782,-0.20462926961463782
-0.1814043745663857,-0.1814043745663857
-0.2008833188004036,-0.2008833188004036
-0.1814043745663857,-0.1814043745663857
-0.11922159105009775,-0.11922159105009775
-0.023325250205701864,-0.023325250205701864
0.03286401200781135,0.03286401200781135
0.056088907056063474,0.056088907056063474
0.054590526730369786,0.054590526730369786
0.056088907056063474,0.056088907056063474
0.02911806119357713,0.02911806119357713
-0.023325250205701864,-0.023325250205701864
-0.08850479437337719,-0.08850479437337719
-0.10199021730462036,-0.10199021730462036
-0.042055004276872934,-0.042055004276872934
0.13550306431782883,0.13550306431782883
0.4643975458075928,0.4643975458075928
1.00606203354586,1.00606203354586
1.716294307924667,1.716294307924667
2.509686690379474,2.509686690379474
3.2723622761575597,3.2723622761575597
3.934646380114169,3.934646380114169
4.327222025445915,4.327222025445915
4.251553818998383,4.251553818998383
3.605751898624405,3.605751898624405
2.589100847641239,2.589100847641239
1.507270252490398,1.507270252490398
0.6104896275627272,0.6104896275627272
-0.05703880753380979,-0.05703880753380979
-0.4983118134506002,-0.4983118134506002
-0.7687694622383104,-0.7687694622383104
-0.8938842194337332,-0.8938842194337332
-0.9313437275760753,-0.9313437275760753
-0.8938842194337332,-0.8938842194337332
-0.8414409080344543,-0.8414409080344543
-0.8144700621719679,-0.8144700621719679
-0.8534279506400038,-0.8534279506400038
-0.8938842194337332,-0.8938842194337332
-0.8931350292708864,-0.8931350292708864
-0.8144700621719679,-0.8144700621719679
-0.7065866787220225,-0.7065866787220225
-0.5769767805495187,-0.5769767805495187
-0.4818296298679697,-0.4818296298679697
-0.4188976561888349,-0.4188976561888349
-0.4188976561888349,-0.4188976561888349
-0.4188976561888349,-0.4188976561888349
-0.4046630430947449,-0.4046630430947449
-0.3394834989270695,-0.3394834989270695
-0.2630661023166916,-0.2630661023166916
-0.1814043745663857,-0.1814043745663857
-0.13195782381849408,-0.13195782381849408
-0.10199021730462036,-0.10199021730462036
-0.08475884355914298,-0.08475884355914298
-0.023325250205701864,-0.023325250205701864
0.0793138021043156,0.0793138021043156
0.2141680314167473,0.2141680314167473
0.3370352181236295,0.3370352181236295
0.4516613130391965,0.4516613130391965
0.5220851883467997,0.5220851883467997
0.5310754703009618,0.5310754703009618
0.4591532146676649,0.4591532146676649
0.372996345940278,0.372996345940278
0.31081356242399005,0.31081356242399005
0.29358218867851266,0.29358218867851266
0.26361458216463896,0.26361458216463896
0.2141680314167473,0.2141680314167473
0.13625225448067566,0.13625225448067566
0.056088907056063474,0.056088907056063474
-0.05404204688242242,-0.05404204688242242
-0.1814043745663857,-0.1814043745663857
-0.3027731809475742,-0.3027731809475742
-0.3394834989270695,-0.3394834989270695
-0.2900369481791779,-0.2900369481791779
-0.1814043745663857,-0.1814043745663857
-0.09075236486191772,-0.09075236486191772
-0.023325250205701864,-0.023325250205701864
0.018629398913721333,0.018629398913721333
0.056088907056063474,0.056088907056063474
0.06208242835883822,0.06208242835883822
0.056088907056063474,0.056088907056063474
0.042603484124820304,0.042603484124820304
0.056088907056063474,0.056088907056063474
0.06432999884737875,0.06432999884737875
0.056088907056063474,0.056088907056063474
0.013385067773793433,0.013385067773793433
-0.023325250205701864,-0.023325250205701864
-0.06003556818519716,-0.06003556818519716
-0.10199021730462036,-0.10199021730462036
-0.18065518440353887,-0.18065518440353887
-0.260818531828151,-0.260818531828151
-0.3424802595784569,-0.3424802595784569
-0.4188976561888349,-0.4188976561888349
-0.5102988560561497,-0.5102988560561497
-0.5769767805495187,-0.5769767805495187
-0.6234265706460229,-0.6234265706460229
-0.656390937811284,-0.656390937811284
-0.7073358688848693,-0.7073358688848693
-0.7358050950730494,-0.7358050950730494
-0.7425478065386709,-0.7425478065386709
-0.7358050950730494,-0.7358050950730494
-0.7477921376785989,-0.7477921376785989
-0.7358050950730494,-0.7358050950730494
-0.699094777093554,-0.699094777093554
-0.656390937811284,-0.656390937811284
-0.6586385082998246,-0.6586385082998246
-0.656390937811284,-0.656390937811284
-0.6084427673890861,-0.6084427673890861
-0.4983118134506002,-0.4983118134506002
-0.40091709228051065,-0.40091709228051065
-0.3394834989270695,-0.3394834989270695
-0.31176346290173634,-0.31176346290173634
-0.260818531828151,-0.260818531828151
-0.20912441059171888,-0.20912441059171888
-0.1814043745663857,-0.1814043745663857
-0.21361955156879994,-0.21361955156879994
-0.260818531828151,-0.260818531828151
-0.3102650825760427,-0.3102650825760427
-0.3394834989270695,-0.3394834989270695
-0.3672035349524027,-0.3672035349524027
-0.3394834989270695,-0.3394834989270695
-0.2735547645965474,-0.2735547645965474
-0.1814043745663857,-0.1814043745663857
-0.1327070139813409,-0.1327070139813409
-0.10199021730462036,-0.10199021730462036
-0.0974950763275393,-0.0974950763275393
-0.10199021730462036,-0.10199021730462036
-0.12296754186433197,-0.12296754186433197
-0.10199021730462036,-0.10199021730462036
-0.05404204688242242,-0.05404204688242242
-0.023325250205701864,-0.023325250205701864
-0.06003556818519716,-0.06003556818519716
-0.10199021730462036,-0.10199021730462036
-0.10348859763031405,-0.10348859763031405
-0.023325250205701864,-0.023325250205701864
0.17521014294871148,0.17521014294871148
0.6104896275627272,0.6104896275627272
1.3109824298245252,1.3109824298245252
2.1935284416581062,2.1935284416581062
3.0768236436545338,3.0768236436545338
3.8559814130152503,3.8559814130152503
4.401391851567752,4.401391851567752
4.568461257882598,4.568461257882598
4.208100789553266,4.208100789553266
3.3809948497703517,3.3809948497703517
2.2969166841309705,2.2969166841309705
1.2435553151683094,1.2435553151683094
0.3692503951260438,0.3692503951260438
-0.260818531828151,-0.260818531828151
-0.6773682623709957,-0.6773682623709957
-0.8938842194337332,-0.8938842194337332
-0.9770443275097328,-0.9770443275097328
-0.9732983766954986,-0.9732983766954986
-0.9448291505073185,-0.9448291505073185
-0.8938842194337332,-0.8938842194337332
-0.8691609440597874,-0.8691609440597874
-0.8938842194337332,-0.8938842194337332
-0.9673048553927238,-0.9673048553927238
-0.9732983766954986,-0.9732983766954986
-0.861669042431319,-0.861669042431319
-0.656390937811284,-0.656390937811284
-0.4773344888908886,-0.4773344888908886
-0.3394834989270695,-0.3394834989270695
-0.2548250105253763,-0.2548250105253763
-0.1814043745663857,-0.1814043745663857
-0.14544324674973724,-0.14544324674973724
-0.10199021730462036,-0.10199021730462036
-0.06378151899943138,-0.06378151899943138
-0.023325250205701864,-0.023325250205701864
-0.017331728902927123,-0.017331728902927123
-0.023325250205701864,-0.023325250205701864
-0.05329285671957558,-0.05329285671957558
-0.10199021730462036,-0.10199021730462036
-0.1709157122865299,-0.1709157122865299
-0.1814043745663857,-0.1814043745663857
-0.10199021730462036,-0.10199021730462036
0.056088907056063474,0.056088907056063474
0.19918422815981046,0.19918422815981046
0.29358218867851266,0.29358218867851266
0.33628602796078266,0.33628602796078266
0.372996345940278,0.372996345940278
0.3849833885458275,0.3849833885458275
0.372996345940278,0.372996345940278
0.3257973656809269,0.3257973656809269
0.29358218867851266,0.29358218867851266
0.2606178215132516,0.2606178215132516
0.2141680314167473,0.2141680314167473
0.125014402037973,0.125014402037973
0.056088907056063474,0.056088907056063474
0.034362392333505035,0.034362392333505035
0.056088907056063474,0.056088907056063474
0.04035591363627977,0.04035591363627977
-0.023325250205701864,-0.023325250205701864
-0.11997078121294459,-0.11997078121294459
-0.1814043745663857,-0.1814043745663857
-0.2023816991260973,-0.2023816991260973
-0.1814043745663857,-0.1814043745663857
-0.1724140926122236,-0.1724140926122236
-0.1814043745663857,-0.1814043745663857
-0.20537845977748467,-0.20537845977748467
-0.1814043745663857,-0.1814043745663857
-0.11397725991016984,-0.11397725991016984
-0.023325250205701864,-0.023325250205701864
0.029867251356423975,0.029867251356423975
0.056088907056063474,0.056088907056063474
0.05908566770745084,0.05908566770745084
0.056088907056063474,0.056088907056063474
0.0013980251682439479,0.0013980251682439479
-0.10199021730462036,-0.10199021730462036
-0.2405903974312863,-0.2405903974312863
-0.3394834989270695,-0.3394834989270695
-0.3964219513034296,-0.3964219513034296
-0.4188976561888349,-0.4188976561888349
-0.45860473481971753,-0.45860473481971753
-0.4983118134506002,-0.4983118134506002
-0.5432632232214107,-0.5432632232214107
-0.5769767805495187,-0.5769767805495187
-0.6226773804831761,-0.6226773804831761
-0.656390937811284,-0.656390937811284
-0.694599636116473,-0.694599636116473
-0.7358050950730494,-0.7358050950730494
-0.813720872009121,-0.813720872009121
-0.8938842194337332,-0.8938842194337332
-0.9395848193673906,-0.9395848193673906
-0.8938842194337332,-0.8938842194337332
-0.7912451671237157,-0.7912451671237157
-0.656390937811284,-0.656390937811284
-0.5185399478474649,-0.5185399478474649
-0.3394834989270695,-0.3394834989270695
-0.1589286696809804,-0.1589286696809804
-0.023325250205701864,-0.023325250205701864
0.024622920216496074,0.024622920216496074
0.056088907056063474,0.056088907056063474
0.09579598568694614,0.09579598568694614
0.13550306431782883,0.13550306431782883
0.12950954301505407,0.12950954301505407
0.13550306431782883,0.13550306431782883
0.16696905115739621,0.16696905115739621
0.2141680314167473,0.2141680314167473
0.2141680314167473,0.2141680314167473
0.2141680314167473,0.2141680314167473
0.21641560190528783,0.21641560190528783
0.2141680314167473,0.2141680314167473
0.163223100343162,0.163223100343162
0.13550306431782883,0.13550306431782883
0.1579787692032341,0.1579787692032341
0.2141680314167473,0.2141680314167473
0.2261550740222968,0.2261550740222968
0.2141680314167473,0.2141680314167473
0.20293017897404467,0.20293017897404467
0.2141680314167473,0.2141680314167473
0.2261550740222968,0.2261550740222968
0.29358218867851266,0.29358218867851266
0.45840402450481804,0.45840402450481804
0.768568751923411,0.768568751923411
1.2285715119113725,1.2285715119113725
1.8766210027738914,1.8766210027738914
2.6595247229488423,2.6595247229488423
3.4596598168692703,3.4596598168692703
4.084484412683537,4.084484412683537
4.4096329433590675,4.4096329433590675
4.3137366025146715,4.3137366025146715
3.776567255753485,3.776567255753485
2.880535820988661,2.880535820988661
1.8766210027738914,1.8766210027738914
0.954367912309428,0.954367912309428
0.2141680314167473,0.2141680314167473
-0.3402326890899164,-0.3402326890899164
-0.656390937811284,-0.656390937811284
-0.7612775606098421,-0.7612775606098421
-0.7358050950730494,-0.7358050950730494
-0.7028407279077883,-0.7028407279077883
-0.656390937811284,-0.656390937811284
-0.5889638231550682,-0.5889638231550682
-0.4983118134506002,-0.4983118134506002
-0.43088469879438435,-0.43088469879438435
-0.3394834989270695,-0.3394834989270695
-0.20462926961463782,-0.20462926961463782
-0.023325250205701864,-0.023325250205701864
0.11752250040950458,0.11752250040950458
0.2141680314167473,0.2141680314167473
0.25687187069901735,0.25687187069901735
0.29358218867851266,0.29358218867851266
0.29358218867851266,0.29358218867851266
0.29358218867851266,0.29358218867851266
0.3025724706326748,0.3025724706326748
0.372996345940278,0.372996345940278
0.4591532146676649,0.4591532146676649
0.5310754703009618,0.5310754703009618
0.5602938866519886,0.5602938866519886
0.6104896275627272,0.6104896275627272
0.6884054044987988,0.6884054044987988
0.768568751923411,0.768568751923411
0.7850509355060415,0.7850509355060415
0.768568751923411,0.768568751923411
0.7528357585036273,0.7528357585036273
0.768568751923411,0.768568751923411
0.7723147027376452,0.7723147027376452
0.768568751923411,0.768568751923411
0.7565817093178615,0.7565817093178615
0.768568751923411,0.768568751923411
0.773063892900492,0.773063892900492
0.768568751923411,0.768568751923411
0.7296108634553752,0.7296108634553752
0.6891545946616456,0.6891545946616456
0.6412064242394477,0.6412064242394477
0.6104896275627272,0.6104896275627272
0.5700333587689976,0.5700333587689976
0.5310754703009618,0.5310754703009618
0.45990240483051176,0.45990240483051176
0.372996345940278,0.372996345940278
0.27110648379310737,0.27110648379310737
0.2141680314167473,0.2141680314167473
0.19768584783411677,0.19768584783411677
0.2141680314167473,0.2141680314167473
0.21491722157959414,0.21491722157959414
0.2141680314167473,0.2141680314167473
0.20517774946258518,0.20517774946258518
0.2141680314167473,0.2141680314167473
0.23289778548791837,0.23289778548791837
0.29358218867851266,0.29358218867851266
0.3714979656145843,0.3714979656145843
0.4516613130391965,0.4516613130391965
0.49511434248431335,0.49511434248431335
0.5310754703009618,0.5310754703009618
0.5475576538835923,0.5475576538835923
0.5310754703009618,0.5310754703009618
0.43068398847948486,0.43068398847948486
0.29358218867851266,0.29358218867851266
0.1759593331115583,0.1759593331115583
0.13550306431782883,0.13550306431782883
0.11152897910672985,0.11152897910672985
0.056088907056063474,0.056088907056063474
-0.06602908948797191,-0.06602908948797191
-0.1814043745663857,-0.1814043745663857
-0.2510790597111421,-0.2510790597111421
-0.260818531828151,-0.260818531828151
-0.2855418072020969,-0.2855418072020969
-0.3394834989270695,-0.3394834989270695
-0.4069106135832854,-0.4069106135832854
-0.4188976561888349,-0.4188976561888349
-0.4091581840718259,-0.4091581840718259
-0.4188976561888349,-0.4188976561888349
-0.4773344888908886,-0.4773344888908886
-0.4983118134506002,-0.4983118134506002
-0.4488652627027086,-0.4488652627027086
-0.3394834989270695,-0.3394834989270695
-0.2533266301996826,-0.2533266301996826
-0.1814043745663857,-0.1814043745663857
-0.11172968942162932,-0.11172968942162932
-0.023325250205701864,-0.023325250205701864
0.03286401200781135,0.03286401200781135
0.056088907056063474,0.056088907056063474
0.04859700542759505,0.04859700542759505
0.056088907056063474,0.056088907056063474
0.05683809721891032,0.05683809721891032
0.056088907056063474,0.056088907056063474
0.04035591363627977,0.04035591363627977
0.056088907056063474,0.056088907056063474
0.08830408405847771,0.08830408405847771
0.13550306431782883,0.13550306431782883
0.14299496594629724,0.14299496594629724
0.13550306431782883,0.13550306431782883
0.09654517584979298,0.09654517584979298
0.056088907056063474,0.056088907056063474
0.0021472153310907907,0.0021472153310907907
-0.023325250205701864,-0.023325250205701864
-0.03231553215986398,-0.03231553215986398
-0.023325250205701864,-0.023325250205701864
-0.009839827274458694,-0.009839827274458694
0.056088907056063474,0.056088907056063474
0.16547067083170253,0.16547067083170253
0.29358218867851266,0.29358218867851266
0.3924752901742959,0.3924752901742959
0.5310754703009618,0.5310754703009618
0.7910444568088163,0.7910444568088163
1.2435553151683094,1.2435553151683094
1.8376631143058557,1.8376631143058557
2.509686690379474,2.509686690379474
3.1524918501020647,3.1524918501020647
3.6971530984917194,3.6971530984917194
4.037285432424186,4.037285432424186
4.0934746946377,4.0934746946377
3.761583452496548,3.761583452496548
3.0640874108861373,3.0640874108861373
2.137339179444593,2.137339179444593
1.2435553151683094,1.2435553151683094
0.5363198014408898,0.5363198014408898
0.056088907056063474,0.056088907056063474
-0.26156772199099787,-0.26156772199099787
-0.4188976561888349,-0.4188976561888349
-0.451862023354096,-0.451862023354096
-0.4188976561888349,-0.4188976561888349
-0.43238307912007806,-0.43238307912007806
-0.4983118134506002,-0.4983118134506002
-0.5769767805495187,-0.5769767805495187
-0.5769767805495187,-0.5769767805495187
-0.4968134331249065,-0.4968134331249065
-0.3394834989270695,-0.3394834989270695
-0.17541085326361094,-0.17541085326361094
-0.023325250205701864,-0.023325250205701864
0.0688251398244598,0.0688251398244598
0.13550306431782883,0.13550306431782883
0.17146419213447728,0.17146419213447728
0.2141680314167473,0.2141680314167473
0.2246566936966031,0.2246566936966031
0.2141680314167473,0.2141680314167473
0.1684674314830899,0.1684674314830899
0.13550306431782883,0.13550306431782883
0.09804355617548667,0.09804355617548667
0.056088907056063474,0.056088907056063474
-0.007592256785918166,-0.007592256785918166
-0.023325250205701864,-0.023325250205701864
0.047847815264748204,0.047847815264748204
0.2141680314167473,0.2141680314167473
0.3924752901742959,0.3924752901742959
0.5310754703009618,0.5310754703009618
0.5917598734915561,0.5917598734915561
0.6104896275627272,0.6104896275627272
0.6052452964227992,0.6052452964227992
0.6104896275627272,0.6104896275627272
0.5880139226773219,0.5880139226773219
0.5310754703009618,0.5310754703009618
0.4366775097822596,0.4366775097822596
0.372996345940278,0.372996345940278
0.3325400771465485,0.3325400771465485
0.29358218867851266,0.29358218867851266
0.21117127076535994,0.21117127076535994
0.13550306431782883,0.13550306431782883
0.08231056275570298,0.08231056275570298
0.056088907056063474,0.056088907056063474
0.01263587761094659,0.01263587761094659
-0.023325250205701864,-0.023325250205701864
-0.05853718785950348,-0.05853718785950348
-0.10199021730462036,-0.10199021730462036
-0.18964546635770096,-0.18964546635770096
-0.260818531828151,-0.260818531828151
-0.26606286296807896,-0.26606286296807896
-0.1814043745663857,-0.1814043745663857
-0.08625722388483666,-0.08625722388483666
-0.023325250205701864,-0.023325250205701864
-0.01583334857723344,-0.01583334857723344
-0.023325250205701864,-0.023325250205701864
-0.05404204688242242,-0.05404204688242242
-0.10199021730462036,-0.10199021730462036
-0.18589951554346676,-0.18589951554346676
-0.260818531828151,-0.260818531828151
-0.3147602235531237,-0.3147602235531237
-0.3394834989270695,-0.3394834989270695
-0.3964219513034296,-0.3964219513034296
-0.4983118134506002,-0.4983118134506002
-0.6331660427630319,-0.6331660427630319
-0.7358050950730494,-0.7358050950730494
-0.8159684424976615,-0.8159684424976615
-0.8938842194337332,-0.8938842194337332
-0.9927773209295164,-0.9927773209295164
-1.0519633437944171,-1.0519633437944171
-1.0654487667256602,-1.0654487667256602
-1.0519633437944171,-1.0519633437944171
-1.0632011962371197,-1.0632011962371197
-1.0519633437944171,-1.0519633437944171
-0.9965232717437507,-0.9965232717437507
-0.8938842194337332,-0.8938842194337332
-0.8084765408691932,-0.8084765408691932
-0.7358050950730494,-0.7358050950730494
-0.6878569246508515,-0.6878569246508515
-0.656390937811284,-0.656390937811284
-0.6616352689512119,-0.6616352689512119
-0.656390937811284,-0.656390937811284
-0.6301692821116446,-0.6301692821116446
-0.5769767805495187,-0.5769767805495187
-0.5417648428957171,-0.5417648428957171
-0.4983118134506002,-0.4983118134506002
-0.4346306496086186,-0.4346306496086186
-0.3394834989270695,-0.3394834989270695
-0.27505314492224103,-0.27505314492224103
-0.260818531828151,-0.260818531828151
-0.3027731809475742,-0.3027731809475742
-0.3394834989270695,-0.3394834989270695
-0.36046082348678116,-0.36046082348678116
-0.3394834989270695,-0.3394834989270695
-0.3147602235531237,-0.3147602235531237
-0.260818531828151,-0.260818531828151
-0.1971373679861694,-0.1971373679861694
-0.10199021730462036,-0.10199021730462036
-0.01957929939146765,-0.01957929939146765
0.056088907056063474,0.056088907056063474
0.10104031682687405,0.10104031682687405
0.13550306431782883,0.13550306431782883
0.13999820529490986,0.13999820529490986
0.13550306431782883,0.13550306431782883
0.12051926106089196,0.12051926106089196
0.13550306431782883,0.13550306431782883
0.17970528392579255,0.17970528392579255
0.29358218867851266,0.29358218867851266
0.5130949063926376,0.5130949063926376
0.9266478762840948,0.9266478762840948
1.5522216622612086,1.5522216622612086
2.35160756601879,2.35160756601879
3.184707027104479,3.184707027104479
3.934646380114169,3.934646380114169
4.476310867852436,4.476310867852436
4.726540382243281,4.726540382243281
4.576702349673913,4.576702349673913
4.014060537375934,4.014060537375934
3.1157815321225697,3.1157815321225697
2.1141142843963405,2.1141142843963405
1.2293207020742194,1.2293207020742194
0.6104896275627272,0.6104896275627272
0.2194123625566752,0.2194123625566752
-0.023325250205701864,-0.023325250205701864
-0.20987360075456574,-0.20987360075456574
-0.3394834989270695,-0.3394834989270695
-0.4338814594457717,-0.4338814594457717
-0.4983118134506002,-0.4983118134506002
-0.580722731363753,-0.580722731363753
-0.656390937811284,-0.656390937811284
-0.699094777093554,-0.699094777093554
-0.656390937811284,-0.656390937811284
-0.579973541200906,-0.579973541200906
-0.4983118134506002,-0.4983118134506002
-0.4368782200971591,-0.4368782200971591
-0.3394834989270695,-0.3394834989270695
-0.26156772199099787,-0.26156772199099787
-0.260818531828151,-0.260818531828151
-0.3821873382093396,-0.3821873382093396
-0.4983118134506002,-0.4983118134506002
-0.5395172724071766,-0.5395172724071766
-0.4983118134506002,-0.4983118134506002
-0.44287174139993385,-0.44287174139993385
-0.3394834989270695,-0.3394834989270695
-0.18589951554346676,-0.18589951554346676
-0.023325250205701864,-0.023325250205701864
0.05084457591613557,0.05084457591613557
0.056088907056063474,0.056088907056063474
0.04185429396197346,0.04185429396197346
0.056088907056063474,0.056088907056063474
0.061333238195991374,0.061333238195991374
0.056088907056063474,0.056088907056063474
0.023873730053649234,0.023873730053649234
-0.023325250205701864,-0.023325250205701864
-0.1042377877931609,-0.1042377877931609
-0.1814043745663857,-0.1814043745663857
-0.2405903974312863,-0.2405903974312863
-0.260818531828151,-0.260818531828151
-0.28928775801633105,-0.28928775801633105
-0.3394834989270695,-0.3394834989270695
-0.4248911774916096,-0.4248911774916096
-0.4983118134506002,-0.4983118134506002
-0.5530026953384197,-0.5530026953384197
-0.5769767805495187,-0.5769767805495187
-0.5934589641321493,-0.5934589641321493
-0.5769767805495187,-0.5769767805495187
-0.5447616035471045,-0.5447616035471045
-0.4983118134506002,-0.4983118134506002
-0.46534744628533914,-0.46534744628533914
-0.4188976561888349,-0.4188976561888349
-0.37319705625517746,-0.37319705625517746
-0.3394834989270695,-0.3394834989270695
-0.3649559644638622,-0.3649559644638622
-0.4188976561888349,-0.4188976561888349
-0.4765852987280418,-0.4765852987280418
-0.4983118134506002,-0.4983118134506002
-0.5058037150790686,-0.5058037150790686
-0.4983118134506002,-0.4983118134506002
-0.4998101937762939,-0.4998101937762939
-0.4983118134506002,-0.4983118134506002
-0.5050545249162218,-0.5050545249162218
-0.4983118134506002,-0.4983118134506002
-0.49756262328775336,-0.49756262328775336
-0.4983118134506002,-0.4983118134506002
-0.5095496658933029,-0.5095496658933029
-0.4983118134506002,-0.4983118134506002
-0.48707396100789757,-0.48707396100789757
-0.4983118134506002,-0.4983118134506002
-0.5702340690838972,-0.5702340690838972
-0.656390937811284,-0.656390937811284
-0.7223196721418063,-0.7223196721418063
-0.7358050950730494,-0.7358050950730494
-0.7380526655615899,-0.7380526655615899
-0.7358050950730494,-0.7358050950730494
-0.7410494262129773,-0.7410494262129773
-0.7358050950730494,-0.7358050950730494
-0.7590299901213016,-0.7590299901213016
-0.8144700621719679,-0.8144700621719679
-0.8878906981309584,-0.8878906981309584
-0.8938842194337332,-0.8938842194337332
-0.8302030555917516,-0.8302030555917516
-0.7358050950730494,-0.7358050950730494
-0.6871077344880046,-0.6871077344880046
-0.656390937811284,-0.656390937811284
-0.6039476264120051,-0.6039476264120051
-0.4983118134506002,-0.4983118134506002
-0.399418711954817,-0.399418711954817
-0.3394834989270695,-0.3394834989270695
-0.3357375481128353,-0.3357375481128353
-0.3394834989270695,-0.3394834989270695
-0.34697540055553794,-0.34697540055553794
-0.3394834989270695,-0.3394834989270695
-0.3454770202298443,-0.3454770202298443
-0.3394834989270695,-0.3394834989270695
-0.3447278300669974,-0.3447278300669974
-0.3394834989270695,-0.3394834989270695
-0.35072135136977217,-0.35072135136977217
-0.3394834989270695,-0.3394834989270695
-0.3334899776242948,-0.3334899776242948
-0.3394834989270695,-0.3394834989270695
-0.4024154726062043,-0.4024154726062043
-0.4983118134506002,-0.4983118134506002
-0.6234265706460229,-0.6234265706460229
-0.7358050950730494,-0.7358050950730494
-0.7964894982636437,-0.7964894982636437
-0.7358050950730494,-0.7358050950730494
-0.5732308297352845,-0.5732308297352845
-0.3394834989270695,-0.3394834989270695
-0.01433496825153975,-0.01433496825153975
0.5310754703009618,0.5310754703009618
1.3087348593359847,1.3087348593359847
2.1935284416581062,2.1935284416581062
3.0026538175326962,3.0026538175326962
3.6971530984917194,3.6971530984917194
4.234322445252906,4.234322445252906
4.489047100620833,4.489047100620833
4.262042481278239,4.262042481278239
3.5390739741310355,3.5390739741310355
2.489458555982609,2.489458555982609
1.4016344395289932,1.4016344395289932
0.4733878277617549,0.4733878277617549
-0.1814043745663857,-0.1814043745663857
-0.5904622034807618,-0.5904622034807618
-0.8144700621719679,-0.8144700621719679
-0.9560670029500212,-0.9560670029500212
-1.0519633437944171,-1.0519633437944171
-1.1403677830103445,-1.1403677830103445
-1.2107916583179477,-1.2107916583179477
-1.2707268713456952,-1.2707268713456952
-1.2894566254168662,-1.2894566254168662
-1.2759712024856231,-1.2759712024856231
-1.2107916583179477,-1.2107916583179477
-1.1133969371478583,-1.1133969371478583
-0.9732983766954986,-0.9732983766954986
-0.8429392883601479,-0.8429392883601479
-0.7358050950730494,-0.7358050950730494
-0.690104495139392,-0.690104495139392
-0.656390937811284,-0.656390937811284
-0.6294200919487977,-0.6294200919487977
-0.5769767805495187,-0.5769767805495187
-0.537269701918636,-0.537269701918636
-0.4983118134506002,-0.4983118134506002
-0.46759501677387966,-0.46759501677387966
-0.4188976561888349,-0.4188976561888349
-0.3746954365808711,-0.3746954365808711
-0.3394834989270695,-0.3394834989270695
-0.337235928438529,-0.337235928438529
-0.3394834989270695,-0.3394834989270695
-0.34847378088123165,-0.34847378088123165
-0.3394834989270695,-0.3394834989270695
-0.31326184322743006,-0.31326184322743006
-0.260818531828151,-0.260818531828151
-0.25182824987398894,-0.25182824987398894
-0.3394834989270695,-0.3394834989270695
-0.5170415675217713,-0.5170415675217713
-0.656390937811284,-0.656390937811284
-0.6953488262793198,-0.6953488262793198
-0.656390937811284,-0.656390937811284
-0.6226773804831761,-0.6226773804831761
-0.5769767805495187,-0.5769767805495187
-0.5058037150790686,-0.5058037150790686
-0.4188976561888349,-0.4188976561888349
-0.3919268103263485,-0.3919268103263485
-0.4188976561888349,-0.4188976561888349
-0.4698425872624202,-0.4698425872624202
-0.4983118134506002,-0.4983118134506002
-0.532774560941555,-0.532774560941555
-0.5769767805495187,-0.5769767805495187
-0.6324168526001851,-0.6324168526001851
-0.656390937811284,-0.656390937811284
-0.6616352689512119,-0.6616352689512119
-0.656390937811284,-0.656390937811284
-0.666130409928293,-0.666130409928293
-0.656390937811284,-0.656390937811284
-0.6256741411345635,-0.6256741411345635
-0.5769767805495187,-0.5769767805495187
-0.5627421674554287,-0.5627421674554287
-0.5769767805495187,-0.5769767805495187
-0.6189314296689419,-0.6189314296689419
-0.656390937811284,-0.656390937811284
-0.6983455869307073,-0.6983455869307073
-0.7358050950730494,-0.7358050950730494
-0.8017338294035715,-0.8017338294035715
-0.8938842194337332,-0.8938842194337332
-1.000269222557985,-1.000269222557985
-1.0519633437944171,-1.0519633437944171
-1.0587060552600387,-1.0587060552600387
-1.0519633437944171,-1.0519633437944171
-1.0699439077027413,-1.0699439077027413
-1.0519633437944171,-1.0519633437944171
-0.9845362291382012,-0.9845362291382012
-0.8938842194337332,-0.8938842194337332
-0.8466852391743821,-0.8466852391743821
-0.8144700621719679,-0.8144700621719679
-0.7792581245181662,-0.7792581245181662
-0.7358050950730494,-0.7358050950730494
-0.7290623836074278,-0.7290623836074278
-0.7358050950730494,-0.7358050950730494
-0.7425478065386709,-0.7425478065386709
-0.7358050950730494,-0.7358050950730494
-0.7432969967015178,-0.7432969967015178
-0.7358050950730494,-0.7358050950730494
-0.708834249210563,-0.708834249210563
-0.656390937811284,-0.656390937811284
-0.6174330493432483,-0.6174330493432483
-0.5769767805495187,-0.5769767805495187
-0.5402664625700234,-0.5402664625700234
-0.4983118134506002,-0.4983118134506002
-0.48707396100789757,-0.48707396100789757
-0.4983118134506002,-0.4983118134506002
-0.5417648428957171,-0.5417648428957171
-0.5769767805495187,-0.5769767805495187
-0.6046968165748519,-0.6046968165748519
-0.5769767805495187,-0.5769767805495187
-0.5170415675217713,-0.5170415675217713
-0.4188976561888349,-0.4188976561888349
-0.33648673827568215,-0.33648673827568215
-0.260818531828151,-0.260818531828151
-0.21361955156879994,-0.21361955156879994
-0.1814043745663857,-0.1814043745663857
-0.18065518440353887,-0.18065518440353887
-0.1814043745663857,-0.1814043745663857
-0.1866487057063136,-0.1866487057063136
-0.1814043745663857,-0.1814043745663857
-0.16941733196083622,-0.16941733196083622
-0.10199021730462036,-0.10199021730462036
0.03361320217065819,0.03361320217065819
0.29358218867851266,0.29358218867851266
0.754334138829321,0.754334138829321
1.4810485967907585,1.4810485967907585
2.321639959504916,2.321639959504916
3.0640874108861373,3.0640874108861373
3.641713026441053,3.641713026441053
4.172139661736618,4.172139661736618
4.525757418600327,4.525757418600327
4.3309679762601485,4.3309679762601485
3.3989754136786763,3.3989754136786763
2.1141142843963405,2.1141142843963405
0.988081469637536,0.988081469637536
0.2141680314167473,0.2141680314167473
-0.3454770202298443,-0.3454770202298443
-0.7358050950730494,-0.7358050950730494
-0.9335912980646159,-0.9335912980646159
-0.9732983766954986,-0.9732983766954986
-1.004764363535066,-1.004764363535066
-1.0519633437944171,-1.0519633437944171
-1.0804325699825972,-1.0804325699825972
-1.0519633437944171,-1.0519633437944171
-1.0219957372805433,-1.0219957372805433
-0.9732983766954986,-0.9732983766954986
-0.8863923178052648,-0.8863923178052648
-0.7358050950730494,-0.7358050950730494
-0.5942081542949961,-0.5942081542949961
-0.4983118134506002,-0.4983118134506002
-0.4863247708450507,-0.4863247708450507
-0.4983118134506002,-0.4983118134506002
-0.5185399478474649,-0.5185399478474649
-0.4983118134506002,-0.4983118134506002
-0.4488652627027086,-0.4488652627027086
-0.3394834989270695,-0.3394834989270695
-0.21287036140595308,-0.21287036140595308
-0.10199021730462036,-0.10199021730462036
-0.05329285671957558,-0.05329285671957558
-0.023325250205701864,-0.023325250205701864
0.011137497285252904,0.011137497285252904
0.056088907056063474,0.056088907056063474
0.06582837917307242,0.06582837917307242
0.056088907056063474,0.056088907056063474
0.04335267428766715,0.04335267428766715
0.056088907056063474,0.056088907056063474
0.06208242835883822,0.06208242835883822
0.056088907056063474,0.056088907056063474
0.018629398913721333,0.018629398913721333
-0.023325250205701864,-0.023325250205701864
-0.0712734206278998,-0.0712734206278998
-0.10199021730462036,-0.10199021730462036
-0.1394497254469625,-0.1394497254469625
-0.1814043745663857,-0.1814043745663857
-0.2548250105253763,-0.2548250105253763
-0.3394834989270695,-0.3394834989270695
-0.43612902993431224,-0.43612902993431224
-0.4983118134506002,-0.4983118134506002
-0.5043053347533749,-0.5043053347533749
-0.4188976561888349,-0.4188976561888349
-0.29228451866771843,-0.29228451866771843
-0.1814043745663857,-0.1814043745663857
-0.1536843385410525,-0.1536843385410525
-0.1814043745663857,-0.1814043745663857
-0.23160011547712417,-0.23160011547712417
-0.260818531828151,-0.260818531828151
-0.2982780399704932,-0.2982780399704932
-0.3394834989270695,-0.3394834989270695
-0.37094948576663694,-0.37094948576663694
-0.3394834989270695,-0.3394834989270695
-0.2855418072020969,-0.2855418072020969
-0.260818531828151,-0.260818531828151
-0.3020239907847274,-0.3020239907847274
-0.3394834989270695,-0.3394834989270695
-0.34697540055553794,-0.34697540055553794
-0.3394834989270695,-0.3394834989270695
-0.3746954365808711,-0.3746954365808711
-0.4188976561888349,-0.4188976561888349
-0.4593539249825644,-0.4593539249825644
-0.4983118134506002,-0.4983118134506002
-0.5769767805495187,-0.5769767805495187
-0.656390937811284,-0.656390937811284
-0.7125802000247973,-0.7125802000247973
-0.7358050950730494,-0.7358050950730494
-0.7747629835410852,-0.7747629835410852
-0.8144700621719679,-0.8144700621719679
-0.8586722817799316,-0.8586722817799316
-0.8938842194337332,-0.8938842194337332
-0.9455783406701653,-0.9455783406701653
-0.9732983766954986,-0.9732983766954986
-0.9605621439271023,-0.9605621439271023
-0.8938842194337332,-0.8938842194337332
-0.8182160129862021,-0.8182160129862021
-0.7358050950730494,-0.7358050950730494
-0.6623844591140587,-0.6623844591140587
-0.5769767805495187,-0.5769767805495187
-0.4983118134506002,-0.4983118134506002
-0.4188976561888349,-0.4188976561888349
-0.36795272511524957,-0.36795272511524957
-0.3394834989270695,-0.3394834989270695
-0.3447278300669974,-0.3447278300669974
-0.3394834989270695,-0.3394834989270695
-0.3177569842045111,-0.3177569842045111
-0.260818531828151,-0.260818531828151
-0.21511793189449363,-0.21511793189449363
-0.1814043745663857,-0.1814043745663857
-0.18440113521777307,-0.18440113521777307
-0.1814043745663857,-0.1814043745663857
-0.1851503253806199,-0.1851503253806199
-0.1814043745663857,-0.1814043745663857
-0.21212117124310625,-0.21212117124310625
-0.260818531828151,-0.260818531828151
-0.31850617436735795,-0.31850617436735795
-0.3394834989270695,-0.3394834989270695
-0.34322944974130376,-0.34322944974130376
-0.3394834989270695,-0.3394834989270695
-0.35371811202115955,-0.35371811202115955
-0.3394834989270695,-0.3394834989270695
-0.27055800394516,-0.27055800394516
-0.10199021730462036,-0.10199021730462036
0.17296257246017097,0.17296257246017097
0.6104896275627272,0.6104896275627272
1.2323174627256066,1.2323174627256066
2.0347001271345753,2.0347001271345753
2.903760716036913,2.903760716036913
3.6971530984917194,3.6971530984917194
4.237319205904293,4.237319205904293
4.4096329433590675,4.4096329433590675
4.134680153594275,4.134680153594275
3.4596598168692703,3.4596598168692703
2.5006964084253114,2.5006964084253114
1.4810485967907585,1.4810485967907585
0.5932582538172497,0.5932582538172497
-0.023325250205701864,-0.023325250205701864
-0.41140575456036643,-0.41140575456036643
-0.656390937811284,-0.656390937811284
-0.827955485103211,-0.827955485103211
-0.8938842194337332,-0.8938842194337332
-0.8916366489451927,-0.8916366489451927
-0.8938842194337332,-0.8938842194337332
-0.9717999963698049,-0.9717999963698049
-1.0519633437944171,-1.0519633437944171
-1.0826801404711377,-1.0826801404711377
-1.0519633437944171,-1.0519633437944171
-1.0077611241864532,-1.0077611241864532
-0.8938842194337332,-0.8938842194337332
-0.7110818196991036,-0.7110818196991036
-0.4983118134506002,-0.4983118134506002
-0.35896244316108744,-0.35896244316108744
-0.260818531828151,-0.260818531828151
-0.18365194505492624,-0.18365194505492624
-0.10199021730462036,-0.10199021730462036
-0.06153394851089085,-0.06153394851089085
-0.023325250205701864,-0.023325250205701864
0.014134257936640277,0.014134257936640277
0.056088907056063474,0.056088907056063474
0.08156137259285613,0.08156137259285613
0.13550306431782883,0.13550306431782883
0.1946890871827294,0.1946890871827294
0.2141680314167473,0.2141680314167473
0.163223100343162,0.163223100343162
0.13550306431782883,0.13550306431782883
0.1684674314830899,0.1684674314830899
0.2141680314167473,0.2141680314167473
0.16921662164593673,0.16921662164593673
0.056088907056063474,0.056088907056063474
-0.0765177517678277,-0.0765177517678277
-0.1814043745663857,-0.1814043745663857
-0.2600693416653042,-0.2600693416653042
-0.260818531828151,-0.260818531828151
-0.1933914171719352,-0.1933914171719352
-0.10199021730462036,-0.10199021730462036
-0.05853718785950348,-0.05853718785950348
-0.023325250205701864,-0.023325250205701864
0.018629398913721333,0.018629398913721333
0.056088907056063474,0.056088907056063474
0.027619680867883446,0.027619680867883446
-0.023325250205701864,-0.023325250205701864
-0.04954690590534137,-0.04954690590534137
-0.023325250205701864,-0.023325250205701864
-0.007592256785918166,-0.007592256785918166
-0.023325250205701864,-0.023325250205701864
-0.07202261079074665,-0.07202261079074665
-0.10199021730462036,-0.10199021730462036
-0.11472645007301668,-0.11472645007301668
-0.10199021730462036,-0.10199021730462036
-0.10124102714177352,-0.10124102714177352
-0.10199021730462036,-0.10199021730462036
-0.11098049925878248,-0.11098049925878248
-0.10199021730462036,-0.10199021730462036
-0.12071997137579143,-0.12071997137579143
-0.1814043745663857,-0.1814043745663857
-0.2795482858993221,-0.2795482858993221
-0.3394834989270695,-0.3394834989270695
-0.37094948576663694,-0.37094948576663694
-0.4188976561888349,-0.4188976561888349
-0.5357713215929424,-0.5357713215929424
-0.656390937811284,-0.656390937811284
-0.7500397081671394,-0.7500397081671394
-0.8144700621719679,-0.8144700621719679
-0.8826463669910306,-0.8826463669910306
-0.8938842194337332,-0.8938842194337332
-0.8346981965688326,-0.8346981965688326
-0.7358050950730494,-0.7358050950730494
-0.6826125935109235,-0.6826125935109235
-0.656390937811284,-0.656390937811284
-0.6294200919487977,-0.6294200919487977
-0.5769767805495187,-0.5769767805495187
-0.5387680822443297,-0.5387680822443297
-0.4983118134506002,-0.4983118134506002
-0.45710635449402387,-0.45710635449402387
-0.4188976561888349,-0.4188976561888349
-0.44062417091139333,-0.44062417091139333
-0.4983118134506002,-0.4983118134506002
-0.5417648428957171,-0.5417648428957171
-0.4983118134506002,-0.4983118134506002
-0.41065656439751963,-0.41065656439751963
-0.3394834989270695,-0.3394834989270695
-0.33798511860137587,-0.33798511860137587
-0.3394834989270695,-0.3394834989270695
-0.3125126530645832,-0.3125126530645832
-0.260818531828151,-0.260818531828151
-0.2728055744337005,-0.2728055744337005
-0.3394834989270695,-0.3394834989270695
-0.4188976561888349,-0.4188976561888349
-0.4188976561888349,-0.4188976561888349
-0.3791905775579522,-0.3791905775579522
-0.3394834989270695,-0.3394834989270695
-0.34847378088123165,-0.34847378088123165
-0.3394834989270695,-0.3394834989270695
-0.2855418072020969,-0.2855418072020969
-0.1814043745663857,-0.1814043745663857
-0.09150155502476456,-0.09150155502476456
-0.023325250205701864,-0.023325250205701864
0.01788020875087449,0.01788020875087449
0.056088907056063474,0.056088907056063474
0.09729436601263983,0.09729436601263983
0.2141680314167473,0.2141680314167473
0.4711402572732144,0.4711402572732144
0.9266478762840948,0.9266478762840948
1.5439805704698932,1.5439805704698932
2.2721934087570244,2.2721934087570244
3.0161392404639393,3.0161392404639393
3.6971530984917194,3.6971530984917194
4.178133183039392,4.178133183039392
4.3309679762601485,4.3309679762601485
4.029793530795718,4.029793530795718
3.3015806925085864,3.3015806925085864
2.2879264021768084,2.2879264021768084
1.2435553151683094,1.2435553151683094
0.33928278861217004,0.33928278861217004
-0.3394834989270695,-0.3394834989270695
-0.8287046752660578,-0.8287046752660578
-1.1313775010561824,-1.1313775010561824
-1.2609873992286862,-1.2609873992286862
-1.2107916583179477,-1.2107916583179477
-1.0594552454228854,-1.0594552454228854
-0.8938842194337332,-0.8938842194337332
-0.8167176326605085,-0.8167176326605085
-0.8144700621719679,-0.8144700621719679
-0.8242095342889768,-0.8242095342889768
-0.7358050950730494,-0.7358050950730494
-0.5784751608752124,-0.5784751608752124
-0.4188976561888349,-0.4188976561888349
-0.3319915972986011,-0.3319915972986011
-0.260818531828151,-0.260818531828151
-0.20687684010317836,-0.20687684010317836
-0.1814043745663857,-0.1814043745663857
-0.22785416466288996,-0.22785416466288996
-0.260818531828151,-0.260818531828151
-0.2443363482455205,-0.2443363482455205
-0.1814043745663857,-0.1814043745663857
-0.14244648609834987,-0.14244648609834987
-0.10199021730462036,-0.10199021730462036
-0.055540427208116104,-0.055540427208116104
-0.023325250205701864,-0.023325250205701864
-0.07801613209352139,-0.07801613209352139
-0.1814043745663857,-0.1814043745663857
-0.2443363482455205,-0.2443363482455205
-0.1814043745663857,-0.1814043745663857
-0.055540427208116104,-0.055540427208116104
0.056088907056063474,0.056088907056063474
0.12201764138658565,0.12201764138658565
0.2141680314167473,0.2141680314167473
0.320553034540999,0.320553034540999
0.372996345940278,0.372996345940278
0.3078168017726027,0.3078168017726027
0.2141680314167473,0.2141680314167473
0.15573119871469357,0.15573119871469357
0.13550306431782883,0.13550306431782883
0.0898024643841714,0.0898024643841714
0.056088907056063474,0.056088907056063474
0.05084457591613557,0.05084457591613557
0.056088907056063474,0.056088907056063474
-0.003097115808837109,-0.003097115808837109
-0.10199021730462036,-0.10199021730462036
-0.218114692545881,-0.218114692545881
-0.3394834989270695,-0.3394834989270695
-0.5065529052419154,-0.5065529052419154
-0.656390937811284,-0.656390937811284
-0.7013423475820946,-0.7013423475820946
-0.5769767805495187,-0.5769767805495187
-0.3702002956037901,-0.3702002956037901
-0.1814043745663857,-0.1814043745663857
-0.08251127307060245,-0.08251127307060245
-0.023325250205701864,-0.023325250205701864
0.018629398913721333,0.018629398913721333
0.056088907056063474,0.056088907056063474
0.058336477544604005,0.058336477544604005
0.056088907056063474,0.056088907056063474
0.035860772659198716,0.035860772659198716
-0.023325250205701864,-0.023325250205701864
-0.16716976147229567,-0.16716976147229567
-0.3394834989270695,-0.3394834989270695
-0.4893215314964381,-0.4893215314964381
-0.5769767805495187,-0.5769767805495187
-0.6571401279741309,-0.6571401279741309
-0.7358050950730494,-0.7358050950730494
-0.8054797802178058,-0.8054797802178058
-0.8144700621719679,-0.8144700621719679
-0.785251645820941,-0.785251645820941
-0.7358050950730494,-0.7358050950730494
-0.7013423475820946,-0.7013423475820946
-0.656390937811284,-0.656390937811284
-0.613687098529014,-0.613687098529014
-0.5769767805495187,-0.5769767805495187
-0.5792243510380592,-0.5792243510380592
-0.5769767805495187,-0.5769767805495187
-0.5559994559898072,-0.5559994559898072
-0.4983118134506002,-0.4983118134506002
-0.45336040367978964,-0.45336040367978964
-0.4188976561888349,-0.4188976561888349
-0.3926760004891954,-0.3926760004891954
-0.3394834989270695,-0.3394834989270695
-0.29378289899341214,-0.29378289899341214
-0.260818531828151,-0.260818531828151
-0.2428379679198268,-0.2428379679198268
-0.1814043745663857,-0.1814043745663857
-0.09599669600184561,-0.09599669600184561
-0.023325250205701864,-0.023325250205701864
-0.01658253874008028,-0.01658253874008028
-0.023325250205701864,-0.023325250205701864
-0.028569581345629765,-0.028569581345629765
-0.023325250205701864,-0.023325250205701864
-0.060784758348044005,-0.060784758348044005
-0.10199021730462036,-0.10199021730462036
-0.1499383877268183,-0.1499383877268183
-0.1814043745663857,-0.1814043745663857
-0.20912441059171888,-0.20912441059171888
-0.1814043745663857,-0.1814043745663857
-0.10873292877024195,-0.10873292877024195
-0.023325250205701864,-0.023325250205701864
0.01788020875087449,0.01788020875087449
0.056088907056063474,0.056088907056063474
0.13550306431782883,0.13550306431782883
0.29358218867851266,0.29358218867851266
0.4906192015072323,0.4906192015072323
0.768568751923411,0.768568751923411
1.230069892237066,1.230069892237066
1.956035160035657,1.956035160035657
2.774900008027256,2.774900008027256
3.4596598168692703,3.4596598168692703
3.9556237046738802,3.9556237046738802
4.4096329433590675,4.4096329433590675
4.708559818334957,4.708559818334957
4.489047100620833,4.489047100620833
3.5742859117848376,3.5742859117848376
2.35160756601879,2.35160756601879
1.293001865916201,1.293001865916201
0.5310754703009618,0.5310754703009618
-0.0765177517678277,-0.0765177517678277
-0.4983118134506002,-0.4983118134506002
-0.6466514656942751,-0.6466514656942751
-0.5769767805495187,-0.5769767805495187
-0.5073020954047623,-0.5073020954047623
-0.4983118134506002,-0.4983118134506002
-0.5312761806158613,-0.5312761806158613
-0.5769767805495187,-0.5769767805495187
-0.6533941771598967,-0.6533941771598967
-0.656390937811284,-0.656390937811284
-0.5387680822443297,-0.5387680822443297
-0.3394834989270695,-0.3394834989270695
-0.19414060733478203,-0.19414060733478203
-0.10199021730462036,-0.10199021730462036
-0.05703880753380979,-0.05703880753380979
-0.023325250205701864,-0.023325250205701864
-0.03231553215986398,-0.03231553215986398
-0.023325250205701864,-0.023325250205701864
0.005143975982478162,0.005143975982478162
0.056088907056063474,0.056088907056063474
0.08755489389563087,0.08755489389563087
0.13550306431782883,0.13550306431782883
0.18270204457717992,0.18270204457717992
0.2141680314167473,0.2141680314167473
0.2231583133709094,0.2231583133709094
0.29358218867851266,0.29358218867851266
0.42019532619962907,0.42019532619962907
0.5310754703009618,0.5310754703009618
0.544560893232205,0.544560893232205
0.5310754703009618,0.5310754703009618
0.5333230407895023,0.5333230407895023
0.5310754703009618,0.5310754703009618
0.4554072638534307,0.4554072638534307
0.372996345940278,0.372996345940278
0.3422795492635574,0.3422795492635574
0.372996345940278,0.372996345940278
0.38048824756874644,0.38048824756874644
0.372996345940278,0.372996345940278
0.3625076836604222,0.3625076836604222
0.372996345940278,0.372996345940278
0.36850120496319694,0.36850120496319694
0.372996345940278,0.372996345940278
0.3744947262659717,0.3744947262659717
0.372996345940278,0.372996345940278
0.33403845747224215,0.33403845747224215
0.29358218867851266,0.29358218867851266
0.25012915923339574,0.25012915923339574
0.2141680314167473,0.2141680314167473
0.18195285441433307,0.18195285441433307
0.2141680314167473,0.2141680314167473
0.2943313788413595,0.2943313788413595
0.372996345940278,0.372996345940278
0.38273581805728696,0.38273581805728696
0.372996345940278,0.372996345940278
0.36850120496319694,0.36850120496319694
0.372996345940278,0.372996345940278
0.33403845747224215,0.33403845747224215
0.29358218867851266,0.29358218867851266
0.27635081493303526,0.27635081493303526
0.29358218867851266,0.29358218867851266
0.2756016247701884,0.2756016247701884
0.2141680314167473,0.2141680314167473
0.10178950698972089,0.10178950698972089
-0.023325250205701864,-0.023325250205701864
-0.1589286696809804,-0.1589286696809804
-0.260818531828151,-0.260818531828151
-0.3252488858329795,-0.3252488858329795
-0.3394834989270695,-0.3394834989270695
-0.3454770202298443,-0.3454770202298443
-0.3394834989270695,-0.3394834989270695
-0.3447278300669974,-0.3447278300669974
-0.3394834989270695,-0.3394834989270695
-0.34697540055553794,-0.34697540055553794
-0.3394834989270695,-0.3394834989270695
-0.3200045546930516,-0.3200045546930516
-0.260818531828151,-0.260818531828151
-0.2076260302660252,-0.2076260302660252
-0.1814043745663857,-0.1814043745663857
-0.19563898766047572,-0.19563898766047572
-0.1814043745663857,-0.1814043745663857
-0.14094810577265618,-0.14094810577265618
-0.10199021730462036,-0.10199021730462036
-0.1304594434928004,-0.1304594434928004
-0.1814043745663857,-0.1814043745663857
-0.21287036140595308,-0.21287036140595308
-0.1814043745663857,-0.1814043745663857
-0.11997078121294459,-0.11997078121294459
-0.023325250205701864,-0.023325250205701864
0.08680570373278403,0.08680570373278403
0.2141680314167473,0.2141680314167473
0.3085659919354495,0.3085659919354495
0.372996345940278,0.372996345940278
0.38348500822013376,0.38348500822013376
0.372996345940278,0.372996345940278
0.3280449361694674,0.3280449361694674
0.29358218867851266,0.29358218867851266
0.2493799690705489,0.2493799690705489
0.2141680314167473,0.2141680314167473
0.16696905115739621,0.16696905115739621
0.13550306431782883,0.13550306431782883
0.09654517584979298,0.09654517584979298
0.056088907056063474,0.056088907056063474
0.0006488350053971049,0.0006488350053971049
-0.023325250205701864,-0.023325250205701864
-0.01133820760015238,-0.01133820760015238
0.056088907056063474,0.056088907056063474
0.18569880522856727,0.18569880522856727
0.4516613130391965,0.4516613130391965
0.8846932271646716,0.8846932271646716
1.4810485967907585,1.4810485967907585
2.145580271235908,2.145580271235908
2.8265941292636882,2.8265941292636882
3.467151718497739,3.467151718497739
4.014060537375934,4.014060537375934
4.294257658280653,4.294257658280653
4.172139661736618,4.172139661736618
3.6214848920441884,3.6214848920441884
2.8265941292636882,2.8265941292636882
1.965774632152666,1.965774632152666
1.164141157906544,1.164141157906544
0.44716617206211545,0.44716617206211545
-0.10199021730462036,-0.10199021730462036
-0.4443701217256275,-0.4443701217256275
-0.5769767805495187,-0.5769767805495187
-0.6039476264120051,-0.6039476264120051
-0.5769767805495187,-0.5769767805495187
-0.5425140330585639,-0.5425140330585639
-0.4983118134506002,-0.4983118134506002
-0.4908199118221318,-0.4908199118221318
-0.4983118134506002,-0.4983118134506002
-0.4773344888908886,-0.4773344888908886
-0.3394834989270695,-0.3394834989270695
-0.13345620414418777,-0.13345620414418777
0.056088907056063474,0.056088907056063474
0.12576359220081987,0.12576359220081987
0.13550306431782883,0.13550306431782883
0.12201764138658565,0.12201764138658565
0.13550306431782883,0.13550306431782883
0.148988487249072,0.148988487249072
0.2141680314167473,0.2141680314167473
0.3025724706326748,0.3025724706326748
0.372996345940278,0.372996345940278
0.3722471557774311,0.3722471557774311
0.372996345940278,0.372996345940278
0.4029639524541517,0.4029639524541517
0.4516613130391965,0.4516613130391965
0.4763845884131423,0.4763845884131423
0.5310754703009618,0.5310754703009618
0.597004204631484,0.597004204631484
0.6104896275627272,0.6104896275627272
0.5220851883467997,0.5220851883467997
0.4516613130391965,0.4516613130391965
0.46739430645898017,0.46739430645898017
0.5310754703009618,0.5310754703009618
0.540065752255124,0.540065752255124
0.5310754703009618,0.5310754703009618
0.5340722309523492,0.5340722309523492
0.5310754703009618,0.5310754703009618
0.45465807369058386,0.45465807369058386
0.372996345940278,0.372996345940278
0.3452763099149448,0.3452763099149448
0.372996345940278,0.372996345940278
0.3550157820319538,0.3550157820319538
0.29358218867851266,0.29358218867851266
0.22690426418514364,0.22690426418514364
0.2141680314167473,0.2141680314167473
0.21641560190528783,0.21641560190528783
0.2141680314167473,0.2141680314167473
0.177457713437252,0.177457713437252
0.13550306431782883,0.13550306431782883
0.08755489389563087,0.08755489389563087
0.056088907056063474,0.056088907056063474
0.014883448099487119,0.014883448099487119
-0.023325250205701864,-0.023325250205701864
-0.052543666556728735,-0.052543666556728735
-0.023325250205701864,-0.023325250205701864
0.047847815264748204,0.047847815264748204
0.13550306431782883,0.13550306431782883
0.16472148066885567,0.16472148066885567
0.13550306431782883,0.13550306431782883
0.05384133656752294,0.05384133656752294
-0.023325250205701864,-0.023325250205701864
-0.1042377877931609,-0.1042377877931609
-0.1814043745663857,-0.1814043745663857
-0.2728055744337005,-0.2728055744337005
-0.3394834989270695,-0.3394834989270695
-0.38818085951211434,-0.38818085951211434
-0.4188976561888349,-0.4188976561888349
-0.48482639051935705,-0.48482639051935705
-0.5769767805495187,-0.5769767805495187
-0.6811142131852299,-0.6811142131852299
-0.7358050950730494,-0.7358050950730494
-0.7522872786556799,-0.7522872786556799
-0.7358050950730494,-0.7358050950730494
-0.714078580350491,-0.714078580350491
-0.656390937811284,-0.656390937811284
-0.5814719215265998,-0.5814719215265998
-0.4983118134506002,-0.4983118134506002
-0.4316338889572312,-0.4316338889572312
-0.3394834989270695,-0.3394834989270695
-0.2443363482455205,-0.2443363482455205
-0.1814043745663857,-0.1814043745663857
-0.20388007945179099,-0.20388007945179099
-0.260818531828151,-0.260818531828151
-0.3147602235531237,-0.3147602235531237
-0.3394834989270695,-0.3394834989270695
-0.36046082348678116,-0.36046082348678116
-0.3394834989270695,-0.3394834989270695
-0.2758023350850879,-0.2758023350850879
-0.1814043745663857,-0.1814043745663857
-0.1252151123528725,-0.1252151123528725
-0.10199021730462036,-0.10199021730462036
-0.10648535828170141,-0.10648535828170141
-0.10199021730462036,-0.10199021730462036
-0.13195782381849408,-0.13195782381849408
-0.1814043745663857,-0.1814043745663857
-0.24658391873406102,-0.24658391873406102
-0.260818531828151,-0.260818531828151
-0.25707258101391683,-0.25707258101391683
-0.260818531828151,-0.260818531828151
-0.3072683219246553,-0.3072683219246553
-0.3394834989270695,-0.3394834989270695
-0.3492229710440785,-0.3492229710440785
-0.3394834989270695,-0.3394834989270695
-0.35072135136977217,-0.35072135136977217
-0.3394834989270695,-0.3394834989270695
-0.2877893776906374,-0.2877893776906374
-0.1814043745663857,-0.1814043745663857
-0.039058243625485566,-0.039058243625485566
0.2141680314167473,0.2141680314167473
0.6569394176592314,0.6569394176592314
1.3222202822672278,1.3222202822672278
2.0863942483710076,2.0863942483710076
2.8265941292636882,2.8265941292636882
3.470897669311973,3.470897669311973
4.014060537375934,4.014060537375934
4.312987412351824,4.312987412351824
4.172139661736618,4.172139661736618
3.500116085663,3.500116085663
2.509686690379474,2.509686690379474
1.50202592135047,1.50202592135047
0.6891545946616456,0.6891545946616456
0.08006299226716244,0.08006299226716244
-0.3394834989270695,-0.3394834989270695
-0.6069443870633924,-0.6069443870633924
-0.7358050950730494,-0.7358050950730494
-0.799486258915031,-0.799486258915031
-0.8144700621719679,-0.8144700621719679
-0.7979878785893373,-0.7979878785893373
-0.7358050950730494,-0.7358050950730494
-0.6833617836737704,-0.6833617836737704
-0.656390937811284,-0.656390937811284
-0.6474006558571219,-0.6474006558571219
-0.5769767805495187,-0.5769767805495187
-0.46235068563395176,-0.46235068563395176
-0.3394834989270695,-0.3394834989270695
-0.26905962361946634,-0.26905962361946634
-0.1814043745663857,-0.1814043745663857
-0.06977504030220612,-0.06977504030220612
0.056088907056063474,0.056088907056063474
0.1317571135035946,0.1317571135035946
0.2141680314167473,0.2141680314167473
0.3242989853552332,0.3242989853552332
0.4516613130391965,0.4516613130391965
0.516091667044025,0.516091667044025
0.5310754703009618,0.5310754703009618
0.525081948998187,0.525081948998187
0.5310754703009618,0.5310754703009618
0.5056030047641692,0.5056030047641692
0.4516613130391965,0.4516613130391965
0.3894785295229085,0.3894785295229085
0.372996345940278,0.372996345940278
0.3752439164288185,0.3752439164288185
0.372996345940278,0.372996345940278
0.3317908869837016,0.3317908869837016
0.29358218867851266,0.29358218867851266
0.25687187069901735,0.25687187069901735
0.2141680314167473,0.2141680314167473
0.13100792334074776,0.13100792334074776
0.056088907056063474,0.056088907056063474
0.024622920216496074,0.024622920216496074
0.056088907056063474,0.056088907056063474
0.07706623161577507,0.07706623161577507
0.056088907056063474,0.056088907056063474
-0.022576060042855024,-0.022576060042855024
-0.10199021730462036,-0.10199021730462036
-0.16417300082090833,-0.16417300082090833
-0.1814043745663857,-0.1814043745663857
-0.1866487057063136,-0.1866487057063136
-0.1814043745663857,-0.1814043745663857
-0.18739789586916045,-0.18739789586916045
-0.1814043745663857,-0.1814043745663857
-0.18290275489207938,-0.18290275489207938
-0.1814043745663857,-0.1814043745663857
-0.19039465652054782,-0.19039465652054782
-0.1814043745663857,-0.1814043745663857
-0.17690923358930463,-0.17690923358930463
-0.1814043745663857,-0.1814043745663857
-0.22111145319726838,-0.22111145319726838
-0.260818531828151,-0.260818531828151
-0.3020239907847274,-0.3020239907847274
-0.3394834989270695,-0.3394834989270695
-0.41140575456036643,-0.41140575456036643
-0.4983118134506002,-0.4983118134506002
-0.5912113936436088,-0.5912113936436088
-0.656390937811284,-0.656390937811284
-0.708834249210563,-0.708834249210563
-0.7358050950730494,-0.7358050950730494
-0.7485413278414457,-0.7485413278414457
-0.7358050950730494,-0.7358050950730494
-0.7313099540959683,-0.7313099540959683
-0.7358050950730494,-0.7358050950730494
-0.7522872786556799,-0.7522872786556799
-0.7358050950730494,-0.7358050950730494
-0.699094777093554,-0.699094777093554
-0.656390937811284,-0.656390937811284
-0.6533941771598967,-0.6533941771598967
-0.656390937811284,-0.656390937811284
-0.6406579443915004,-0.6406579443915004
-0.5769767805495187,-0.5769767805495187
-0.5207875183360055,-0.5207875183360055
-0.4983118134506002,-0.4983118134506002
-0.532774560941555,-0.532774560941555
-0.5769767805495187,-0.5769767805495187
-0.6234265706460229,-0.6234265706460229
-0.656390937811284,-0.656390937811284
-0.7035899180706351,-0.7035899180706351
-0.7358050950730494,-0.7358050950730494
-0.732808334421662,-0.732808334421662
-0.656390937811284,-0.656390937811284
-0.5440124133842577,-0.5440124133842577
-0.4188976561888349,-0.4188976561888349
-0.332740787461448,-0.332740787461448
-0.260818531828151,-0.260818531828151
-0.21886388270872784,-0.21886388270872784
-0.1814043745663857,-0.1814043745663857
-0.17840761391499832,-0.17840761391499832
-0.1814043745663857,-0.1814043745663857
-0.21436874173164677,-0.21436874173164677
-0.260818531828151,-0.260818531828151
-0.31925536453020475,-0.31925536453020475
-0.3394834989270695,-0.3394834989270695
-0.3394834989270695,-0.3394834989270695
-0.3394834989270695,-0.3394834989270695
-0.36046082348678116,-0.36046082348678116
-0.3394834989270695,-0.3394834989270695
-0.2578217711767637,-0.2578217711767637
-0.10199021730462036,-0.10199021730462036
0.148988487249072,0.148988487249072
0.6104896275627272,0.6104896275627272
1.3154775708016062,1.3154775708016062
2.1935284416581062,2.1935284416581062
3.07532526332884,3.07532526332884
3.8559814130152503,3.8559814130152503
4.402890231893445,4.402890231893445
4.568461257882598,4.568461257882598
4.204354838739032,4.204354838739032
3.3809948497703517,3.3809948497703517
2.3208907693420695,2.3208907693420695
1.3222202822672278,1.3222202822672278
0.5295770899752681,0.5295770899752681
-0.023325250205701864,-0.023325250205701864
-0.40765980374613225,-0.40765980374613225
-0.656390937811284,-0.656390937811284
-0.813720872009121,-0.813720872009121
-0.8938842194337332,-0.8938842194337332
-0.9658064750670301,-0.9658064750670301
-1.0519633437944171,-1.0519633437944171
-1.157599156755822,-1.157599156755822
-1.2107916583179477,-1.2107916583179477
-1.1823224321297676,-1.1823224321297676
-1.0519633437944171,-1.0519633437944171
-0.8706593243854811,-0.8706593243854811
-0.656390937811284,-0.656390937811284
-0.4765852987280418,-0.4765852987280418
-0.3394834989270695,-0.3394834989270695
-0.26156772199099787,-0.26156772199099787
-0.1814043745663857,-0.1814043745663857
-0.1252151123528725,-0.1252151123528725
-0.10199021730462036,-0.10199021730462036
-0.12296754186433197,-0.12296754186433197
-0.10199021730462036,-0.10199021730462036
-0.047299335416800835,-0.047299335416800835
-0.023325250205701864,-0.023325250205701864
-0.09524750583899877,-0.09524750583899877
-0.1814043745663857,-0.1814043745663857
-0.21062279091741257,-0.21062279091741257
-0.1814043745663857,-0.1814043745663857
-0.17166490244937674,-0.17166490244937674
-0.1814043745663857,-0.1814043745663857
-0.20912441059171888,-0.20912441059171888
-0.260818531828151,-0.260818531828151
-0.3724478660923306,-0.3724478660923306
-0.4983118134506002,-0.4983118134506002
-0.5987032952720771,-0.5987032952720771
-0.656390937811284,-0.656390937811284
-0.7118310098619505,-0.7118310098619505
-0.7358050950730494,-0.7358050950730494
-0.6960980164421667,-0.6960980164421667
-0.5769767805495187,-0.5769767805495187
-0.46534744628533914,-0.46534744628533914
-0.4188976561888349,-0.4188976561888349
-0.45710635449402387,-0.45710635449402387
-0.4983118134506002,-0.4983118134506002
-0.5110480462189966,-0.5110480462189966
-0.4983118134506002,-0.4983118134506002
-0.5230350888245461,-0.5230350888245461
-0.5769767805495187,-0.5769767805495187
-0.6376611837401129,-0.6376611837401129
-0.656390937811284,-0.656390937811284
-0.6593876984626714,-0.6593876984626714
-0.656390937811284,-0.656390937811284
-0.6653812197654462,-0.6653812197654462
-0.656390937811284,-0.656390937811284
-0.6496482263456624,-0.6496482263456624
-0.656390937811284,-0.656390937811284
-0.6975963967678604,-0.6975963967678604
-0.7358050950730494,-0.7358050950730494
-0.7762613638667789,-0.7762613638667789
-0.8144700621719679,-0.8144700621719679
-0.847434429337229,-0.847434429337229
-0.8144700621719679,-0.8144700621719679
-0.7522872786556799,-0.7522872786556799
-0.7358050950730494,-0.7358050950730494
-0.8152192523348147,-0.8152192523348147
-0.8938842194337332,-0.8938842194337332
-0.914112353830598,-0.914112353830598
-0.8938842194337332,-0.8938842194337332
-0.9013761210622017,-0.9013761210622017
-0.8938842194337332,-0.8938842194337332
-0.8541771408028506,-0.8541771408028506
-0.8144700621719679,-0.8144700621719679
-0.8459360490115353,-0.8459360490115353
-0.8938842194337332,-0.8938842194337332
-0.9118647833420574,-0.9118647833420574
-0.8938842194337332,-0.8938842194337332
-0.8991285505736611,-0.8991285505736611
-0.8938842194337332,-0.8938842194337332
-0.8429392883601479,-0.8429392883601479
-0.7358050950730494,-0.7358050950730494
-0.6421563247171941,-0.6421563247171941
-0.5769767805495187,-0.5769767805495187
-0.5387680822443297,-0.5387680822443297
-0.4983118134506002,-0.4983118134506002
-0.4863247708450507,-0.4863247708450507
-0.4983118134506002,-0.4983118134506002
-0.5215367084988524,-0.5215367084988524
-0.4983118134506002,-0.4983118134506002
-0.45336040367978964,-0.45336040367978964
-0.4188976561888349,-0.4188976561888349
-0.4526112135169428,-0.4526112135169428
-0.4983118134506002,-0.4983118134506002
-0.5252826593130866,-0.5252826593130866
-0.4983118134506002,-0.4983118134506002
-0.4840772003565102,-0.4840772003565102
-0.4983118134506002,-0.4983118134506002
-0.547009174035645,-0.547009174035645
-0.5769767805495187,-0.5769767805495187
-0.5889638231550682,-0.5889638231550682
-0.5769767805495187,-0.5769767805495187
-0.556748646152654,-0.556748646152654
-0.4983118134506002,-0.4983118134506002
-0.4069106135832854,-0.4069106135832854
-0.260818531828151,-0.260818531828151
-0.028569581345629765,-0.028569581345629765
0.372996345940278,0.372996345940278
0.9446284401924191,0.9446284401924191
1.6391277211514423,1.6391277211514423
2.3763308413927358,2.3763308413927358
3.1435015681479026,3.1435015681479026
3.85373384252671,3.85373384252671
4.3309679762601485,4.3309679762601485
4.329469595934455,4.329469595934455
3.776567255753485,3.776567255753485
2.784639480144265,2.784639480144265
1.6391277211514423,1.6391277211514423
0.5925090636544029,0.5925090636544029
-0.1814043745663857,-0.1814043745663857
-0.6833617836737704,-0.6833617836737704
-0.9732983766954986,-0.9732983766954986
-1.142615353498885,-1.142615353498885
-1.2107916583179477,-1.2107916583179477
-1.223527891086344,-1.223527891086344
-1.2107916583179477,-1.2107916583179477
-1.2182835599464161,-1.2182835599464161
-1.2107916583179477,-1.2107916583179477
-1.1635926780585966,-1.1635926780585966
-1.0519633437944171,-1.0519633437944171
-0.9305945374132285,-0.9305945374132285
-0.8144700621719679,-0.8144700621719679
-0.7343067147473556,-0.7343067147473556
-0.656390937811284,-0.656390937811284
-0.6106903378776266,-0.6106903378776266
-0.5769767805495187,-0.5769767805495187
-0.5604945969668882,-0.5604945969668882
-0.4983118134506002,-0.4983118134506002
-0.41515170537460067,-0.41515170537460067
-0.3394834989270695,-0.3394834989270695
-0.3267472661586732,-0.3267472661586732
-0.3394834989270695,-0.3394834989270695
-0.35147054153261903,-0.35147054153261903
-0.3394834989270695,-0.3394834989270695
-0.34098187925276324,-0.34098187925276324
-0.3394834989270695,-0.3394834989270695
-0.32225212518159213,-0.32225212518159213
-0.260818531828151,-0.260818531828151
-0.20313088928894416,-0.20313088928894416
-0.1814043745663857,-0.1814043745663857
-0.21886388270872784,-0.21886388270872784
-0.260818531828151,-0.260818531828151
-0.28179585638786264,-0.28179585638786264
-0.260818531828151,-0.260818531828151
-0.2271049745000431,-0.2271049745000431
-0.1814043745663857,-0.1814043745663857
-0.16192543033236778,-0.16192543033236778
-0.1814043745663857,-0.1814043745663857
-0.25932015150245735,-0.25932015150245735
-0.3394834989270695,-0.3394834989270695
-0.399418711954817,-0.399418711954817
-0.4188976561888349,-0.4188976561888349
-0.4293863184686907,-0.4293863184686907
-0.4188976561888349,-0.4188976561888349
-0.41290413488606015,-0.41290413488606015
-0.4188976561888349,-0.4188976561888349
-0.46235068563395176,-0.46235068563395176
-0.4983118134506002,-0.4983118134506002
-0.5125464265446902,-0.5125464265446902
-0.4983118134506002,-0.4983118134506002
-0.49756262328775336,-0.49756262328775336
-0.4983118134506002,-0.4983118134506002
-0.5043053347533749,-0.5043053347533749
-0.4983118134506002,-0.4983118134506002
-0.5020577642648344,-0.5020577642648344
-0.4983118134506002,-0.4983118134506002
-0.4998101937762939,-0.4998101937762939
-0.4983118134506002,-0.4983118134506002
-0.5073020954047623,-0.5073020954047623
-0.4983118134506002,-0.4983118134506002
-0.49007072165928495,-0.49007072165928495
-0.4983118134506002,-0.4983118134506002
-0.5642405477811224,-0.5642405477811224
-0.656390937811284,-0.656390937811284
-0.7522872786556799,-0.7522872786556799
-0.8144700621719679,-0.8144700621719679
-0.8654149932455532,-0.8654149932455532
-0.8938842194337332,-0.8938842194337332
-0.9111155931792106,-0.9111155931792106
-0.8938842194337332,-0.8938842194337332
-0.8624182325941658,-0.8624182325941658
-0.8144700621719679,-0.8144700621719679
-0.7777597441924726,-0.7777597441924726
-0.7358050950730494,-0.7358050950730494
-0.6983455869307073,-0.6983455869307073
-0.656390937811284,-0.656390937811284
-0.6451530853685814,-0.6451530853685814
-0.656390937811284,-0.656390937811284
-0.680365023022383,-0.680365023022383
-0.656390937811284,-0.656390937811284
-0.5867162526665277,-0.5867162526665277
-0.4983118134506002,-0.4983118134506002
-0.4698425872624202,-0.4698425872624202
-0.4983118134506002,-0.4983118134506002
-0.5357713215929424,-0.5357713215929424
-0.4983118134506002,-0.4983118134506002
-0.41365332504890695,-0.41365332504890695
-0.3394834989270695,-0.3394834989270695
-0.3349883579499885,-0.3349883579499885
-0.3394834989270695,-0.3394834989270695
-0.3394834989270695,-0.3394834989270695
-0.3394834989270695,-0.3394834989270695
-0.40840899390897906,-0.40840899390897906
-0.4983118134506002,-0.4983118134506002
-0.5702340690838972,-0.5702340690838972
-0.5769767805495187,-0.5769767805495187
-0.5545010756641134,-0.5545010756641134
-0.4983118134506002,-0.4983118134506002
-0.42788793814299697,-0.42788793814299697
-0.3394834989270695,-0.3394834989270695
-0.2638152924795384,-0.2638152924795384
-0.1814043745663857,-0.1814043745663857
-0.08775560421053034,-0.08775560421053034
0.056088907056063474,0.056088907056063474
0.26885891330456685,0.26885891330456685
0.6104896275627272,0.6104896275627272
1.0914697121104002,1.0914697121104002
1.7185418784132076,1.7185418784132076
2.4437579560489517,2.4437579560489517
3.222166535246821,3.222166535246821
3.91067229490307,3.91067229490307
4.3309679762601485,4.3309679762601485
4.294257658280653,4.294257658280653
3.776567255753485,3.776567255753485
2.869297968545958,2.869297968545958
1.7972068455121262,1.7972068455121262
0.7723147027376452,0.7723147027376452
-0.023325250205701864,-0.023325250205701864
-0.5634913576182755,-0.5634913576182755
-0.8938842194337332,-0.8938842194337332
-1.1059050355193898,-1.1059050355193898
-1.2107916583179477,-1.2107916583179477
-1.238511694343281,-1.238511694343281
-1.2107916583179477,-1.2107916583179477
-1.1830716222926145,-1.1830716222926145
-1.1313775010561824,-1.1313775010561824
-1.0429730618402548,-1.0429730618402548
-0.8938842194337332,-0.8938842194337332
-0.7350559049102026,-0.7350559049102026
-0.5769767805495187,-0.5769767805495187
-0.451862023354096,-0.451862023354096
-0.3394834989270695,-0.3394834989270695
-0.28179585638786264,-0.28179585638786264
-0.260818531828151,-0.260818531828151
-0.27655152524793475,-0.27655152524793475
-0.260818531828151,-0.260818531828151
-0.2271049745000431,-0.2271049745000431
-0.1814043745663857,-0.1814043745663857
-0.1551827188667462,-0.1551827188667462
-0.10199021730462036,-0.10199021730462036
-0.024823630531395552,-0.024823630531395552
0.056088907056063474,0.056088907056063474
0.07781542177862191,0.07781542177862191
0.056088907056063474,0.056088907056063474
0.011886687448099746,0.011886687448099746
-0.023325250205701864,-0.023325250205701864
-0.06827665997651243,-0.06827665997651243
-0.10199021730462036,-0.10199021730462036
-0.12146916153863828,-0.12146916153863828
-0.10199021730462036,-0.10199021730462036
-0.07052423046505296,-0.07052423046505296
-0.023325250205701864,-0.023325250205701864
0.016381828425180805,0.016381828425180805
0.056088907056063474,0.056088907056063474
0.06582837917307242,0.06582837917307242
0.056088907056063474,0.056088907056063474
0.01788020875087449,0.01788020875087449
-0.023325250205701864,-0.023325250205701864
-0.09225074518761141,-0.09225074518761141
-0.1814043745663857,-0.1814043745663857
-0.2855418072020969,-0.2855418072020969
-0.3394834989270695,-0.3394834989270695
-0.34697540055553794,-0.34697540055553794
-0.3394834989270695,-0.3394834989270695
-0.39567276114058275,-0.39567276114058275
-0.4983118134506002,-0.4983118134506002
-0.6061951969005456,-0.6061951969005456
-0.656390937811284,-0.656390937811284
-0.6691271705796804,-0.6691271705796804
-0.656390937811284,-0.656390937811284
-0.6406579443915004,-0.6406579443915004
-0.5769767805495187,-0.5769767805495187
-0.45036364302840226,-0.45036364302840226
-0.260818531828151,-0.260818531828151
-0.09824426649038615,-0.09824426649038615
-0.023325250205701864,-0.023325250205701864
-0.05179447639388189,-0.05179447639388189
-0.10199021730462036,-0.10199021730462036
-0.1446940565868904,-0.1446940565868904
-0.1814043745663857,-0.1814043745663857
-0.25707258101391683,-0.25707258101391683
-0.3394834989270695,-0.3394834989270695
-0.42339279716591594,-0.42339279716591594
-0.4983118134506002,-0.4983118134506002
-0.5889638231550682,-0.5889638231550682
-0.656390937811284,-0.656390937811284
-0.7028407279077883,-0.7028407279077883
-0.7358050950730494,-0.7358050950730494
-0.7874992163094815,-0.7874992163094815
-0.8144700621719679,-0.8144700621719679
-0.8197143933118958,-0.8197143933118958
-0.8144700621719679,-0.8144700621719679
-0.8302030555917516,-0.8302030555917516
-0.8144700621719679,-0.8144700621719679
-0.7725154130525447,-0.7725154130525447
-0.7358050950730494,-0.7358050950730494
-0.7492905180042926,-0.7492905180042926
-0.7358050950730494,-0.7358050950730494
-0.6474006558571219,-0.6474006558571219
-0.4983118134506002,-0.4983118134506002
-0.3911776201635017,-0.3911776201635017
-0.3394834989270695,-0.3394834989270695
-0.3147602235531237,-0.3147602235531237
-0.260818531828151,-0.260818531828151
-0.21062279091741257,-0.21062279091741257
-0.1814043745663857,-0.1814043745663857
-0.18889627619485413,-0.18889627619485413
-0.1814043745663857,-0.1814043745663857
-0.1776584237521515,-0.1776584237521515
-0.1814043745663857,-0.1814043745663857
-0.22635578433719628,-0.22635578433719628
-0.260818531828151,-0.260818531828151
