ECG,PPG
0.2157545271251659,0.2157545271251659
0.2576806808441174,0.2576806808441174
0.13410885935668146,0.13410885935668146
0.03628116734579472,0.03628116734579472
-0.0004961604778469084,-0.0004961604778469084
-0.07625745579454868,-0.07625745579454868
-0.2167468480808597,-0.2167468480808597
-0.3197233659870563,-0.3197233659870563
-0.27117729325984935,-0.27117729325984935
0.00023938607862592428,0.00023938607862592428
0.5393950119732123,0.5393950119732123
1.3330497464073987,1.3330497464073987
2.241449743651347,2.241449743651347
3.0336333849725876,3.0336333849725876
3.483787877533961,3.483787877533961
3.4521593756056292,3.4521593756056292
2.9166814824934075,2.9166814824934075
1.9943061006764753,1.9943061006764753
0.9174659420002483,0.9174659420002483
-0.0453645004226897,-0.0453645004226897
-0.702943121909402,-0.702943121909402
-1.011137129071519,-1.011137129071519
-1.054534375903416,-1.054534375903416
-0.9699465219090403,-0.9699465219090403
-0.865498910889898,-0.865498910889898
-0.8000352673638159,-0.8000352673638159
-0.7838532431214137,-0.7838532431214137
-0.7875309759037779,-0.7875309759037779
-0.7573735670883917,-0.7573735670883917
-0.6742568062069616,-0.6742568062069616
-0.5683381020748737,-0.5683381020748737
-0.48522134119344357,-0.48522134119344357
-0.43299753568387245,-0.43299753568387245
-0.4021045803120135,-0.4021045803120135
-0.37856709050488285,-0.37856709050488285
-0.38298036984371986,-0.38298036984371986
-0.4057823130943777,-0.4057823130943777
-0.44403073403096494,-0.44403073403096494
-0.4602127582733673,-0.4602127582733673
-0.44329518747449215,-0.44329518747449215
-0.37856709050488285,-0.37856709050488285
-0.277061665711632,-0.277061665711632
-0.16305194945834292,-0.16305194945834292
-0.074786362681603,-0.074786362681603
-0.027711383067341718,-0.027711383067341718
0.012008130982191247,0.012008130982191247
0.10762918332365949,0.10762918332365949
0.28489590343361215,0.28489590343361215
0.5129153359401903,0.5129153359401903
0.73872812877735,0.73872812877735
0.944681164589743,0.944681164589743
1.1263611640385327,1.1263611640385327
1.2690571959942623,1.2690571959942623
1.358058329327475,1.358058329327475
1.4043977623852635,1.4043977623852635
1.4271997056359214,1.4271997056359214
1.4308774384182854,1.4308774384182854
1.4036622158287906,1.4036622158287906
1.3499673172062738,1.3499673172062738
1.2845036736801918,1.2845036736801918
1.2146267508152726,1.2146267508152726
1.138129908942098,1.138129908942098
1.0528065083912495,1.0528065083912495
0.966747561283928,0.966747561283928
0.8909862659672263,0.8909862659672263
0.8299359017799812,0.8299359017799812
0.7828609221657199,0.7828609221657199
0.7350503959949858,0.7350503959949858
0.6747355783642135,0.6747355783642135
0.6041231089428216,0.6041231089428216
0.5393950119732123,0.5393950119732123
0.48422902023774983,0.48422902023774983
0.4312696681717059,0.4312696681717059
0.3731614902103521,0.3731614902103521
0.32314432437019946,0.32314432437019946
0.290044729328922,0.290044729328922
0.26944942574768266,0.26944942574768266
0.24370529627113355,0.24370529627113355
0.2157545271251659,0.2157545271251659
0.18486157175330692,0.18486157175330692
0.16132408194617628,0.16132408194617628
0.12601784723548032,0.12601784723548032
0.08041396073416468,0.08041396073416468
0.014214770651609745,0.014214770651609745
-0.054926605656836526,-0.054926605656836526
-0.11891915606997297,-0.11891915606997297
-0.16305194945834292,-0.16305194945834292
-0.1917382651607834,-0.1917382651607834
-0.2167468480808597,-0.2167468480808597
-0.2498464431221372,-0.2498464431221372
-0.2976569692928713,-0.2976569692928713
-0.3726827180531002,-0.3726827180531002
-0.48669243430638925,-0.48669243430638925
-0.6132064420197165,-0.6132064420197165
-0.6757278993199073,-0.6757278993199073
-0.5771646607525477,-0.5771646607525477
-0.24396207067035452,-0.24396207067035452
0.3533017331855856,0.3533017331855856
1.1881470747822507,1.1881470747822507
2.153184156874607,2.153184156874607
3.0520220488844085,3.0520220488844085
3.6492858527403484,3.6492858527403484
3.7544690103159635,3.7544690103159635
3.299901238415753,3.299901238415753
2.3767903100423484,2.3767903100423484
1.216833390484691,1.216833390484691
0.10762918332365949,0.10762918332365949
-0.7272161582730056,-0.7272161582730056
-1.2163546183274392,-1.2163546183274392
-1.4267209334786695,-1.4267209334786695
-1.4863002045529687,-1.4863002045529687
-1.4914490304482786,-1.4914490304482786
-1.4863002045529687,-1.4863002045529687
-1.4745314596494035,-1.4745314596494035
-1.4598205285199468,-1.4598205285199468
-1.4517295163987458,-1.4517295163987458
-1.4598205285199468,-1.4598205285199468
-1.468647087197621,-1.468647087197621
-1.4598205285199468,-1.4598205285199468
-1.432605305930452,-1.432605305930452
-1.4053900833409572,-1.4053900833409572
-1.392885791880919,-1.392885791880919
-1.3781748607514623,-1.3781748607514623
-1.3619928365090601,-1.3619928365090601
-1.3516951847184404,-1.3516951847184404
-1.3634639296220057,-1.3634639296220057
-1.3781748607514623,-1.3781748607514623
-1.3752326745255712,-1.3752326745255712
-1.3516951847184404,-1.3516951847184404
-1.3141823103383259,-1.3141823103383259
-1.270049516949956,-1.270049516949956
-1.2156190717709665,-1.2156190717709665
-1.1626597197049224,-1.1626597197049224
-1.1104359141953513,-1.1104359141953513
-1.054534375903416,-1.054534375903416
-0.9780375340302415,-0.9780375340302415
-0.8919785869229201,-0.8919785869229201
-0.813275105380327,-0.813275105380327
-0.7573735670883917,-0.7573735670883917
-0.7125052271435489,-0.7125052271435489
-0.6757278993199073,-0.6757278993199073
-0.6492482232868853,-0.6492482232868853
-0.6492482232868853,-0.6492482232868853
-0.6713146199810702,-0.6713146199810702
-0.702943121909402,-0.702943121909402
-0.7286872513859513,-0.7286872513859513
-0.7573735670883917,-0.7573735670883917
-0.7926798017990876,-0.7926798017990876
-0.8382836883004032,-0.8382836883004032
-0.8868297610276102,-0.8868297610276102
-0.9464090321019096,-0.9464090321019096
-1.0074593962891547,-1.0074593962891547
-1.054534375903416,-1.054534375903416
-1.072187493258764,-1.072187493258764
-1.081014051936438,-1.081014051936438
-1.094253889952949,-1.094253889952949
-1.1082292745259328,-1.1082292745259328
-1.1097003676388786,-1.1097003676388786
-1.1082292745259328,-1.1082292745259328
-1.117055833203607,-1.117055833203607
-1.1354444971154276,-1.1354444971154276
-1.1435355092366288,-1.1435355092366288
-1.1354444971154276,-1.1354444971154276
-1.1199980194294983,-1.1199980194294983
-1.1082292745259328,-1.1082292745259328
-1.1067581814129872,-1.1067581814129872
-1.1082292745259328,-1.1082292745259328
-1.1199980194294983,-1.1199980194294983
-1.1354444971154276,-1.1354444971154276
-1.155304254140194,-1.155304254140194
-1.1626597197049224,-1.1626597197049224
-1.1457421489060473,-1.1457421489060473
-1.1082292745259328,-1.1082292745259328
-1.0707164001458185,-1.0707164001458185
-1.054534375903416,-1.054534375903416
-1.0530632827904705,-1.0530632827904705
-1.054534375903416,-1.054534375903416
-1.055269922459889,-1.055269922459889
-1.081014051936438,-1.081014051936438
-1.1354444971154276,-1.1354444971154276
-1.1626597197049224,-1.1626597197049224
-1.0449722706692692,-1.0449722706692692
-0.6757278993199073,-0.6757278993199073
-0.010058265711993733,-0.010058265711993733
0.8909862659672263,0.8909862659672263
1.876618651640822,1.876618651640822
2.7276460174798896,2.7276460174798896
3.216784477534323,3.216784477534323
3.186627068718937,3.186627068718937
2.6489425359372962,2.6489425359372962
1.7824686924122994,1.7824686924122994
0.8549444847000575,0.8549444847000575
0.08041396073416468,0.08041396073416468
-0.44182409436154646,-0.44182409436154646
-0.7301583444988968,-0.7301583444988968
-0.8596145384381154,-0.8596145384381154
-0.9191938095124148,-0.9191938095124148
-0.9611199632313663,-0.9611199632313663
-1.0001039307244264,-1.0001039307244264
-1.0302613395398126,-1.0302613395398126
-1.054534375903416,-1.054534375903416
-1.0736585863717096,-1.0736585863717096
-1.081014051936438,-1.081014051936438
-1.0663031208069813,-1.0663031208069813
-1.0273191533139212,-1.0273191533139212
-0.9750953478043501,-0.9750953478043501
-0.9191938095124148,-0.9191938095124148
-0.8735899230110993,-0.8735899230110993
-0.8382836883004032,-0.8382836883004032
-0.8221016640580009,-0.8221016640580009
-0.8110684657109084,-0.8110684657109084
-0.8037130001461801,-0.8037130001461801
-0.7838532431214137,-0.7838532431214137
-0.7456048221848264,-0.7456048221848264
-0.6757278993199073,-0.6757278993199073
-0.575693567639602,-0.575693567639602
-0.4602127582733673,-0.4602127582733673
-0.34620304202007823,-0.34620304202007823
-0.24396207067035452,-0.24396207067035452
-0.14834101832888627,-0.14834101832888627
-0.054926605656836526,-0.054926605656836526
0.048785458805832876,0.048785458805832876
0.16132408194617628,0.16132408194617628
0.27092051886062835,0.27092051886062835
0.3503595469596943,0.3503595469596943
0.39228570067864577,0.39228570067864577
0.40478999213868394,0.40478999213868394
0.39375679379159145,0.39375679379159145
0.3503595469596943,0.3503595469596943
0.27386270508651966,0.27386270508651966
0.18853930453567108,0.18853930453567108
0.12381120756606181,0.12381120756606181
0.08041396073416468,0.08041396073416468
0.03628116734579472,0.03628116734579472
-0.027711383067341718,-0.027711383067341718
-0.10715041116640764,-0.10715041116640764
-0.1895316254913649,-0.1895316254913649
-0.25573081557391986,-0.25573081557391986
-0.2976569692928713,-0.2976569692928713
-0.3226655522129476,-0.3226655522129476
-0.3520874144718609,-0.3520874144718609
-0.3932780216343395,-0.3932780216343395
-0.43299753568387245,-0.43299753568387245
-0.4550639323780574,-0.4550639323780574
-0.4602127582733673,-0.4602127582733673
-0.45947721171689443,-0.45947721171689443
-0.4602127582733673,-0.4602127582733673
-0.4602127582733673,-0.4602127582733673
-0.4602127582733673,-0.4602127582733673
-0.4602127582733673,-0.4602127582733673
-0.4602127582733673,-0.4602127582733673
-0.4602127582733673,-0.4602127582733673
-0.4602127582733673,-0.4602127582733673
-0.47713032907224245,-0.47713032907224245
-0.513907656895884,-0.513907656895884
-0.5705447417442921,-0.5705447417442921
-0.6220330006973904,-0.6220330006973904
-0.6654302475292876,-0.6654302475292876
-0.702943121909402,-0.702943121909402
-0.7360427169506796,-0.7360427169506796
-0.7573735670883917,-0.7573735670883917
-0.773555591330794,-0.773555591330794
-0.8110684657109084,-0.8110684657109084
-0.8831520282452461,-0.8831520282452461
-0.9728887081349317,-0.9728887081349317
-1.0479144568951606,-1.0479144568951606
-1.081014051936438,-1.081014051936438
-1.0221703274186114,-1.0221703274186114
-0.7838532431214137,-0.7838532431214137
-0.28735931750225163,-0.28735931750225163
0.4584848907612007,0.4584848907612007
1.3315786532944531,1.3315786532944531
2.133324399849841,2.133324399849841
2.668802292962063,2.668802292962063
2.808556138691901,2.808556138691901
2.53566836624048,2.53566836624048
1.9442889348363226,1.9442889348363226
1.2109490180329086,1.2109490180329086
0.5129153359401903,0.5129153359401903
-0.03359575551912438,-0.03359575551912438
-0.4057823130943777,-0.4057823130943777
-0.6389505714962657,-0.6389505714962657
-0.7838532431214137,-0.7838532431214137
-0.8794742954628819,-0.8794742954628819
-0.9464090321019096,-0.9464090321019096
-0.9868640927079154,-0.9868640927079154
-1.0001039307244264,-1.0001039307244264
-0.9971617444985351,-0.9971617444985351
-1.0001039307244264,-1.0001039307244264
-1.0162859549668288,-1.0162859549668288
-1.0273191533139212,-1.0273191533139212
-1.0199636877491929,-1.0199636877491929
-1.0001039307244264,-1.0001039307244264
-0.9883351858208611,-0.9883351858208611
-0.9728887081349317,-0.9728887081349317
-0.944937938988964,-0.944937938988964
-0.8919785869229201,-0.8919785869229201
-0.844168060752186,-0.844168060752186
-0.8110684657109084,-0.8110684657109084
-0.791208708686142,-0.791208708686142
-0.7573735670883917,-0.7573735670883917
-0.6992653891270378,-0.6992653891270378
-0.6220330006973904,-0.6220330006973904
-0.5345029604771234,-0.5345029604771234
-0.43299753568387245,-0.43299753568387245
-0.31457454009174646,-0.31457454009174646
-0.1895316254913649,-0.1895316254913649
-0.06743089711687468,-0.06743089711687468
0.053198738144669876,0.053198738144669876
0.17162173373679593,0.17162173373679593
0.26944942574768266,0.26944942574768266
0.3224087778137266,0.3224087778137266
0.32314432437019946,0.32314432437019946
0.2951935552242318,0.2951935552242318
0.26944942574768266,0.26944942574768266
0.2760693447559382,0.2760693447559382
0.32314432437019946,0.32314432437019946
0.39596343346100993,0.39596343346100993
0.4584848907612007,0.4584848907612007
0.4827579271248042,0.4827579271248042
0.4584848907612007,0.4584848907612007
0.39890561968690125,0.39890561968690125
0.32314432437019946,0.32314432437019946
0.24958966872291619,0.24958966872291619
0.18853930453567108,0.18853930453567108
0.14293541803435547,0.14293541803435547
0.10762918332365949,0.10762918332365949
0.07011630894354502,0.07011630894354502
0.025983515555175068,0.025983515555175068
-0.010793812268466565,-0.010793812268466565
-0.027711383067341718,-0.027711383067341718
-0.032860208962651544,-0.032860208962651544
-0.054926605656836526,-0.054926605656836526
-0.11377033017466313,-0.11377033017466313
-0.1895316254913649,-0.1895316254913649
-0.2498464431221372,-0.2498464431221372
-0.27117729325984935,-0.27117729325984935
-0.2733839329292678,-0.2733839329292678
-0.27117729325984935,-0.27117729325984935
-0.2689706535904308,-0.2689706535904308
-0.24396207067035452,-0.24396207067035452
-0.21527575496791404,-0.21527575496791404
-0.2167468480808597,-0.2167468480808597
-0.2844171312763603,-0.2844171312763603
-0.4057823130943777,-0.4057823130943777
-0.5345029604771234,-0.5345029604771234
-0.6220330006973904,-0.6220330006973904
-0.6551325957386679,-0.6551325957386679
-0.6492482232868853,-0.6492482232868853
-0.6190908144714992,-0.6190908144714992
-0.5683381020748737,-0.5683381020748737
-0.49551899298406327,-0.49551899298406327
-0.37856709050488285,-0.37856709050488285
-0.14907656488535911,-0.14907656488535911
0.26944942574768266,0.26944942574768266
0.8755397882812969,0.8755397882812969
1.5934332273987815,1.5934332273987815
2.351046180565799,2.351046180565799
3.0520220488844085,3.0520220488844085
3.458043748057412,3.458043748057412
3.2682727364874213,3.2682727364874213
2.426071929326028,2.426071929326028
1.2690571959942623,1.2690571959942623
0.25400294806175316,0.25400294806175316
-0.4057823130943777,-0.4057823130943777
-0.7845887896778865,-0.7845887896778865
-1.0001039307244264,-1.0001039307244264
-1.0876339709446936,-1.0876339709446936
-1.054534375903416,-1.054534375903416
-0.9559711373360565,-0.9559711373360565
-0.865498910889898,-0.865498910889898
-0.813275105380327,-0.813275105380327
-0.7838532431214137,-0.7838532431214137
-0.751489194636609,-0.751489194636609
-0.702943121909402,-0.702943121909402
-0.6507193163998309,-0.6507193163998309
-0.5948177781078956,-0.5948177781078956
-0.5352385070335962,-0.5352385070335962
-0.4602127582733673,-0.4602127582733673
-0.382244823287247,-0.382244823287247
-0.2976569692928713,-0.2976569692928713
-0.21380466185496838,-0.21380466185496838
-0.10862150427935331,-0.10862150427935331
0.009065944756299916,0.009065944756299916
0.13410885935668146,0.13410885935668146
0.23046545825462256,0.23046545825462256
0.26944942574768266,0.26944942574768266
0.250325215279389,0.250325215279389
0.2157545271251659,0.2157545271251659
0.21722562023811157,0.21722562023811157
0.2966646483371775,0.2966646483371775
0.470253635664766,0.470253635664766
0.7284304769867302,0.7284304769867302
1.0130869943417165,1.0130869943417165
1.2418419734047674,1.2418419734047674
1.366884888005149,1.366884888005149
1.4043977623852635,1.4043977623852635
1.3896868312558068,1.3896868312558068
1.3499673172062738,1.3499673172062738
1.3073056169308497,1.3073056169308497
1.296272418583757,1.296272418583757
1.3212810015038334,1.3212810015038334
1.3499673172062738,1.3499673172062738
1.3470251309803825,1.3470251309803825
1.322752094616779,1.322752094616779
1.292594685801393,1.292594685801393
1.2418419734047674,1.2418419734047674
1.1462209210632992,1.1462209210632992
1.0255912858017546,1.0255912858017546
0.9248214075649767,0.9248214075649767
0.8637710433777315,0.8637710433777315
0.8233159827717257,0.8233159827717257
0.7828609221657199,0.7828609221657199
0.7379925822208772,0.7379925822208772
0.7019508009537083,0.7019508009537083
0.6791488577030506,0.6791488577030506
0.6747355783642135,0.6747355783642135
0.676942218033632,0.676942218033632
0.6747355783642135,0.6747355783642135
0.6475203557747187,0.6475203557747187
0.5938254571522019,0.5938254571522019
0.5180641618355002,0.5180641618355002
0.4584848907612007,0.4584848907612007
0.4356829475105429,0.4356829475105429
0.4584848907612007,0.4584848907612007
0.4643692632129834,0.4643692632129834
0.40478999213868394,0.40478999213868394
0.25400294806175316,0.25400294806175316
0.08041396073416468,0.08041396073416468
-0.046100046979162534,-0.046100046979162534
-0.0814062816898585,-0.0814062816898585
-0.04462895386621687,-0.04462895386621687
0.025983515555175068,0.025983515555175068
0.07967841417769185,0.07967841417769185
0.08041396073416468,0.08041396073416468
0.023776875885756568,0.023776875885756568
-0.054926605656836526,-0.054926605656836526
-0.11450587673113596,-0.11450587673113596
-0.10862150427935331,-0.10862150427935331
0.039223353571686055,0.039223353571686055
0.4312696681717059,0.4312696681717059
1.0991459414490379,1.0991459414490379
1.9715041574258174,1.9715041574258174
2.9130037497110433,2.9130037497110433
3.7544690103159635,3.7544690103159635
4.247285203152761,4.247285203152761
4.132539940342999,4.132539940342999
3.344034031804123,3.344034031804123
2.133324399849841,2.133324399849841
0.905697197096683,0.905697197096683
-0.027711383067341718,-0.027711383067341718
-0.558040450284254,-0.558040450284254
-0.7301583444988968,-0.7301583444988968
-0.6933810166752552,-0.6933810166752552
-0.6220330006973904,-0.6220330006973904
-0.5970244177773142,-0.5970244177773142
-0.5683381020748737,-0.5683381020748737
-0.47786587562871524,-0.47786587562871524
-0.3520874144718609,-0.3520874144718609
-0.24616871033977303,-0.24616871033977303
-0.16305194945834292,-0.16305194945834292
-0.11009259739229897,-0.11009259739229897
-0.13583672686884812,-0.13583672686884812
-0.2674995604774852,-0.2674995604774852
-0.4057823130943777,-0.4057823130943777
-0.430790896014454,-0.430790896014454
-0.2976569692928713,-0.2976569692928713
-0.09832385248873365,-0.09832385248873365
0.08041396073416468,0.08041396073416468
0.1642662681720676,0.1642662681720676
0.16132408194617628,0.16132408194617628
0.12381120756606181,0.12381120756606181
0.13410885935668146,0.13410885935668146
0.20839906156043755,0.20839906156043755
0.2966646483371775,0.2966646483371775
0.35624391941147693,0.35624391941147693
0.4312696681717059,0.4312696681717059
0.5842633519180551,0.5842633519180551
0.8100761447552147,0.8100761447552147
1.0226490995758633,1.0226490995758633
1.1609318521927559,1.1609318521927559
1.2381642406224034,1.2381642406224034
1.322752094616779,1.322752094616779
1.4477950092171605,1.4477950092171605
1.5934332273987815,1.5934332273987815
1.7192116885556359,1.7192116885556359
1.8089483684453214,1.8089483684453214
1.8464612428254359,1.8464612428254359
1.8089483684453214,1.8089483684453214
1.7052363039826521,1.7052363039826521
1.5934332273987815,1.5934332273987815
1.520614118307971,1.520614118307971
1.485307883597275,1.485307883597275
1.4500016488865792,1.4500016488865792
1.4043977623852635,1.4043977623852635
1.3529095034321652,1.3529095034321652
1.296272418583757,1.296272418583757
1.226395495718838,1.226395495718838
1.1609318521927559,1.1609318521927559
1.1138568725784945,1.1138568725784945
1.0800217309807443,1.0800217309807443
1.032946751366483,1.032946751366483
0.9718963871792379,0.9718963871792379
0.91011047643552,0.91011047643552
0.8637710433777315,0.8637710433777315
0.817431610319943,0.817431610319943
0.7556456995762251,0.7556456995762251
0.672528938694795,0.672528938694795
0.5938254571522019,0.5938254571522019
0.5224774411743371,0.5224774411743371
0.4584848907612007,0.4584848907612007
0.3694837574279879,0.3694837574279879
0.26944942574768266,0.26944942574768266
0.1708861871803231,0.1708861871803231
0.10762918332365949,0.10762918332365949
0.06423193649176237,0.06423193649176237
0.025983515555175068,0.025983515555175068
-0.02550474339792322,-0.02550474339792322
-0.0814062816898585,-0.0814062816898585
-0.13510118031237528,-0.13510118031237528
-0.1895316254913649,-0.1895316254913649
-0.2674995604774852,-0.2674995604774852
-0.37856709050488285,-0.37856709050488285
-0.5087588310005743,-0.5087588310005743
-0.5948177781078956,-0.5948177781078956
-0.5403873329289061,-0.5403873329289061
-0.24396207067035452,-0.24396207067035452
0.3378552554996561,0.3378552554996561
1.1609318521927559,1.1609318521927559
2.1039025375909275,2.1039025375909275
2.997591603705419,2.997591603705419
3.6389882009497287,3.6389882009497287
3.8353791315279753,3.8353791315279753
3.4911433430986896,3.4911433430986896
2.6739511188573726,2.6739511188573726
1.5941687739552544,1.5941687739552544
0.5129153359401903,0.5129153359401903
-0.3513518679153881,-0.3513518679153881
-0.8919785869229201,-0.8919785869229201
-1.1398577764542646,-1.1398577764542646
-1.2163546183274392,-1.2163546183274392
-1.23474328223926,-1.23474328223926
-1.243569840916934,-1.243569840916934
-1.244305387473407,-1.244305387473407
-1.243569840916934,-1.243569840916934
-1.2465120271428254,-1.2465120271428254
-1.243569840916934,-1.243569840916934
-1.221503444222749,-1.221503444222749
-1.1891393957379444,-1.1891393957379444
-1.1692796387131779,-1.1692796387131779
-1.1626597197049224,-1.1626597197049224
-1.15677534725314,-1.15677534725314
-1.1354444971154276,-1.1354444971154276
-1.1177913797600796,-1.1177913797600796
-1.1082292745259328,-1.1082292745259328
-1.1067581814129872,-1.1067581814129872
-1.081014051936438,-1.081014051936438
-1.0309968860962855,-1.0309968860962855
-0.9728887081349317,-0.9728887081349317
-0.922871542294779,-0.922871542294779
-0.865498910889898,-0.865498910889898
-0.7809110568955223,-0.7809110568955223
-0.6757278993199073,-0.6757278993199073
-0.5676025555184009,-0.5676025555184009
-0.4602127582733673,-0.4602127582733673
-0.34105421612476844,-0.34105421612476844
-0.2167468480808597,-0.2167468480808597
-0.10715041116640764,-0.10715041116640764
-0.027711383067341718,-0.027711383067341718
0.031132341450484897,0.031132341450484897
0.08041396073416468,0.08041396073416468
0.12013347478369765,0.12013347478369765
0.13410885935668146,0.13410885935668146
0.11792683511427915,0.11792683511427915
0.08041396073416468,0.08041396073416468
0.04731436569288722,0.04731436569288722
0.025983515555175068,0.025983515555175068
0.007594851643354251,0.007594851643354251
-0.027711383067341718,-0.027711383067341718
-0.07846409546396717,-0.07846409546396717
-0.13583672686884812,-0.13583672686884812
-0.19026717204783775,-0.19026717204783775
-0.24396207067035452,-0.24396207067035452
-0.29177259684108864,-0.29177259684108864
-0.3248721918823661,-0.3248721918823661
-0.3388475764553499,-0.3388475764553499
-0.3520874144718609,-0.3520874144718609
-0.38298036984371986,-0.38298036984371986
-0.43299753568387245,-0.43299753568387245
-0.48227915496755225,-0.48227915496755225
-0.513907656895884,-0.513907656895884
-0.5293541345818136,-0.5293541345818136
-0.5411228794853788,-0.5411228794853788
-0.5558338106148355,-0.5558338106148355
-0.5683381020748737,-0.5683381020748737
-0.5734869279701835,-0.5734869279701835
-0.5683381020748737,-0.5683381020748737
-0.5808423935349118,-0.5808423935349118
-0.6220330006973904,-0.6220330006973904
-0.6874966442234726,-0.6874966442234726
-0.7301583444988968,-0.7301583444988968
-0.7470759152977721,-0.7470759152977721
-0.7573735670883917,-0.7573735670883917
-0.7684067654354841,-0.7684067654354841
-0.7573735670883917,-0.7573735670883917
-0.7279517048294784,-0.7279517048294784
-0.7301583444988968,-0.7301583444988968
-0.7772333241131582,-0.7772333241131582
-0.8382836883004032,-0.8382836883004032
-0.9169871698429963,-0.9169871698429963
-1.054534375903416,-1.054534375903416
-1.1751640111649606,-1.1751640111649606
-1.054534375903416,-1.054534375903416
-0.513907656895884,-0.513907656895884
0.3775747695491891,0.3775747695491891
1.3955712037075896,1.3955712037075896
2.3495750874528536,2.3495750874528536
3.115279052741072,3.115279052741072
3.5382183227129507,3.5382183227129507
3.462457027396249,3.462457027396249
2.8629865838708906,2.8629865838708906
1.9067760604562083,1.9067760604562083
0.8637710433777315,0.8637710433777315
-0.021091464059086223,-0.021091464059086223
-0.6220330006973904,-0.6220330006973904
-0.944937938988964,-0.944937938988964
-1.081014051936438,-1.081014051936438
-1.1258823918812808,-1.1258823918812808
-1.1354444971154276,-1.1354444971154276
-1.1332378574460091,-1.1332378574460091
-1.1354444971154276,-1.1354444971154276
-1.1398577764542646,-1.1398577764542646
-1.1354444971154276,-1.1354444971154276
-1.1133781004212426,-1.1133781004212426
-1.081014051936438,-1.081014051936438
-1.0449722706692692,-1.0449722706692692
-1.0001039307244264,-1.0001039307244264
-0.9478801252148553,-0.9478801252148553
-0.8919785869229201,-0.8919785869229201
-0.8581434453251697,-0.8581434453251697
-0.8382836883004032,-0.8382836883004032
-0.8301926761792021,-0.8301926761792021
-0.8110684657109084,-0.8110684657109084
-0.7794399637825766,-0.7794399637825766
-0.7301583444988968,-0.7301583444988968
-0.6742568062069616,-0.6742568062069616
-0.6220330006973904,-0.6220330006973904
-0.5734869279701835,-0.5734869279701835
-0.513907656895884,-0.513907656895884
-0.43005534945798113,-0.43005534945798113
-0.3248721918823661,-0.3248721918823661
-0.20644919629024006,-0.20644919629024006
-0.0814062816898585,-0.0814062816898585
0.045107726023468714,0.045107726023468714
0.16132408194617628,0.16132408194617628
0.26209396018295433,0.26209396018295433
0.3503595469596943,0.3503595469596943
0.42832748194581455,0.42832748194581455
0.4857001133506955,0.4857001133506955
0.5121797893837174,0.5121797893837174
0.5129153359401903,0.5129153359401903
0.5018821375930979,0.5018821375930979
0.4857001133506955,0.4857001133506955
0.46363371665651054,0.46363371665651054
0.4312696681717059,0.4312696681717059
0.3856657816703903,0.3856657816703903
0.32314432437019946,0.32314432437019946
0.2532674015052804,0.2532674015052804
0.18853930453567108,0.18853930453567108
0.14219987147788263,0.14219987147788263
0.10762918332365949,0.10762918332365949
0.07085185550001787,0.07085185550001787
0.025983515555175068,0.025983515555175068
-0.018149277833194893,-0.018149277833194893
-0.054926605656836526,-0.054926605656836526
-0.08214182824633133,-0.08214182824633133
-0.10862150427935331,-0.10862150427935331
-0.1424566458771036,-0.1424566458771036
-0.1895316254913649,-0.1895316254913649
-0.2520530827915557,-0.2520530827915557
-0.3248721918823661,-0.3248721918823661
-0.4072534062073233,-0.4072534062073233
-0.48669243430638925,-0.48669243430638925
-0.5617181830666181,-0.5617181830666181
-0.6220330006973904,-0.6220330006973904
-0.6860255511105269,-0.6860255511105269
-0.7573735670883917,-0.7573735670883917
-0.835341502074512,-0.835341502074512
-0.8919785869229201,-0.8919785869229201
-0.918458262955942,-0.918458262955942
-0.9191938095124148,-0.9191938095124148
-0.9015406921570669,-0.9015406921570669
-0.865498910889898,-0.865498910889898
-0.8287215830662564,-0.8287215830662564
-0.8382836883004032,-0.8382836883004032
-0.9103672508347409,-0.9103672508347409
-1.0001039307244264,-1.0001039307244264
-1.0140793152974104,-1.0140793152974104
-0.865498910889898,-0.865498910889898
-0.4830147015240251,-0.4830147015240251
0.16132408194617628,0.16132408194617628
1.0160291805676078,1.0160291805676078
1.9170737122468278,1.9170737122468278
2.6437937100419866,2.6437937100419866
2.997591603705419,2.997591603705419
2.880639701226239,2.880639701226239
2.3223598648633588,2.3223598648633588
1.4919278026055307,1.4919278026055307
0.6203051331852238,0.6203051331852238
-0.11009259739229897,-0.11009259739229897
-0.6492482232868853,-0.6492482232868853
-1.0229058739750843,-1.0229058739750843
-1.270049516949956,-1.270049516949956
-1.4127455489056855,-1.4127455489056855
-1.4863002045529687,-1.4863002045529687
-1.5238130789330833,-1.5238130789330833
-1.5407306497319584,-1.5407306497319584
-1.5282263582719202,-1.5282263582719202
-1.4863002045529687,-1.4863002045529687
-1.4230432006963052,-1.4230432006963052
-1.3516951847184404,-1.3516951847184404
-1.2869670877488313,-1.2869670877488313
-1.243569840916934,-1.243569840916934
-1.2251811770051133,-1.2251811770051133
-1.2163546183274392,-1.2163546183274392
-1.2141479786580207,-1.2141479786580207
-1.2163546183274392,-1.2163546183274392
-1.2318010960133687,-1.2318010960133687
-1.243569840916934,-1.243569840916934
-1.2406276546910426,-1.2406276546910426
-1.2163546183274392,-1.2163546183274392
-1.1722218249390692,-1.1722218249390692
-1.1082292745259328,-1.1082292745259328
-1.028054699870394,-1.028054699870394
-0.9464090321019096,-0.9464090321019096
-0.8669700040028437,-0.8669700040028437
-0.7838532431214137,-0.7838532431214137
-0.6757278993199073,-0.6757278993199073
-0.5411228794853788,-0.5411228794853788
-0.395484661303758,-0.395484661303758
-0.27117729325984935,-0.27117729325984935
-0.18217615992663658,-0.18217615992663658
-0.13583672686884812,-0.13583672686884812
-0.12333243540880996,-0.12333243540880996
-0.13583672686884812,-0.13583672686884812
-0.15422539078066894,-0.15422539078066894
-0.16305194945834292,-0.16305194945834292
-0.15937421667597876,-0.15937421667597876
-0.16305194945834292,-0.16305194945834292
-0.18217615992663658,-0.18217615992663658
-0.2167468480808597,-0.2167468480808597
-0.2616151880257025,-0.2616151880257025
-0.3248721918823661,-0.3248721918823661
-0.39916239408612214,-0.39916239408612214
-0.4602127582733673,-0.4602127582733673
-0.4844857946369708,-0.4844857946369708
-0.48669243430638925,-0.48669243430638925
-0.49331235331464474,-0.49331235331464474
-0.513907656895884,-0.513907656895884
-0.5337674139206505,-0.5337674139206505
-0.5411228794853788,-0.5411228794853788
-0.5389162398159604,-0.5389162398159604
-0.5411228794853788,-0.5411228794853788
-0.558040450284254,-0.558040450284254
-0.5948177781078956,-0.5948177781078956
-0.6477771301739396,-0.6477771301739396
-0.702943121909402,-0.702943121909402
-0.7522247411930818,-0.7522247411930818
-0.7838532431214137,-0.7838532431214137
-0.8051840932591258,-0.8051840932591258
-0.8110684657109084,-0.8110684657109084
-0.813275105380327,-0.813275105380327
-0.8110684657109084,-0.8110684657109084
-0.8125395588238541,-0.8125395588238541
-0.8110684657109084,-0.8110684657109084
-0.8022419070332345,-0.8022419070332345
-0.7838532431214137,-0.7838532431214137
-0.7625223929837015,-0.7625223929837015
-0.7573735670883917,-0.7573735670883917
-0.786795429347305,-0.786795429347305
-0.865498910889898,-0.865498910889898
-0.971417615021986,-0.971417615021986
-1.054534375903416,-1.054534375903416
-1.028790246426867,-1.028790246426867
-0.8110684657109084,-0.8110684657109084
-0.3403186695682956,-0.3403186695682956
0.3775747695491891,0.3775747695491891
1.2514040786389142,1.2514040786389142
2.106109177260346,2.106109177260346
2.743092495165819,2.743092495165819
2.997591603705419,2.997591603705419
2.8114983249177925,2.8114983249177925
2.241449743651347,2.241449743651347
1.4544149282254162,1.4544149282254162
0.6475203557747187,0.6475203557747187
-0.018884824389667723,-0.018884824389667723
-0.48669243430638925,-0.48669243430638925
-0.7757622310002125,-0.7757622310002125
-0.9464090321019096,-0.9464090321019096
-1.0479144568951606,-1.0479144568951606
-1.1082292745259328,-1.1082292745259328
-1.1354444971154276,-1.1354444971154276
-1.1354444971154276,-1.1354444971154276
-1.1199980194294983,-1.1199980194294983
-1.1082292745259328,-1.1082292745259328
-1.1133781004212426,-1.1133781004212426
-1.1354444971154276,-1.1354444971154276
-1.1714862783825966,-1.1714862783825966
-1.2163546183274392,-1.2163546183274392
-1.2707850635064288,-1.2707850635064288
-1.3244799621289456,-1.3244799621289456
-1.3833236866467722,-1.3833236866467722
-1.432605305930452,-1.432605305930452
-1.4612916216328926,-1.4612916216328926
-1.432605305930452,-1.432605305930452
-1.3516951847184404,-1.3516951847184404
-1.243569840916934,-1.243569840916934
-1.138386683341319,-1.138386683341319
-1.0273191533139212,-1.0273191533139212
-0.8919785869229201,-0.8919785869229201
-0.7301583444988968,-0.7301583444988968
-0.5565693571713084,-0.5565693571713084
-0.37856709050488285,-0.37856709050488285
-0.19320935827372906,-0.19320935827372906
-0.0004961604778469084,-0.0004961604778469084
0.1929525838745081,0.1929525838745081
0.3775747695491891,0.3775747695491891
0.5357172791908481,0.5357172791908481
0.6475203557747187,0.6475203557747187
0.7129839993008008,0.7129839993008008
0.7556456995762251,0.7556456995762251
0.7975718532951765,0.7975718532951765
0.8365558207882366,0.8365558207882366
0.8608288571518402,0.8608288571518402
0.8637710433777315,0.8637710433777315
0.848324565691802,0.848324565691802
0.8100761447552147,0.8100761447552147
0.7549101530197523,0.7549101530197523
0.7019508009537083,0.7019508009537083
0.6666445662430124,0.6666445662430124
0.6475203557747187,0.6475203557747187
0.6401648902099903,0.6401648902099903
0.6475203557747187,0.6475203557747187
0.6732644852512678,0.6732644852512678
0.7019508009537083,0.7019508009537083
0.7048929871795997,0.7048929871795997
0.6747355783642135,0.6747355783642135
0.6291316918628979,0.6291316918628979
0.5938254571522019,0.5938254571522019
0.5636680483368158,0.5636680483368158
0.5129153359401903,0.5129153359401903
0.41214545770341227,0.41214545770341227
0.26944942574768266,0.26944942574768266
0.087769426298893,0.087769426298893
-0.10862150427935331,-0.10862150427935331
-0.2932436899540343,-0.2932436899540343
-0.4057823130943777,-0.4057823130943777
-0.4491795599262748,-0.4491795599262748
-0.4602127582733673,-0.4602127582733673
-0.48522134119344357,-0.48522134119344357
-0.513907656895884,-0.513907656895884
-0.5256764017994494,-0.5256764017994494
-0.513907656895884,-0.513907656895884
-0.4830147015240251,-0.4830147015240251
-0.43299753568387245,-0.43299753568387245
-0.3918069285213938,-0.3918069285213938
-0.4057823130943777,-0.4057823130943777
-0.4749236894028239,-0.4749236894028239
-0.48669243430638925,-0.48669243430638925
-0.2829460381634146,-0.2829460381634146
0.2157545271251659,0.2157545271251659
0.9299702334602864,0.9299702334602864
1.7280382472333098,1.7280382472333098
2.5253707144498603,2.5253707144498603
3.2410575138979265,3.2410575138979265
3.659583504530968,3.659583504530968
3.511003100123456,3.511003100123456
2.7563323331823297,2.7563323331823297
1.700823024643815,1.700823024643815
0.7394636753338227,0.7394636753338227
0.053198738144669876,0.053198738144669876
-0.3719471714966274,-0.3719471714966274
-0.5683381020748737,-0.5683381020748737
-0.5587759968407269,-0.5587759968407269
-0.43299753568387245,-0.43299753568387245
-0.31163235386585514,-0.31163235386585514
-0.24396207067035452,-0.24396207067035452
-0.21601130152438688,-0.21601130152438688
-0.2167468480808597,-0.2167468480808597
-0.24690425689624584,-0.24690425689624584
-0.27117729325984935,-0.27117729325984935
-0.25058198967861,-0.25058198967861
-0.1895316254913649,-0.1895316254913649
-0.13657227342532094,-0.13657227342532094
-0.10862150427935331,-0.10862150427935331
-0.10788595772288048,-0.10788595772288048
-0.10862150427935331,-0.10862150427935331
-0.11450587673113596,-0.11450587673113596
-0.10862150427935331,-0.10862150427935331
-0.10567931805346198,-0.10567931805346198
-0.10862150427935331,-0.10862150427935331
-0.13804336653826663,-0.13804336653826663
-0.1895316254913649,-0.1895316254913649
-0.24249097755740887,-0.24249097755740887
-0.24396207067035452,-0.24396207067035452
-0.14981211144183193,-0.14981211144183193
0.053198738144669876,0.053198738144669876
0.3150533122489983,0.3150533122489983
0.5666102345627071,0.5666102345627071
0.7615300720280078,0.7615300720280078
0.9174659420002483,0.9174659420002483
1.0711951723030704,1.0711951723030704
1.2418419734047674,1.2418419734047674
1.4073399486111549,1.4073399486111549
1.5390027822197918,1.5390027822197918
1.6154996240929664,1.6154996240929664
1.6471281260212982,1.6471281260212982
1.6640456968201733,1.6640456968201733
1.700823024643815,1.700823024643815
1.7530468301533861,1.7530468301533861
1.7824686924122994,1.7824686924122994
1.7515757370404406,1.7515757370404406
1.674343348610793,1.674343348610793
1.5919621342858359,1.5919621342858359
1.5390027822197918,1.5390027822197918
1.511787559630297,1.511787559630297
1.485307883597275,1.485307883597275
1.4308774384182854,1.4308774384182854
1.3499673172062738,1.3499673172062738
1.2609661838730613,1.2609661838730613
1.1881470747822507,1.1881470747822507
1.1234189778126413,1.1234189778126413
1.0528065083912495,1.0528065083912495
0.9814584924133848,0.9814584924133848
0.944681164589743,0.944681164589743
0.9387967921379604,0.9387967921379604
0.9174659420002483,0.9174659420002483
0.8299359017799812,0.8299359017799812
0.7019508009537083,0.7019508009537083
0.5813211656921637,0.5813211656921637
0.5129153359401903,0.5129153359401903
0.4739313684471302,0.4739313684471302
0.4584848907612007,0.4584848907612007
0.43421185439759724,0.43421185439759724
0.40478999213868394,0.40478999213868394
0.3687482108715151,0.3687482108715151
0.3503595469596943,0.3503595469596943
0.3422685348384931,0.3422685348384931
0.32314432437019946,0.32314432437019946
0.276804891312411,0.276804891312411
0.2157545271251659,0.2157545271251659
0.1502908835990838,0.1502908835990838
0.08041396073416468,0.08041396073416468
0.006859305086881418,0.006859305086881418
-0.0004961604778469084,-0.0004961604778469084
0.17897719930152425,0.17897719930152425
0.6475203557747187,0.6475203557747187
1.3838024588040243,1.3838024588040243
2.268664966240842,2.268664966240842
3.158676299572969,3.158676299572969
3.9162892527399866,3.9162892527399866
4.346583988276594,4.346583988276594
4.240665284144506,4.240665284144506
3.5411605089388423,3.5411605089388423
2.4577004312543598,2.4577004312543598
1.3264298273991433,1.3264298273991433
0.40478999213868394,0.40478999213868394
-0.22410231364558802,-0.22410231364558802
-0.5683381020748737,-0.5683381020748737
-0.6757278993199073,-0.6757278993199073
-0.6220330006973904,-0.6220330006973904
-0.5094943775570471,-0.5094943775570471
-0.4057823130943777,-0.4057823130943777
-0.31898781943058346,-0.31898781943058346
-0.2167468480808597,-0.2167468480808597
-0.09905939904520648,-0.09905939904520648
-0.0004961604778469084,-0.0004961604778469084
0.03701671390226756,0.03701671390226756
0.025983515555175068,0.025983515555175068
0.000974932635098757,0.000974932635098757
-0.0004961604778469084,-0.0004961604778469084
0.022305782772810905,0.022305782772810905
0.08041396073416468,0.08041396073416468
0.13631549902609996,0.13631549902609996
0.16132408194617628,0.16132408194617628
0.1326377662437358,0.1326377662437358
0.10762918332365949,0.10762918332365949
0.14293541803435547,0.14293541803435547
0.26944942574768266,0.26944942574768266
0.4577493442047279,0.4577493442047279
0.6475203557747187,0.6475203557747187
0.7512324202373881,0.7512324202373881
0.7284304769867302,0.7284304769867302
0.6585535541218112,0.6585535541218112
0.7019508009537083,0.7019508009537083
0.914523755774357,0.914523755774357
1.1881470747822507,1.1881470747822507
1.3749759001263502,1.3749759001263502
1.4580926610077802,1.4580926610077802
1.50737428029146,1.50737428029146
1.5662180048092866,1.5662180048092866
1.6074086119717654,1.6074086119717654
1.6199129034318034,1.6199129034318034
1.626532822440059,1.626532822440059
1.6471281260212982,1.6471281260212982
1.6618390571507549,1.6618390571507549
1.6471281260212982,1.6471281260212982
1.5993175998505642,1.5993175998505642
1.5390027822197918,1.5390027822197918
1.4742746852501827,1.4742746852501827
1.4043977623852635,1.4043977623852635
1.3220165480603063,1.3220165480603063
1.2418419734047674,1.2418419734047674
1.1712295039833756,1.1712295039833756
1.107236953570239,1.107236953570239
1.0307401116970645,1.0307401116970645
0.944681164589743,0.944681164589743
0.8659776830471501,0.8659776830471501
0.8100761447552147,0.8100761447552147
0.7607945254715349,0.7607945254715349
0.7019508009537083,0.7019508009537083
0.6298672384193708,0.6298672384193708
0.5666102345627071,0.5666102345627071
0.514386429053136,0.514386429053136
0.4584848907612007,0.4584848907612007
0.37831031610566196,0.37831031610566196
0.2966646483371775,0.2966646483371775
0.22090335302047573,0.22090335302047573
0.16132408194617628,0.16132408194617628
0.0988026246459855,0.0988026246459855
0.053198738144669876,0.053198738144669876
0.020099143103392406,0.020099143103392406
-0.0004961604778469084,-0.0004961604778469084
-0.013735998494357896,-0.013735998494357896
-0.0004961604778469084,-0.0004961604778469084
0.020099143103392406,0.020099143103392406
-0.0004961604778469084,-0.0004961604778469084
-0.07993518857691284,-0.07993518857691284
-0.1895316254913649,-0.1895316254913649
-0.3278143781082574,-0.3278143781082574
-0.513907656895884,-0.513907656895884
-0.6698435268681245,-0.6698435268681245
-0.5948177781078956,-0.5948177781078956
-0.1468699252159406,-0.1468699252159406
0.6203051331852238,0.6203051331852238
1.543416061558629,1.543416061558629
2.4849156538438546,2.4849156538438546
3.307992250536954,3.307992250536954
3.8081639089384804,3.8081639089384804
3.7883041519137137,3.7883041519137137
3.2138422913084317,3.2138422913084317
2.2392431039819285,2.2392431039819285
1.107236953570239,1.107236953570239
0.06423193649176237,0.06423193649176237
-0.702943121909402,-0.702943121909402
-1.1391222298977919,-1.1391222298977919
-1.3244799621289456,-1.3244799621289456
-1.3744971279690983,-1.3744971279690983
-1.3516951847184404,-1.3516951847184404
-1.270049516949956,-1.270049516949956
-1.1626597197049224,-1.1626597197049224
-1.0736585863717096,-1.0736585863717096
-1.0273191533139212,-1.0273191533139212
-1.0081949428456276,-1.0081949428456276
-1.0001039307244264,-1.0001039307244264
-0.9971617444985351,-0.9971617444985351
-1.0001039307244264,-1.0001039307244264
-1.0133437687409375,-1.0133437687409375
-1.0273191533139212,-1.0273191533139212
-1.0449722706692692,-1.0449722706692692
-1.054534375903416,-1.054534375903416
-1.067774213919927,-1.067774213919927
-1.081014051936438,-1.081014051936438
-1.0994027158482589,-1.0994027158482589
-1.1082292745259328,-1.1082292745259328
-1.1023449020741503,-1.1023449020741503
-1.081014051936438,-1.081014051936438
-1.0464433637822148,-1.0464433637822148
-1.0001039307244264,-1.0001039307244264
-0.931698100972453,-0.931698100972453
-0.8382836883004032,-0.8382836883004032
-0.72059623926475,-0.72059623926475
-0.5948177781078956,-0.5948177781078956
-0.46977486350751413,-0.46977486350751413
-0.3520874144718609,-0.3520874144718609
-0.24469761722682734,-0.24469761722682734
-0.16305194945834292,-0.16305194945834292
-0.1174480629570273,-0.1174480629570273
-0.10862150427935331,-0.10862150427935331
-0.1196547026264458,-0.1196547026264458
-0.13583672686884812,-0.13583672686884812
-0.14834101832888627,-0.14834101832888627
-0.16305194945834292,-0.16305194945834292
-0.18364725303958224,-0.18364725303958224
-0.2167468480808597,-0.2167468480808597
-0.25573081557391986,-0.25573081557391986
-0.2976569692928713,-0.2976569692928713
-0.3373764833424043,-0.3373764833424043
-0.37856709050488285,-0.37856709050488285
-0.42049324422383433,-0.42049324422383433
-0.4602127582733673,-0.4602127582733673
-0.49110571364522626,-0.49110571364522626
-0.513907656895884,-0.513907656895884
-0.5293541345818136,-0.5293541345818136
-0.5411228794853788,-0.5411228794853788
-0.5528916243889442,-0.5528916243889442
-0.5683381020748737,-0.5683381020748737
-0.5837845797608031,-0.5837845797608031
-0.5948177781078956,-0.5948177781078956
-0.597759964333787,-0.597759964333787
-0.5948177781078956,-0.5948177781078956
-0.5867267659866945,-0.5867267659866945
-0.5683381020748737,-0.5683381020748737
-0.558040450284254,-0.558040450284254
-0.5683381020748737,-0.5683381020748737
-0.6029087902290968,-0.6029087902290968
-0.6220330006973904,-0.6220330006973904
-0.6235040938103361,-0.6235040938103361
-0.6220330006973904,-0.6220330006973904
-0.6279173731491732,-0.6279173731491732
-0.6220330006973904,-0.6220330006973904
-0.5999666040032055,-0.5999666040032055
-0.5948177781078956,-0.5948177781078956
-0.6315951059315373,-0.6315951059315373
-0.702943121909402,-0.702943121909402
-0.7897376155731963,-0.7897376155731963
-0.8919785869229201,-0.8919785869229201
-0.9831863599255513,-0.9831863599255513
-0.9464090321019096,-0.9464090321019096
-0.5918755918820043,-0.5918755918820043
0.16132408194617628,0.16132408194617628
1.1638740384186472,1.1638740384186472
2.1605396224393356,2.1605396224393356
3.0380466643114246,3.0380466643114246
3.7809486863489856,3.7809486863489856
4.193590304530245,4.193590304530245
3.9162892527399866,3.9162892527399866
2.8828463408956573,2.8828463408956573
1.5390027822197918,1.5390027822197918
0.4474516924141082,0.4474516924141082
-0.2167468480808597,-0.2167468480808597
-0.6117353489067708,-0.6117353489067708
-0.865498910889898,-0.865498910889898
-0.9750953478043501,-0.9750953478043501
-0.9728887081349317,-0.9728887081349317
-0.958177777005475,-0.958177777005475
-0.9728887081349317,-0.9728887081349317
-0.9773019874737686,-0.9773019874737686
-0.9464090321019096,-0.9464090321019096
-0.9030117852700126,-0.9030117852700126
-0.865498910889898,-0.865498910889898
-0.8206305709450553,-0.8206305709450553
-0.7573735670883917,-0.7573735670883917
-0.6941165632317281,-0.6941165632317281
-0.6492482232868853,-0.6492482232868853
-0.6271818265927003,-0.6271818265927003
-0.5948177781078956,-0.5948177781078956
-0.553627170945417,-0.553627170945417
-0.513907656895884,-0.513907656895884
-0.5006678188793731,-0.5006678188793731
-0.48669243430638925,-0.48669243430638925
-0.45285729270863895,-0.45285729270863895
-0.4057823130943777,-0.4057823130943777
-0.3667983456013176,-0.3667983456013176
-0.3248721918823661,-0.3248721918823661
-0.2572019086868655,-0.2572019086868655
-0.16305194945834292,-0.16305194945834292
-0.05051332631799953,-0.05051332631799953
0.08041396073416468,0.08041396073416468
0.23046545825462256,0.23046545825462256
0.3775747695491891,0.3775747695491891
0.492320032358951,0.492320032358951
0.5666102345627071,0.5666102345627071
0.6144207607334412,0.6144207607334412
0.6475203557747187,0.6475203557747187
0.6681156593559581,0.6681156593559581
0.6747355783642135,0.6747355783642135
0.6681156593559581,0.6681156593559581
0.6475203557747187,0.6475203557747187
0.6144207607334412,0.6144207607334412
0.5666102345627071,0.5666102345627071
0.505559870375462,0.505559870375462
0.4312696681717059,0.4312696681717059
0.3503595469596943,0.3503595469596943
0.26944942574768266,0.26944942574768266
0.19663031665687225,0.19663031665687225
0.13410885935668146,0.13410885935668146
0.087769426298893,0.087769426298893
0.053198738144669876,0.053198738144669876
0.02083468965986524,0.02083468965986524
-0.027711383067341718,-0.027711383067341718
-0.10126603871462499,-0.10126603871462499
-0.1895316254913649,-0.1895316254913649
-0.26970620014690366,-0.26970620014690366
-0.3248721918823661,-0.3248721918823661
-0.35650069381069793,-0.35650069381069793
-0.37856709050488285,-0.37856709050488285
-0.4028401268684863,-0.4028401268684863
-0.43299753568387245,-0.43299753568387245
-0.4859568877499164,-0.4859568877499164
-0.5683381020748737,-0.5683381020748737
-0.6801411786587442,-0.6801411786587442
-0.7838532431214137,-0.7838532431214137
-0.865498910889898,-0.865498910889898
-0.9191938095124148,-0.9191938095124148
-0.962591056344312,-0.962591056344312
-1.0001039307244264,-1.0001039307244264
-1.036881258548068,-1.036881258548068
-1.081014051936438,-1.081014051936438
-1.1413288695672104,-1.1413288695672104
-1.2163546183274392,-1.2163546183274392
-1.296529192982978,-1.296529192982978
-1.3781748607514623,-1.3781748607514623
-1.4495228767293271,-1.4495228767293271
-1.4598205285199468,-1.4598205285199468
-1.2891737274182498,-1.2891737274182498
-0.8382836883004032,-0.8382836883004032
-0.12774571474764695,-0.12774571474764695
0.7019508009537083,0.7019508009537083
1.5184074786385526,1.5184074786385526
2.214234521061852,2.214234521061852
2.610694115000709,2.610694115000709
2.4849156538438546,2.4849156538438546
1.8177749271229955,1.8177749271229955
0.8909862659672263,0.8909862659672263
0.05025655191877854,0.05025655191877854
-0.5683381020748737,-0.5683381020748737
-0.9986328376114808,-0.9986328376114808
-1.270049516949956,-1.270049516949956
-1.3767037676385168,-1.3767037676385168
-1.3781748607514623,-1.3781748607514623
-1.36714166240437,-1.36714166240437
-1.3781748607514623,-1.3781748607514623
-1.3767037676385168,-1.3767037676385168
-1.3516951847184404,-1.3516951847184404
-1.3200666827901086,-1.3200666827901086
-1.2972647395394508,-1.2972647395394508
-1.2722561566193746,-1.2722561566193746
-1.243569840916934,-1.243569840916934
-1.2156190717709665,-1.2156190717709665
-1.1891393957379444,-1.1891393957379444
-1.1633952662613953,-1.1633952662613953
-1.1354444971154276,-1.1354444971154276
-1.1177913797600796,-1.1177913797600796
-1.1082292745259328,-1.1082292745259328
-1.1097003676388786,-1.1097003676388786
-1.1082292745259328,-1.1082292745259328
-1.0920472502835306,-1.0920472502835306
-1.054534375903416,-1.054534375903416
-1.0015750238373722,-1.0015750238373722
-0.9464090321019096,-0.9464090321019096
-0.8868297610276102,-0.8868297610276102
-0.8110684657109084,-0.8110684657109084
-0.7102985874741303,-0.7102985874741303
-0.5948177781078956,-0.5948177781078956
-0.4808080618546066,-0.4808080618546066
-0.37856709050488285,-0.37856709050488285
-0.28956595717167016,-0.28956595717167016
-0.2167468480808597,-0.2167468480808597
-0.15863867011950594,-0.15863867011950594
-0.10862150427935331,-0.10862150427935331
-0.06301761777803769,-0.06301761777803769
-0.027711383067341718,-0.027711383067341718
-0.0004961604778469084,-0.0004961604778469084
0.025983515555175068,0.025983515555175068
0.05172764503172421,0.05172764503172421
0.053198738144669876,0.053198738144669876
0.023041329329283735,0.023041329329283735
-0.027711383067341718,-0.027711383067341718
-0.07919964202044,-0.07919964202044
-0.13583672686884812,-0.13583672686884812
-0.19541599794314757,-0.19541599794314757
-0.24396207067035452,-0.24396207067035452
-0.2572019086868655,-0.2572019086868655
-0.24396207067035452,-0.24396207067035452
-0.22410231364558802,-0.22410231364558802
-0.2167468480808597,-0.2167468480808597
-0.2233667670891152,-0.2233667670891152
-0.24396207067035452,-0.24396207067035452
-0.27117729325984935,-0.27117729325984935
-0.2976569692928713,-0.2976569692928713
-0.3204589125435291,-0.3204589125435291
-0.3520874144718609,-0.3520874144718609
-0.40063348719906783,-0.40063348719906783
-0.4602127582733673,-0.4602127582733673
-0.5264119483559222,-0.5264119483559222
-0.5948177781078956,-0.5948177781078956
-0.6698435268681245,-0.6698435268681245
-0.7301583444988968,-0.7301583444988968
-0.7757622310002125,-0.7757622310002125
-0.8110684657109084,-0.8110684657109084
-0.8434325141957131,-0.8434325141957131
-0.865498910889898,-0.865498910889898
-0.8772676557934634,-0.8772676557934634
-0.8919785869229201,-0.8919785869229201
-0.9155160767300506,-0.9155160767300506
-0.9464090321019096,-0.9464090321019096
-0.9875996392643883,-0.9875996392643883
-1.054534375903416,-1.054534375903416
-1.1258823918812808,-1.1258823918812808
-1.1082292745259328,-1.1082292745259328
-0.8559368056557513,-0.8559368056557513
-0.2976569692928713,-0.2976569692928713
0.47098918222123887,0.47098918222123887
1.2690571959942623,1.2690571959942623
1.9920994610070568,1.9920994610070568
2.592305451088888,2.592305451088888
2.9181525756063533,2.9181525756063533
2.7276460174798896,2.7276460174798896
1.9928350075635297,1.9928350075635297
1.0255912858017546,1.0255912858017546
0.20545687533454624,0.20545687533454624
-0.3520874144718609,-0.3520874144718609
-0.733836077281261,-0.733836077281261
-1.0001039307244264,-1.0001039307244264
-1.1332378574460091,-1.1332378574460091
-1.1626597197049224,-1.1626597197049224
-1.160453080035504,-1.160453080035504
-1.1626597197049224,-1.1626597197049224
-1.1523620679143027,-1.1523620679143027
-1.1354444971154276,-1.1354444971154276
-1.1317667643330636,-1.1317667643330636
-1.1354444971154276,-1.1354444971154276
-1.1266179384377537,-1.1266179384377537
-1.1082292745259328,-1.1082292745259328
-1.0905761571705848,-1.0905761571705848
-1.054534375903416,-1.054534375903416
-0.9942195582726437,-0.9942195582726437
-0.9191938095124148,-0.9191938095124148
-0.8596145384381154,-0.8596145384381154
-0.8110684657109084,-0.8110684657109084
-0.7779688706696309,-0.7779688706696309
-0.7573735670883917,-0.7573735670883917
-0.742662635958935,-0.742662635958935
-0.702943121909402,-0.702943121909402
-0.6220330006973904,-0.6220330006973904
-0.513907656895884,-0.513907656895884
-0.4065178596508505,-0.4065178596508505
-0.2976569692928713,-0.2976569692928713
-0.16599413568423427,-0.16599413568423427
-0.0004961604778469084,-0.0004961604778469084
0.1804482924144699,0.1804482924144699
0.3503595469596943,0.3503595469596943
0.4901133926895325,0.4901133926895325
0.5938254571522019,0.5938254571522019
0.6688512059124309,0.6688512059124309
0.7284304769867302,0.7284304769867302
0.7835964687221928,0.7835964687221928
0.8365558207882366,0.8365558207882366
0.8917218125236992,0.8917218125236992
0.944681164589743,0.944681164589743
0.9807229458569119,0.9807229458569119
0.9718963871792379,0.9718963871792379
0.9093749298790471,0.9093749298790471
0.8100761447552147,0.8100761447552147
0.7056285337360725,0.7056285337360725
0.6203051331852238,0.6203051331852238
0.5732301535709626,0.5732301535709626
0.5666102345627071,0.5666102345627071
0.5798500725792181,0.5798500725792181
0.5666102345627071,0.5666102345627071
0.5004110444801522,0.5004110444801522
0.40478999213868394,0.40478999213868394
0.32755760370903647,0.32755760370903647
0.2966646483371775,0.2966646483371775
0.2974001948936503,0.2974001948936503
0.2966646483371775,0.2966646483371775
0.26135841362648154,0.26135841362648154
0.18853930453567108,0.18853930453567108
0.0988026246459855,0.0988026246459855
0.025983515555175068,0.025983515555175068
-0.04462895386621687,-0.04462895386621687
-0.13583672686884812,-0.13583672686884812
-0.24911089656566435,-0.24911089656566435
-0.3248721918823661,-0.3248721918823661
-0.34620304202007823,-0.34620304202007823
-0.3520874144718609,-0.3520874144718609
-0.40136903375554067,-0.40136903375554067
-0.48669243430638925,-0.48669243430638925
-0.5595115433971997,-0.5595115433971997
-0.5948177781078956,-0.5948177781078956
-0.6080576161244067,-0.6080576161244067
-0.6220330006973904,-0.6220330006973904
-0.6492482232868853,-0.6492482232868853
-0.6757278993199073,-0.6757278993199073
-0.6448349439480483,-0.6448349439480483
-0.4602127582733673,-0.4602127582733673
-0.05198441943094519,-0.05198441943094519
0.5666102345627071,0.5666102345627071
1.3080411634873224,1.3080411634873224
2.052414278637829,2.052414278637829
2.6577690946149706,2.6577690946149706
2.971111927672397,2.971111927672397
2.8725486891050376,2.8725486891050376
2.3495750874528536,2.3495750874528536
1.5184074786385526,1.5184074786385526
0.5938254571522019,0.5938254571522019
-0.19688709105609323,-0.19688709105609323
-0.702943121909402,-0.702943121909402
-0.9111027973912137,-0.9111027973912137
-0.9191938095124148,-0.9191938095124148
-0.8456391538651316,-0.8456391538651316
-0.7573735670883917,-0.7573735670883917
-0.6720501665375431,-0.6720501665375431
-0.5948177781078956,-0.5948177781078956
-0.5337674139206505,-0.5337674139206505
-0.48669243430638925,-0.48669243430638925
-0.44844401336980194,-0.44844401336980194
-0.4057823130943777,-0.4057823130943777
-0.3498807748024424,-0.3498807748024424
-0.27117729325984935,-0.27117729325984935
-0.18438279959605508,-0.18438279959605508
-0.10862150427935331,-0.10862150427935331
-0.0725797230121845,-0.0725797230121845
-0.054926605656836526,-0.054926605656836526
-0.03874458141443421,-0.03874458141443421
-0.0004961604778469084,-0.0004961604778469084
0.03554562078932189,0.03554562078932189
0.053198738144669876,0.053198738144669876
0.048785458805832876,0.048785458805832876
0.053198738144669876,0.053198738144669876
0.09586043842009417,0.09586043842009417
0.18853930453567108,0.18853930453567108
0.32314432437019946,0.32314432437019946
0.4857001133506955,0.4857001133506955
0.6482559023311916,0.6482559023311916
0.7828609221657199,0.7828609221657199
0.8806886141766067,0.8806886141766067
0.9718963871792379,0.9718963871792379
1.0836994637631086,1.0836994637631086
1.2146267508152726,1.2146267508152726
1.3323141998509258,1.3323141998509258
1.4043977623852635,1.4043977623852635
1.4051333089417364,1.4051333089417364
1.3499673172062738,1.3499673172062738
1.29700796514023,1.29700796514023
1.322752094616779,1.322752094616779
1.4323485315312312,1.4323485315312312
1.5390027822197918,1.5390027822197918
1.5360605959939007,1.5360605959939007
1.4043977623852635,1.4043977623852635
1.2050646455811258,1.2050646455811258
1.0255912858017546,1.0255912858017546
0.9167303954437754,0.9167303954437754
0.8909862659672263,0.8909862659672263
0.9159948488873026,0.9159948488873026
0.944681164589743,0.944681164589743
0.9432100714767975,0.9432100714767975
0.9174659420002483,0.9174659420002483
0.879217521063661,0.879217521063661
0.8365558207882366,0.8365558207882366
0.8041917723034321,0.8041917723034321
0.8100761447552147,0.8100761447552147
0.8387624604576552,0.8387624604576552
0.8365558207882366,0.8365558207882366
0.7453480477856055,0.7453480477856055
0.5938254571522019,0.5938254571522019
0.44965833208352674,0.44965833208352674
0.3775747695491891,0.3775747695491891
0.34962400040322145,0.34962400040322145
0.32314432437019946,0.32314432437019946
0.254738494618226,0.254738494618226
0.16132408194617628,0.16132408194617628
0.07011630894354502,0.07011630894354502
-0.0004961604778469084,-0.0004961604778469084
-0.07037308334276601,-0.07037308334276601
-0.16305194945834292,-0.16305194945834292
-0.2829460381634146,-0.2829460381634146
-0.4057823130943777,-0.4057823130943777
-0.5094943775570471,-0.5094943775570471
-0.5683381020748737,-0.5683381020748737
-0.5462717053806887,-0.5462717053806887
-0.37856709050488285,-0.37856709050488285
0.00023938607862592428,0.00023938607862592428
0.6203051331852238,0.6203051331852238
1.4338196246441768,1.4338196246441768
2.3223598648633588,2.3223598648633588
3.102774761281034,3.102774761281034
3.5654335453024455,3.5654335453024455
3.528656217478804,3.528656217478804
2.9438967050829024,2.9438967050829024
1.9494377607316324,1.9494377607316324
0.8365558207882366,0.8365558207882366
-0.10347267838404348,-0.10347267838404348
-0.702943121909402,-0.702943121909402
-0.9545000442231109,-0.9545000442231109
-0.9464090321019096,-0.9464090321019096
-0.804448546702653,-0.804448546702653
-0.6492482232868853,-0.6492482232868853
-0.5653959158489823,-0.5653959158489823
-0.5683381020748737,-0.5683381020748737
-0.6036443367855696,-0.6036443367855696
-0.5948177781078956,-0.5948177781078956
-0.5094943775570471,-0.5094943775570471
-0.37856709050488285,-0.37856709050488285
-0.27191283981632214,-0.27191283981632214
-0.2167468480808597,-0.2167468480808597
-0.19688709105609323,-0.19688709105609323
-0.16305194945834292,-0.16305194945834292
-0.11156369050524464,-0.11156369050524464
-0.054926605656836526,-0.054926605656836526
-0.024769196841450385,-0.024769196841450385
-0.0004961604778469084,-0.0004961604778469084
0.03775226045874039,0.03775226045874039
0.10762918332365949,0.10762918332365949
0.19074594420508958,0.19074594420508958
0.26944942574768266,0.26944942574768266
0.3378552554996561,0.3378552554996561
0.40478999213868394,0.40478999213868394
0.4798157408989129,0.4798157408989129
0.5666102345627071,0.5666102345627071
0.6600246472347568,0.6600246472347568
0.7556456995762251,0.7556456995762251
0.8505312053612205,0.8505312053612205
0.944681164589743,0.944681164589743
1.0322112048100103,1.0322112048100103
1.107236953570239,1.107236953570239
1.1668162246445386,1.1668162246445386
1.2146267508152726,1.2146267508152726
1.2425775199612403,1.2425775199612403
1.2418419734047674,1.2418419734047674
1.2094779249199628,1.2094779249199628
1.1609318521927559,1.1609318521927559
1.107972500126712,1.107972500126712
1.0528065083912495,1.0528065083912495
0.9807229458569119,0.9807229458569119
0.8909862659672263,0.8909862659672263
0.7990429464081222,0.7990429464081222
0.7284304769867302,0.7284304769867302
0.6747355783642135,0.6747355783642135
0.6203051331852238,0.6203051331852238
0.5607258621109245,0.5607258621109245
0.5129153359401903,0.5129153359401903
0.4754024615600759,0.4754024615600759
0.4312696681717059,0.4312696681717059
0.37242594365387927,0.37242594365387927
0.32314432437019946,0.32314432437019946
0.30328456734543296,0.30328456734543296
0.2966646483371775,0.2966646483371775
0.27533379819946535,0.27533379819946535
0.24223420315818786,0.24223420315818786
0.2113412477863289,0.2113412477863289
0.18853930453567108,0.18853930453567108
0.15911744227675778,0.15911744227675778
0.13410885935668146,0.13410885935668146
0.10762918332365949,0.10762918332365949
0.08041396073416468,0.08041396073416468
0.030396794894012064,0.030396794894012064
-0.027711383067341718,-0.027711383067341718
-0.08581956102869549,-0.08581956102869549
-0.13583672686884812,-0.13583672686884812
-0.1873249858219464,-0.1873249858219464
-0.24396207067035452,-0.24396207067035452
-0.31163235386585514,-0.31163235386585514
-0.4057823130943777,-0.4057823130943777
-0.5381806932594876,-0.5381806932594876
-0.702943121909402,-0.702943121909402
-0.8625567246640068,-0.8625567246640068
-0.9464090321019096,-0.9464090321019096
-0.8581434453251697,-0.8581434453251697
-0.513907656895884,-0.513907656895884
0.12307566100958897,0.12307566100958897
0.9991116097687327,0.9991116097687327
1.978124076434073,1.978124076434073
2.8629865838708906,2.8629865838708906
3.4418617238150095,3.4418617238150095
3.5382183227129507,3.5382183227129507
3.0821794576997945,3.0821794576997945
2.1605396224393356,2.1605396224393356
1.0094092615593524,1.0094092615593524
-0.0814062816898585,-0.0814062816898585
-0.8971274128182298,-0.8971274128182298
-1.3781748607514623,-1.3781748607514623
-1.5973677345803665,-1.5973677345803665
-1.675335669566487,-1.675335669566487
-1.697402066260672,-1.697402066260672
-1.7025508921559815,-1.7025508921559815
-1.7018153455995089,-1.7018153455995089
-1.7025508921559815,-1.7025508921559815
-1.696666519704199,-1.696666519704199
-1.675335669566487,-1.675335669566487
-1.6429716210816823,-1.6429716210816823
-1.62164077094397,-1.62164077094397
-1.6201696778310244,-1.6201696778310244
-1.62164077094397,-1.62164077094397
-1.612814212266296,-1.612814212266296
-1.5944255483544751,-1.5944255483544751
-1.5841278965638557,-1.5841278965638557
-1.5672103257649805,-1.5672103257649805
-1.5429372894013769,-1.5429372894013769
-1.5135154271424636,-1.5135154271424636
-1.4965978563435884,-1.4965978563435884
-1.4863002045529687,-1.4863002045529687
-1.4598205285199468,-1.4598205285199468
-1.4053900833409572,-1.4053900833409572
-1.3215377759030542,-1.3215377759030542
-1.2163546183274392,-1.2163546183274392
-1.0883695175011663,-1.0883695175011663
-0.9464090321019096,-0.9464090321019096
-0.8029774535897073,-0.8029774535897073
-0.6757278993199073,-0.6757278993199073
-0.5639248227360367,-0.5639248227360367
-0.4602127582733673,-0.4602127582733673
-0.3645917059318991,-0.3645917059318991
-0.2976569692928713,-0.2976569692928713
-0.2630862811386482,-0.2630862811386482
-0.24396207067035452,-0.24396207067035452
-0.21159802218554988,-0.21159802218554988
-0.16305194945834292,-0.16305194945834292
-0.10494377149698915,-0.10494377149698915
-0.054926605656836526,-0.054926605656836526
-0.023298103728504722,-0.023298103728504722
-0.027711383067341718,-0.027711383067341718
-0.06301761777803769,-0.06301761777803769
-0.10862150427935331,-0.10862150427935331
-0.1402500062076851,-0.1402500062076851
-0.16305194945834292,-0.16305194945834292
-0.1873249858219464,-0.1873249858219464
-0.2167468480808597,-0.2167468480808597
-0.23587105854915336,-0.23587105854915336
-0.24396207067035452,-0.24396207067035452
-0.2572019086868655,-0.2572019086868655
-0.2976569692928713,-0.2976569692928713
-0.35650069381069793,-0.35650069381069793
-0.4057823130943777,-0.4057823130943777
-0.42784870978856265,-0.42784870978856265
-0.43299753568387245,-0.43299753568387245
-0.44182409436154646,-0.44182409436154646
-0.4602127582733673,-0.4602127582733673
-0.48522134119344357,-0.48522134119344357
-0.513907656895884,-0.513907656895884
-0.562453729623091,-0.562453729623091
-0.6220330006973904,-0.6220330006973904
-0.6845544579975812,-0.6845544579975812
-0.7301583444988968,-0.7301583444988968
-0.7625223929837015,-0.7625223929837015
-0.7838532431214137,-0.7838532431214137
-0.7948864414685062,-0.7948864414685062
-0.7838532431214137,-0.7838532431214137
-0.7544313808625004,-0.7544313808625004
-0.7301583444988968,-0.7301583444988968
-0.7441337290718807,-0.7441337290718807
-0.8110684657109084,-0.8110684657109084
-0.900805145600594,-0.900805145600594
-0.9464090321019096,-0.9464090321019096
-0.8544657125428056,-0.8544657125428056
-0.5411228794853788,-0.5411228794853788
0.04216553979757739,0.04216553979757739
0.8637710433777315,0.8637710433777315
1.8067417287759029,1.8067417287759029
2.6739511188573726,2.6739511188573726
3.2447352466802903,3.2447352466802903
3.3491828576994327,3.3491828576994327
2.9483099844217393,2.9483099844217393
2.1605396224393356,2.1605396224393356
1.2160978439282184,1.2160978439282184
0.3503595469596943,0.3503595469596943
-0.2888304106151973,-0.2888304106151973
-0.6757278993199073,-0.6757278993199073
-0.8669700040028437,-0.8669700040028437
-0.9464090321019096,-0.9464090321019096
-0.9787730805867143,-0.9787730805867143
-1.0001039307244264,-1.0001039307244264
-1.0118726756279919,-1.0118726756279919
-1.0001039307244264,-1.0001039307244264
-0.962591056344312,-0.962591056344312
-0.9191938095124148,-0.9191938095124148
-0.8868297610276102,-0.8868297610276102
-0.865498910889898,-0.865498910889898
-0.8412258745262946,-0.8412258745262946
-0.8110684657109084,-0.8110684657109084
-0.791208708686142,-0.791208708686142
-0.7838532431214137,-0.7838532431214137
-0.7897376155731963,-0.7897376155731963
-0.7838532431214137,-0.7838532431214137
-0.7706134051049026,-0.7706134051049026
-0.7573735670883917,-0.7573735670883917
-0.7639934860966472,-0.7639934860966472
-0.7838532431214137,-0.7838532431214137
-0.791208708686142,-0.791208708686142
-0.7573735670883917,-0.7573735670883917
-0.6749923527634344,-0.6749923527634344
-0.5683381020748737,-0.5683381020748737
-0.4565350254910031,-0.4565350254910031
-0.3520874144718609,-0.3520874144718609
-0.2520530827915557,-0.2520530827915557
-0.16305194945834292,-0.16305194945834292
-0.08655510758516832,-0.08655510758516832
-0.027711383067341718,-0.027711383067341718
0.012008130982191247,0.012008130982191247
0.025983515555175068,0.025983515555175068
0.01862804999044674,0.01862804999044674
-0.0004961604778469084,-0.0004961604778469084
-0.023298103728504722,-0.023298103728504722
-0.054926605656836526,-0.054926605656836526
-0.09538166626284232,-0.09538166626284232
-0.13583672686884812,-0.13583672686884812
-0.16378749601481576,-0.16378749601481576
-0.1895316254913649,-0.1895316254913649
-0.23292887232326204,-0.23292887232326204
-0.2976569692928713,-0.2976569692928713
-0.36238506626248057,-0.36238506626248057
-0.4057823130943777,-0.4057823130943777
-0.430790896014454,-0.430790896014454
-0.4602127582733673,-0.4602127582733673
-0.501403365435846,-0.501403365435846
-0.5411228794853788,-0.5411228794853788
-0.5609826365101453,-0.5609826365101453
-0.5683381020748737,-0.5683381020748737
-0.5771646607525477,-0.5771646607525477
-0.5948177781078956,-0.5948177781078956
-0.6117353489067708,-0.6117353489067708
-0.6220330006973904,-0.6220330006973904
-0.624239640366809,-0.624239640366809
-0.6220330006973904,-0.6220330006973904
-0.6271818265927003,-0.6271818265927003
-0.6492482232868853,-0.6492482232868853
-0.6992653891270378,-0.6992653891270378
-0.7573735670883917,-0.7573735670883917
-0.8095973725979628,-0.8095973725979628
-0.8382836883004032,-0.8382836883004032
-0.8544657125428056,-0.8544657125428056
-0.865498910889898,-0.865498910889898
-0.8772676557934634,-0.8772676557934634
-0.8919785869229201,-0.8919785869229201
-0.9125738905041594,-0.9125738905041594
-0.9464090321019096,-0.9464090321019096
-0.9942195582726437,-0.9942195582726437
-1.054534375903416,-1.054534375903416
-1.116320286647134,-1.116320286647134
-1.1626597197049224,-1.1626597197049224
-1.1405933230107375,-1.1405933230107375
-0.9728887081349317,-0.9728887081349317
-0.5896689522125859,-0.5896689522125859
0.025983515555175068,0.025983515555175068
0.8299359017799812,0.8299359017799812
1.700823024643815,1.700823024643815
2.456964884697887,2.456964884697887
2.8894662599039127,2.8894662599039127
2.8673998632097275,2.8673998632097275
2.40326998607537,2.40326998607537
1.6500703122471896,1.6500703122471896
0.8100761447552147,0.8100761447552147
0.06202529682234387,0.06202529682234387
-0.48669243430638925,-0.48669243430638925
-0.8169528381626912,-0.8169528381626912
-0.9728887081349317,-0.9728887081349317
-1.0170215015233015,-1.0170215015233015
-1.0001039307244264,-1.0001039307244264
-0.9647976960137304,-0.9647976960137304
-0.9464090321019096,-0.9464090321019096
-0.9486156717713282,-0.9486156717713282
-0.9464090321019096,-0.9464090321019096
-0.9169871698429963,-0.9169871698429963
-0.865498910889898,-0.865498910889898
-0.804448546702653,-0.804448546702653
-0.7301583444988968,-0.7301583444988968
-0.646306037060994,-0.646306037060994
-0.5683381020748737,-0.5683381020748737
-0.5219986690170852,-0.5219986690170852
-0.48669243430638925,-0.48669243430638925
-0.4447662805874378,-0.4447662805874378
-0.37856709050488285,-0.37856709050488285
-0.3175167263176378,-0.3175167263176378
-0.27117729325984935,-0.27117729325984935
-0.2366066051056262,-0.2366066051056262
-0.1895316254913649,-0.1895316254913649
-0.1130347836181903,-0.1130347836181903
-0.0004961604778469084,-0.0004961604778469084
0.13999323180846412,0.13999323180846412
0.2966646483371775,0.2966646483371775
0.45922043731767354,0.45922043731767354
0.6203051331852238,0.6203051331852238
0.7703566307056817,0.7703566307056817
0.8909862659672263,0.8909862659672263
0.9682186543968737,0.9682186543968737
0.9991116097687327,0.9991116097687327
0.9932272373169501,0.9932272373169501
0.9718963871792379,0.9718963871792379
0.9593920957191997,0.9593920957191997
0.9718963871792379,0.9718963871792379
1.0035248891075697,1.0035248891075697
1.0255912858017546,1.0255912858017546
1.0094092615593524,1.0094092615593524
0.944681164589743,0.944681164589743
0.843911286352965,0.843911286352965
0.7284304769867302,0.7284304769867302
0.6217762262981695,0.6217762262981695
0.5393950119732123,0.5393950119732123
0.48202238056833135,0.48202238056833135
0.4312696681717059,0.4312696681717059
0.3716903970974064,0.3716903970974064
0.2966646483371775,0.2966646483371775
0.20545687533454624,0.20545687533454624
0.10762918332365949,0.10762918332365949
0.02083468965986524,0.02083468965986524
-0.027711383067341718,-0.027711383067341718
-0.041686767640325535,-0.041686767640325535
-0.054926605656836526,-0.054926605656836526
-0.10641486460993481,-0.10641486460993481
-0.1895316254913649,-0.1895316254913649
-0.28073939849399615,-0.28073939849399615
-0.3520874144718609,-0.3520874144718609
-0.41240223210263316,-0.41240223210263316
-0.4602127582733673,-0.4602127582733673
-0.5065521913311557,-0.5065521913311557
-0.5411228794853788,-0.5411228794853788
-0.5639248227360367,-0.5639248227360367
-0.5683381020748737,-0.5683381020748737
-0.558040450284254,-0.558040450284254
-0.5411228794853788,-0.5411228794853788
-0.5234697621300309,-0.5234697621300309
-0.513907656895884,-0.513907656895884
-0.531560774251232,-0.531560774251232
-0.5948177781078956,-0.5948177781078956
-0.6867610976669998,-0.6867610976669998
-0.7301583444988968,-0.7301583444988968
-0.624239640366809,-0.624239640366809
-0.2976569692928713,-0.2976569692928713
0.259151773957063,0.259151773957063
0.9991116097687327,0.9991116097687327
1.8258659392441967,1.8258659392441967
2.592305451088888,2.592305451088888
3.1130724130716536,3.1130724130716536
3.2138422913084317,3.2138422913084317
2.816647150813102,2.816647150813102
1.9979838334588396,1.9979838334588396
0.9799873993004391,0.9799873993004391
0.025983515555175068,0.025983515555175068
-0.6779345389893258,-0.6779345389893258
-1.081014051936438,-1.081014051936438
-1.225916723561586,-1.225916723561586
-1.1891393957379444,-1.1891393957379444
-1.0670386673634542,-1.0670386673634542
-0.9464090321019096,-0.9464090321019096
-0.8743254695675721,-0.8743254695675721
-0.8382836883004032,-0.8382836883004032
-0.8118040122673813,-0.8118040122673813
-0.7838532431214137,-0.7838532431214137
-0.7470759152977721,-0.7470759152977721
-0.6757278993199073,-0.6757278993199073
-0.5705447417442921,-0.5705447417442921
-0.4602127582733673,-0.4602127582733673
-0.38518700951313833,-0.38518700951313833
-0.3248721918823661,-0.3248721918823661
-0.263821827695121,-0.263821827695121
-0.1895316254913649,-0.1895316254913649
-0.12553907507822845,-0.12553907507822845
-0.054926605656836526,-0.054926605656836526
0.03186788800695773,0.03186788800695773
0.13410885935668146,0.13410885935668146
0.23267209792404103,0.23267209792404103
0.32314432437019946,0.32314432437019946
0.4136165508163579,0.4136165508163579
0.5129153359401903,0.5129153359401903
0.623982865967588,0.623982865967588
0.7556456995762251,0.7556456995762251
0.9027550108707917,0.9027550108707917
1.0528065083912495,1.0528065083912495
1.1925603541210876,1.1925603541210876
1.322752094616779,1.322752094616779
1.4433817298783236,1.4433817298783236
1.5390027822197918,1.5390027822197918
1.5963754136246728,1.5963754136246728
1.6199129034318034,1.6199129034318034
1.6257972758835861,1.6257972758835861
1.6199129034318034,1.6199129034318034
1.5934332273987815,1.5934332273987815
1.5390027822197918,1.5390027822197918
1.4617703937901445,1.4617703937901445
1.3771825397957687,1.3771825397957687
1.2867103133496103,1.2867103133496103
1.1881470747822507,1.1881470747822507
1.077079544754853,1.077079544754853
0.9718963871792379,0.9718963871792379
0.8895151728542806,0.8895151728542806
0.8365558207882366,0.8365558207882366
0.7975718532951765,0.7975718532951765
0.7556456995762251,0.7556456995762251
0.7026863475101811,0.7026863475101811
0.6475203557747187,0.6475203557747187
0.5930899105957291,0.5930899105957291
0.5393950119732123,0.5393950119732123
0.48422902023774983,0.48422902023774983
0.4312696681717059,0.4312696681717059
0.37831031610566196,0.37831031610566196
0.32314432437019946,0.32314432437019946
0.2562095877311717,0.2562095877311717
0.18853930453567108,0.18853930453567108
0.11645574200133349,0.11645574200133349
0.053198738144669876,0.053198738144669876
-0.015942638163776394,-0.015942638163776394
-0.0814062816898585,-0.0814062816898585
-0.14392773899004926,-0.14392773899004926
-0.1895316254913649,-0.1895316254913649
-0.2299866860973707,-0.2299866860973707
-0.27117729325984935,-0.27117729325984935
-0.31310344697880077,-0.31310344697880077
-0.3520874144718609,-0.3520874144718609
-0.40136903375554067,-0.40136903375554067
-0.48669243430638925,-0.48669243430638925
-0.6058509764549882,-0.6058509764549882
-0.702943121909402,-0.702943121909402
-0.7022075753529292,-0.7022075753529292
-0.5411228794853788,-0.5411228794853788
-0.1711429615795441,-0.1711429615795441
0.4312696681717059,0.4312696681717059
1.221982216380001,1.221982216380001
2.052414278637829,2.052414278637829
2.715877272576324,2.715877272576324
3.0248068262949137,3.0248068262949137
2.8740197822179834,2.8740197822179834
2.268664966240842,2.268664966240842
1.3484962240933283,1.3484962240933283
0.3503595469596943,0.3503595469596943
-0.48375024808049794,-0.48375024808049794
-1.0273191533139212,-1.0273191533139212
-1.2906448205311953,-1.2906448205311953
-1.3781748607514623,-1.3781748607514623
-1.3943568849938648,-1.3943568849938648
-1.4053900833409572,-1.4053900833409572
-1.4362830387128163,-1.4362830387128163
-1.4863002045529687,-1.4863002045529687
-1.5370529169495943,-1.5370529169495943
-1.5672103257649805,-1.5672103257649805
-1.5723591516602902,-1.5723591516602902
-1.5672103257649805,-1.5672103257649805
-1.5598548602002522,-1.5598548602002522
-1.5407306497319584,-1.5407306497319584
-1.5105732409165724,-1.5105732409165724
-1.4863002045529687,-1.4863002045529687
-1.493655670117697,-1.493655670117697
-1.5135154271424636,-1.5135154271424636
-1.5267552651589746,-1.5267552651589746
-1.5135154271424636,-1.5135154271424636
-1.4811513786576591,-1.4811513786576591
-1.432605305930452,-1.432605305930452
-1.3686127555173155,-1.3686127555173155
-1.2972647395394508,-1.2972647395394508
-1.2281233632310047,-1.2281233632310047
-1.1626597197049224,-1.1626597197049224
-1.0891050640576392,-1.0891050640576392
-1.0001039307244264,-1.0001039307244264
-0.8956563197052843,-0.8956563197052843
-0.7838532431214137,-0.7838532431214137
-0.6720501665375431,-0.6720501665375431
-0.5683381020748737,-0.5683381020748737
-0.4763947825157696,-0.4763947825157696
-0.4057823130943777,-0.4057823130943777
-0.3491452282459696,-0.3491452282459696
-0.2976569692928713,-0.2976569692928713
-0.24175543100093602,-0.24175543100093602
-0.1895316254913649,-0.1895316254913649
-0.15201875111125043,-0.15201875111125043
-0.13583672686884812,-0.13583672686884812
-0.13215899408648396,-0.13215899408648396
-0.13583672686884812,-0.13583672686884812
-0.13730781998179378,-0.13730781998179378
-0.13583672686884812,-0.13583672686884812
-0.13142344753001112,-0.13142344753001112
-0.13583672686884812,-0.13583672686884812
-0.1556964838936146,-0.1556964838936146
-0.1895316254913649,-0.1895316254913649
-0.22263122053264237,-0.22263122053264237
-0.24396207067035452,-0.24396207067035452
-0.2483753500091915,-0.2483753500091915
-0.24396207067035452,-0.24396207067035452
-0.24028433788799036,-0.24028433788799036
-0.24396207067035452,-0.24396207067035452
-0.24028433788799036,-0.24028433788799036
-0.2167468480808597,-0.2167468480808597
-0.18070506681369092,-0.18070506681369092
-0.16305194945834292,-0.16305194945834292
-0.18217615992663658,-0.18217615992663658
-0.2167468480808597,-0.2167468480808597
-0.2483753500091915,-0.2483753500091915
-0.27117729325984935,-0.27117729325984935
-0.30133470207523544,-0.30133470207523544
-0.3248721918823661,-0.3248721918823661
-0.34105421612476844,-0.34105421612476844
-0.3520874144718609,-0.3520874144718609
-0.3667983456013176,-0.3667983456013176
-0.37856709050488285,-0.37856709050488285
-0.3947491147472852,-0.3947491147472852
-0.43299753568387245,-0.43299753568387245
-0.4815436084110794,-0.4815436084110794
-0.513907656895884,-0.513907656895884
-0.5521560778324713,-0.5521560778324713
-0.6492482232868853,-0.6492482232868853
-0.751489194636609,-0.751489194636609
-0.6757278993199073,-0.6757278993199073
-0.27779721226810483,-0.27779721226810483
0.40478999213868394,0.40478999213868394
1.217568937041164,1.217568937041164
2.025199056048334,2.025199056048334
2.7092573535680686,2.7092573535680686
3.105716947506925,3.105716947506925
3.075559538691539,3.075559538691539
2.619520673678383,2.619520673678383
1.8883873965443874,1.8883873965443874
1.0800217309807443,1.0800217309807443
0.35477282629853124,0.35477282629853124
-0.1895316254913649,-0.1895316254913649
-0.5271474949123951,-0.5271474949123951
-0.702943121909402,-0.702943121909402
-0.7897376155731963,-0.7897376155731963
-0.8382836883004032,-0.8382836883004032
-0.8625567246640068,-0.8625567246640068
-0.865498910889898,-0.865498910889898
-0.8529946194298599,-0.8529946194298599
-0.8382836883004032,-0.8382836883004032
-0.826514943396838,-0.826514943396838
-0.8110684657109084,-0.8110684657109084
-0.7875309759037779,-0.7875309759037779
-0.7573735670883917,-0.7573735670883917
-0.7308938910553697,-0.7308938910553697
-0.702943121909402,-0.702943121909402
-0.6779345389893258,-0.6779345389893258
-0.6492482232868853,-0.6492482232868853
-0.6330661990444829,-0.6330661990444829
-0.6220330006973904,-0.6220330006973904
-0.6132064420197165,-0.6132064420197165
-0.5948177781078956,-0.5948177781078956
-0.571280288300765,-0.571280288300765
-0.5411228794853788,-0.5411228794853788
-0.4984611792099546,-0.4984611792099546
-0.43299753568387245,-0.43299753568387245
-0.34399640235065976,-0.34399640235065976
-0.24396207067035452,-0.24396207067035452
-0.1468699252159406,-0.1468699252159406
-0.054926605656836526,-0.054926605656836526
0.04584327257994155,0.04584327257994155
0.16132408194617628,0.16132408194617628
0.27974707753830236,0.27974707753830236
0.3775747695491891,0.3775747695491891
0.4445095061882169,0.4445095061882169
0.4857001133506955,0.4857001133506955
0.5085020566013533,0.5085020566013533
0.5129153359401903,0.5129153359401903
0.501146591036625,0.501146591036625
0.4857001133506955,0.4857001133506955
0.47319582189065734,0.47319582189065734
0.4584848907612007,0.4584848907612007
0.43421185439759724,0.43421185439759724
0.40478999213868394,0.40478999213868394
0.3775747695491891,0.3775747695491891
0.3503595469596943,0.3503595469596943
0.30769784668426997,0.30769784668426997
0.24223420315818786,0.24223420315818786
0.1686795475109046,0.1686795475109046
0.10762918332365949,0.10762918332365949
0.0627608433788167,0.0627608433788167
0.025983515555175068,0.025983515555175068
-0.0004961604778469084,-0.0004961604778469084
-0.0004961604778469084,-0.0004961604778469084
0.025983515555175068,0.025983515555175068
0.053198738144669876,0.053198738144669876
0.052463191588197046,0.052463191588197046
0.025983515555175068,0.025983515555175068
-0.013000451937885064,-0.013000451937885064
-0.054926605656836526,-0.054926605656836526
-0.10200158527109782,-0.10200158527109782
-0.13583672686884812,-0.13583672686884812
-0.16158085634539726,-0.16158085634539726
-0.1895316254913649,-0.1895316254913649
-0.25058198967861,-0.25058198967861
-0.3248721918823661,-0.3248721918823661
-0.37709599739193717,-0.37709599739193717
-0.37856709050488285,-0.37856709050488285
-0.3359053902294586,-0.3359053902294586
-0.27117729325984935,-0.27117729325984935
-0.2255734067585337,-0.2255734067585337
-0.24396207067035452,-0.24396207067035452
-0.3359053902294586,-0.3359053902294586
-0.4602127582733673,-0.4602127582733673
-0.5543627175018898,-0.5543627175018898
-0.5411228794853788,-0.5411228794853788
-0.31016126075290945,-0.31016126075290945
0.2157545271251659,0.2157545271251659
0.9615987353886183,0.9615987353886183
1.7552534698228046,1.7552534698228046
2.493006665965056,2.493006665965056
3.13293217009642,3.13293217009642
3.4786390516386514,3.4786390516386514
3.2138422913084317,3.2138422913084317
2.293673549160918,2.293673549160918
1.133716629603261,1.133716629603261
0.23193655136756822,0.23193655136756822
-0.27117729325984935,-0.27117729325984935
-0.5264119483559222,-0.5264119483559222
-0.6492482232868853,-0.6492482232868853
-0.6477771301739396,-0.6477771301739396
-0.5683381020748737,-0.5683381020748737
-0.5131721103394112,-0.5131721103394112
-0.513907656895884,-0.513907656895884
-0.5256764017994494,-0.5256764017994494
-0.513907656895884,-0.513907656895884
-0.48522134119344357,-0.48522134119344357
-0.43299753568387245,-0.43299753568387245
-0.3469385885765511,-0.3469385885765511
-0.24396207067035452,-0.24396207067035452
-0.16967186846659843,-0.16967186846659843
-0.13583672686884812,-0.13583672686884812
-0.13657227342532094,-0.13657227342532094
-0.13583672686884812,-0.13583672686884812
-0.1306879009735383,-0.1306879009735383
-0.10862150427935331,-0.10862150427935331
-0.07919964202044,-0.07919964202044
-0.027711383067341718,-0.027711383067341718
0.045107726023468714,0.045107726023468714
0.13410885935668146,0.13410885935668146
0.23414319103698672,0.23414319103698672
0.3503595469596943,0.3503595469596943
0.4768735546730215,0.4768735546730215
0.5938254571522019,0.5938254571522019
0.6879754163807245,0.6879754163807245
0.7828609221657199,0.7828609221657199
0.901283917757846,0.901283917757846
1.0528065083912495,1.0528065083912495
1.2315443216141477,1.2315443216141477
1.4308774384182854,1.4308774384182854
1.6103507981976566,1.6103507981976566
1.700823024643815,1.700823024643815
1.6647812433766462,1.6647812433766462
1.5390027822197918,1.5390027822197918
1.3904223778122797,1.3904223778122797
1.2690571959942623,1.2690571959942623
1.2050646455811258,1.2050646455811258
1.2146267508152726,1.2146267508152726
1.2558173579777514,1.2558173579777514
1.2418419734047674,1.2418419734047674
1.1278322571514785,1.1278322571514785
0.9718963871792379,0.9718963871792379
0.8564155778130031,0.8564155778130031
0.8100761447552147,0.8100761447552147
0.8078695050857962,0.8078695050857962
0.8365558207882366,0.8365558207882366
0.8696554158295142,0.8696554158295142
0.8637710433777315,0.8637710433777315
0.7938941205128124,0.7938941205128124
0.7019508009537083,0.7019508009537083
0.632809424645262,0.632809424645262
0.5938254571522019,0.5938254571522019
0.5518993034332504,0.5518993034332504
0.5129153359401903,0.5129153359401903
0.487906753020114,0.487906753020114
0.4857001133506955,0.4857001133506955
0.4687825425518204,0.4687825425518204
0.4312696681717059,0.4312696681717059
0.3716903970974064,0.3716903970974064
0.32314432437019946,0.32314432437019946
0.2871025431030307,0.2871025431030307
0.26944942574768266,0.26944942574768266
0.24958966872291619,0.24958966872291619
0.2157545271251659,0.2157545271251659
0.16794400095443177,0.16794400095443177
0.13410885935668146,0.13410885935668146
0.12013347478369765,0.12013347478369765
0.10762918332365949,0.10762918332365949
0.08629833318594735,0.08629833318594735
0.08041396073416468,0.08041396073416468
0.10468699709776816,0.10468699709776816
0.18853930453567108,0.18853930453567108
0.4320052147281787,0.4320052147281787
0.944681164589743,0.944681164589743
1.6728722554978475,1.6728722554978475
2.430485208664865,2.430485208664865
3.115279052741072,3.115279052741072
3.7272537877264686,3.7272537877264686
4.095027065962885,4.095027065962885
3.86259435411747,3.86259435411747
2.9071193772592605,2.9071193772592605
1.6199129034318034,1.6199129034318034
0.545279384424995,0.545279384424995
-0.10862150427935331,-0.10862150427935331
-0.46683267728162275,-0.46683267728162275
-0.6492482232868853,-0.6492482232868853
-0.6757278993199073,-0.6757278993199073
-0.5948177781078956,-0.5948177781078956
-0.5161142965653026,-0.5161142965653026
-0.48669243430638925,-0.48669243430638925
-0.47786587562871524,-0.47786587562871524
-0.4602127582733673,-0.4602127582733673
-0.44403073403096494,-0.44403073403096494
-0.43299753568387245,-0.43299753568387245
-0.4226998838932528,-0.4226998838932528
-0.4057823130943777,-0.4057823130943777
-0.386658102626084,-0.386658102626084
-0.3520874144718609,-0.3520874144718609
-0.312367900422328,-0.312367900422328
-0.27117729325984935,-0.27117729325984935
-0.24469761722682734,-0.24469761722682734
-0.2167468480808597,-0.2167468480808597
-0.1917382651607834,-0.1917382651607834
-0.16305194945834292,-0.16305194945834292
-0.13730781998179378,-0.13730781998179378
-0.10862150427935331,-0.10862150427935331
-0.07331526956865735,-0.07331526956865735
-0.027711383067341718,-0.027711383067341718
0.030396794894012064,0.030396794894012064
0.10762918332365949,0.10762918332365949
0.20766351500396474,0.20766351500396474
0.32314432437019946,0.32314432437019946
0.43862513373643425,0.43862513373643425
0.5393950119732123,0.5393950119732123
0.6188340400722783,0.6188340400722783
0.6747355783642135,0.6747355783642135
0.7100418130749094,0.7100418130749094
0.7284304769867302,0.7284304769867302
0.7284304769867302,0.7284304769867302
0.7019508009537083,0.7019508009537083
0.6519336351135557,0.6519336351135557
0.5938254571522019,0.5938254571522019
0.5401305585296852,0.5401305585296852
0.4857001133506955,0.4857001133506955
0.41582319048577643,0.41582319048577643
0.32314432437019946,0.32314432437019946
0.22384553924636705,0.22384553924636705
0.13410885935668146,0.13410885935668146
0.06349638993528953,0.06349638993528953
-0.0004961604778469084,-0.0004961604778469084
-0.06595980400392902,-0.06595980400392902
-0.13583672686884812,-0.13583672686884812
-0.21159802218554988,-0.21159802218554988
-0.2976569692928713,-0.2976569692928713
-0.386658102626084,-0.386658102626084
-0.4602127582733673,-0.4602127582733673
-0.5072877378876286,-0.5072877378876286
-0.5411228794853788,-0.5411228794853788
-0.5705447417442921,-0.5705447417442921
-0.5948177781078956,-0.5948177781078956
-0.615413081689135,-0.615413081689135
-0.6492482232868853,-0.6492482232868853
-0.7095630409176575,-0.7095630409176575
-0.7838532431214137,-0.7838532431214137
-0.865498910889898,-0.865498910889898
-0.9464090321019096,-0.9464090321019096
-1.0354101654351224,-1.0354101654351224
-1.1082292745259328,-1.1082292745259328
-1.1575108938096126,-1.1575108938096126
-1.1891393957379444,-1.1891393957379444
-1.2251811770051133,-1.2251811770051133
-1.270049516949956,-1.270049516949956
-1.3178600431206902,-1.3178600431206902
-1.3781748607514623,-1.3781748607514623
-1.468647087197621,-1.468647087197621
-1.5944255483544751,-1.5944255483544751
-1.719468462954857,-1.719468462954857
-1.7834610133679931,-1.7834610133679931
-1.7172618232854382,-1.7172618232854382
-1.4598205285199468,-1.4598205285199468
-0.9545000442231109,-0.9545000442231109
-0.1895316254913649,-0.1895316254913649
0.7637367116974263,0.7637367116974263
1.7280382472333098,1.7280382472333098
2.482709014174436,2.482709014174436
2.8357713612813957,2.8357713612813957
2.6923397827691935,2.6923397827691935
2.079629501227324,2.079629501227324
1.1638740384186472,1.1638740384186472
0.18853930453567108,0.18853930453567108
-0.628652919705646,-0.628652919705646
-1.1891393957379444,-1.1891393957379444
-1.5002755891259527,-1.5002755891259527
-1.62164077094397,-1.62164077094397
-1.6209052243874973,-1.6209052243874973
-1.5672103257649805,-1.5672103257649805
-1.507631054690681,-1.507631054690681
-1.4598205285199468,-1.4598205285199468
-1.4164232816880498,-1.4164232816880498
-1.3781748607514623,-1.3781748607514623
-1.3413975329278207,-1.3413975329278207
-1.2972647395394508,-1.2972647395394508
-1.2369499219086786,-1.2369499219086786
-1.1626597197049224,-1.1626597197049224
-1.0905761571705848,-1.0905761571705848
-1.0273191533139212,-1.0273191533139212
-0.9817152668126057,-0.9817152668126057
-0.9464090321019096,-0.9464090321019096
-0.9214004491818334,-0.9214004491818334
-0.8919785869229201,-0.8919785869229201
-0.8559368056557513,-0.8559368056557513
-0.8110684657109084,-0.8110684657109084
-0.760315753314283,-0.760315753314283
-0.702943121909402,-0.702943121909402
-0.63747947838332,-0.63747947838332
-0.5683381020748737,-0.5683381020748737
-0.4918412602016991,-0.4918412602016991
-0.4057823130943777,-0.4057823130943777
-0.30354134174465397,-0.30354134174465397
-0.1895316254913649,-0.1895316254913649
-0.06816644367334751,-0.06816644367334751
0.053198738144669876,0.053198738144669876
0.16279517505912194,0.16279517505912194
0.24223420315818786,0.24223420315818786
0.2841603568771393,0.2841603568771393
0.2966646483371775,0.2966646483371775
0.2966646483371775,0.2966646483371775
0.2966646483371775,0.2966646483371775
0.3054912070148515,0.3054912070148515
0.32314432437019946,0.32314432437019946
0.33859080205612896,0.33859080205612896
0.32314432437019946,0.32314432437019946
0.267978332634737,0.267978332634737
0.18853930453567108,0.18853930453567108
0.12013347478369765,0.12013347478369765
0.08041396073416468,0.08041396073416468
0.06423193649176237,0.06423193649176237
0.053198738144669876,0.053198738144669876
0.039958900128158885,0.039958900128158885
0.025983515555175068,0.025983515555175068
0.014950317208082577,0.014950317208082577
-0.0004961604778469084,-0.0004961604778469084
-0.03138911584970588,-0.03138911584970588
-0.0814062816898585,-0.0814062816898585
-0.13951445965121229,-0.13951445965121229
-0.1895316254913649,-0.1895316254913649
-0.2233667670891152,-0.2233667670891152
-0.24396207067035452,-0.24396207067035452
-0.2733839329292678,-0.2733839329292678
-0.3248721918823661,-0.3248721918823661
-0.4101955924332147,-0.4101955924332147
-0.513907656895884,-0.513907656895884
-0.6279173731491732,-0.6279173731491732
-0.7301583444988968,-0.7301583444988968
-0.8125395588238541,-0.8125395588238541
-0.865498910889898,-0.865498910889898
-0.8883008541405559,-0.8883008541405559
-0.8919785869229201,-0.8919785869229201
-0.8890364006970287,-0.8890364006970287
-0.8919785869229201,-0.8919785869229201
-0.9088961577217952,-0.9088961577217952
-0.9464090321019096,-0.9464090321019096
-1.0037816635067907,-1.0037816635067907
-1.054534375903416,-1.054534375903416
-1.0162859549668288,-1.0162859549668288
-0.7838532431214137,-0.7838532431214137
-0.2976569692928713,-0.2976569692928713
0.40478999213868394,0.40478999213868394
1.2006513662422889,1.2006513662422889
1.9170737122468278,1.9170737122468278
2.3547239133481632,2.3547239133481632
2.3495750874528536,2.3495750874528536
1.8883873965443874,1.8883873965443874
1.133716629603261,1.133716629603261
0.32755760370903647,0.32755760370903647
-0.3520874144718609,-0.3520874144718609
-0.8287215830662564,-0.8287215830662564
-1.1082292745259328,-1.1082292745259328
-1.2487186668122439,-1.2487186668122439
-1.3244799621289456,-1.3244799621289456
-1.3605217433961145,-1.3605217433961145
-1.3244799621289456,-1.3244799621289456
-1.2009081406415099,-1.2009081406415099
-1.054534375903416,-1.054534375903416
-0.9795086271431871,-0.9795086271431871
-1.0001039307244264,-1.0001039307244264
-1.0515921896775247,-1.0515921896775247
-1.054534375903416,-1.054534375903416
-0.9912773720467525,-0.9912773720467525
-0.8919785869229201,-0.8919785869229201
-0.8029774535897073,-0.8029774535897073
-0.7301583444988968,-0.7301583444988968
-0.6742568062069616,-0.6742568062069616
-0.6220330006973904,-0.6220330006973904
-0.5808423935349118,-0.5808423935349118
-0.5411228794853788,-0.5411228794853788
-0.4947834464275904,-0.4947834464275904
-0.43299753568387245,-0.43299753568387245
-0.3667983456013176,-0.3667983456013176
-0.2976569692928713,-0.2976569692928713
-0.20424255662082155,-0.20424255662082155
-0.054926605656836526,-0.054926605656836526
0.14661315081671963,0.14661315081671963
0.3503595469596943,0.3503595469596943
0.5151219756096088,0.5151219756096088
0.6475203557747187,0.6475203557747187
0.7835964687221928,0.7835964687221928
0.944681164589743,0.944681164589743
1.111650232909076,1.111650232909076
1.2418419734047674,1.2418419734047674
1.2977435116967029,1.2977435116967029
1.2690571959942623,1.2690571959942623
1.191824807564615,1.191824807564615
1.133716629603261,1.133716629603261
1.1388654554985709,1.1388654554985709
1.1881470747822507,1.1881470747822507
1.2183044835976369,1.2183044835976369
1.1881470747822507,1.1881470747822507
1.103559220787875,1.103559220787875
0.9991116097687327,0.9991116097687327
0.8909862659672263,0.8909862659672263
0.7828609221657199,0.7828609221657199
0.6960664285019257,0.6960664285019257
0.6747355783642135,0.6747355783642135
0.7232816510914205,0.7232816510914205
0.7828609221657199,0.7828609221657199
0.7710921772621546,0.7710921772621546
0.6747355783642135,0.6747355783642135
0.5467504775379406,0.5467504775379406
0.4584848907612007,0.4584848907612007
0.42832748194581455,0.42832748194581455
0.4312696681717059,0.4312696681717059
0.41729428359872206,0.41729428359872206
0.3775747695491891,0.3775747695491891
0.33859080205612896,0.33859080205612896
0.3503595469596943,0.3503595469596943
0.3915501541221729,0.3915501541221729
0.40478999213868394,0.40478999213868394
0.3268220571525636,0.3268220571525636
0.18853930453567108,0.18853930453567108
0.044372179466995884,0.044372179466995884
-0.054926605656836526,-0.054926605656836526
-0.10347267838404348,-0.10347267838404348
-0.10862150427935331,-0.10862150427935331
-0.08581956102869549,-0.08581956102869549
-0.054926605656836526,-0.054926605656836526
-0.03359575551912438,-0.03359575551912438
-0.027711383067341718,-0.027711383067341718
-0.032860208962651544,-0.032860208962651544
-0.027711383067341718,-0.027711383067341718
0.04142999324110455,0.04142999324110455
0.26944942574768266,0.26944942574768266
0.7394636753338227,0.7394636753338227
1.4580926610077802,1.4580926610077802
2.3105911199597933,2.3105911199597933
3.105716947506925,3.105716947506925
3.638252654393256,3.638252654393256
3.7544690103159635,3.7544690103159635
3.380075813071292,3.380075813071292
2.5658257750558664,2.5658257750558664
1.503696547509096,1.503696547509096
0.4857001133506955,0.4857001133506955
-0.24616871033977303,-0.24616871033977303
-0.6220330006973904,-0.6220330006973904
-0.7456048221848264,-0.7456048221848264
-0.7573735670883917,-0.7573735670883917
-0.7264806117165327,-0.7264806117165327
-0.6492482232868853,-0.6492482232868853
-0.5337674139206505,-0.5337674139206505
-0.43299753568387245,-0.43299753568387245
-0.39916239408612214,-0.39916239408612214
-0.4057823130943777,-0.4057823130943777
-0.3726827180531002,-0.3726827180531002
-0.24396207067035452,-0.24396207067035452
-0.07552190923807584,-0.07552190923807584
0.025983515555175068,0.025983515555175068
-0.005644986373156737,-0.005644986373156737
-0.10862150427935331,-0.10862150427935331
-0.1873249858219464,-0.1873249858219464
-0.16305194945834292,-0.16305194945834292
-0.06595980400392902,-0.06595980400392902
0.053198738144669876,0.053198738144669876
0.14661315081671963,0.14661315081671963
0.2157545271251659,0.2157545271251659
0.2760693447559382,0.2760693447559382
0.3503595469596943,0.3503595469596943
0.4474516924141082,0.4474516924141082
0.5666102345627071,0.5666102345627071
0.6916531491630886,0.6916531491630886
0.8100761447552147,0.8100761447552147
0.9167303954437754,0.9167303954437754
1.0255912858017546,1.0255912858017546
1.1454853745068265,1.1454853745068265
1.2690571959942623,1.2690571959942623
1.3676204345616219,1.3676204345616219
1.4308774384182854,1.4308774384182854
1.4779524180325467,1.4779524180325467
1.5390027822197918,1.5390027822197918
1.5934332273987815,1.5934332273987815
1.5934332273987815,1.5934332273987815
1.5169363855256068,1.5169363855256068
1.4043977623852635,1.4043977623852635
1.2896524995755017,1.2896524995755017
1.1881470747822507,1.1881470747822507
1.1226834312561687,1.1226834312561687
1.133716629603261,1.133716629603261
1.1844693419998866,1.1844693419998866
1.1609318521927559,1.1609318521927559
1.0042604356640426,1.0042604356640426
0.8100761447552147,0.8100761447552147
0.7026863475101811,0.7026863475101811
0.7019508009537083,0.7019508009537083
0.725488290760839,0.725488290760839
0.7284304769867302,0.7284304769867302
0.7159261855266922,0.7159261855266922
0.7019508009537083,0.7019508009537083
0.6776777645901049,0.6776777645901049
0.6475203557747187,0.6475203557747187
0.6114785745075499,0.6114785745075499
0.5666102345627071,0.5666102345627071
0.5070309634884077,0.5070309634884077
0.4584848907612007,0.4584848907612007
0.4261208422763961,0.4261208422763961
0.40478999213868394,0.40478999213868394
0.3577150125244226,0.3577150125244226
0.2966646483371775,0.2966646483371775
0.2253166323593127,0.2253166323593127
0.16132408194617628,0.16132408194617628
0.09291825219420284,0.09291825219420284
0.025983515555175068,0.025983515555175068
-0.026975836510868885,-0.026975836510868885
-0.054926605656836526,-0.054926605656836526
-0.07625745579454868,-0.07625745579454868
-0.13583672686884812,-0.13583672686884812
-0.254995269017447,-0.254995269017447
-0.4057823130943777,-0.4057823130943777
-0.5308252276947593,-0.5308252276947593
-0.5411228794853788,-0.5411228794853788
-0.3138389935352736,-0.3138389935352736
0.24223420315818786,0.24223420315818786
1.071930718859543,1.071930718859543
1.9979838334588396,1.9979838334588396
2.874755328774456,2.874755328774456
3.6191284439249625,3.6191284439249625
4.064134110591026,4.064134110591026
3.9435044753294815,3.9435044753294815
3.159411846129442,3.159411846129442
1.9715041574258174,1.9715041574258174
0.8027206791904864,0.8027206791904864
-0.0814062816898585,-0.0814062816898585
-0.6477771301739396,-0.6477771301739396
-0.9464090321019096,-0.9464090321019096
-1.0405589913304323,-1.0405589913304323
-1.0273191533139212,-1.0273191533139212
-1.0037816635067907,-1.0037816635067907
-1.0001039307244264,-1.0001039307244264
-0.993484011716171,-0.993484011716171
-0.9728887081349317,-0.9728887081349317
-0.953764497666638,-0.953764497666638
-0.9464090321019096,-0.9464090321019096
-0.9456734855454368,-0.9456734855454368
-0.9464090321019096,-0.9464090321019096
-0.9500867648842738,-0.9500867648842738
-0.9464090321019096,-0.9464090321019096
-0.9375824734242356,-0.9375824734242356
-0.9191938095124148,-0.9191938095124148
-0.9066895180523767,-0.9066895180523767
-0.8919785869229201,-0.8919785869229201
-0.8735899230110993,-0.8735899230110993
-0.8382836883004032,-0.8382836883004032
-0.8022419070332345,-0.8022419070332345
-0.7838532431214137,-0.7838532431214137
-0.7787044172261038,-0.7787044172261038
-0.7573735670883917,-0.7573735670883917
-0.698529842570565,-0.698529842570565
-0.6220330006973904,-0.6220330006973904
-0.544800612267743,-0.544800612267743
-0.4602127582733673,-0.4602127582733673
-0.3469385885765511,-0.3469385885765511
-0.2167468480808597,-0.2167468480808597
-0.10200158527109782,-0.10200158527109782
-0.027711383067341718,-0.027711383067341718
0.012008130982191247,0.012008130982191247
0.025983515555175068,0.025983515555175068
0.022305782772810905,0.022305782772810905
-0.0004961604778469084,-0.0004961604778469084
-0.036537941745015706,-0.036537941745015706
-0.0814062816898585,-0.0814062816898585
-0.13142344753001112,-0.13142344753001112
-0.1895316254913649,-0.1895316254913649
-0.254995269017447,-0.254995269017447
-0.3248721918823661,-0.3248721918823661
-0.39254247507786666,-0.39254247507786666
-0.4602127582733673,-0.4602127582733673
-0.5271474949123951,-0.5271474949123951
-0.5948177781078956,-0.5948177781078956
-0.6536615026257223,-0.6536615026257223
-0.702943121909402,-0.702943121909402
-0.7507536480801362,-0.7507536480801362
-0.8110684657109084,-0.8110684657109084
-0.8735899230110993,-0.8735899230110993
-0.9191938095124148,-0.9191938095124148
-0.9368469268677628,-0.9368469268677628
-0.9464090321019096,-0.9464090321019096
-0.967004335683149,-0.967004335683149
-1.0001039307244264,-1.0001039307244264
-1.0302613395398126,-1.0302613395398126
-1.054534375903416,-1.054534375903416
-1.0883695175011663,-1.0883695175011663
-1.1354444971154276,-1.1354444971154276
-1.1869327560685259,-1.1869327560685259
-1.2163546183274392,-1.2163546183274392
-1.2303300029004232,-1.2303300029004232
-1.243569840916934,-1.243569840916934
-1.2693139703934833,-1.2693139703934833
-1.2972647395394508,-1.2972647395394508
-1.3149178568947988,-1.3149178568947988
-1.3244799621289456,-1.3244799621289456
-1.3325709742501468,-1.3325709742501468
-1.3516951847184404,-1.3516951847184404
-1.3943568849938648,-1.3943568849938648
-1.4863002045529687,-1.4863002045529687
-1.6142853053792416,-1.6142853053792416
-1.7025508921559815,-1.7025508921559815
-1.6231118640569158,-1.6231118640569158
-1.270049516949956,-1.270049516949956
-0.6036443367855696,-0.6036443367855696
0.32314432437019946,0.32314432437019946
1.3779180863522416,1.3779180863522416
2.3495750874528536,2.3495750874528536
3.007153708939566,3.007153708939566
3.1601473926859147,3.1601473926859147
2.7504479607305474,2.7504479607305474
1.8905940362138058,1.8905940362138058
0.8365558207882366,0.8365558207882366
-0.13583672686884812,-0.13583672686884812
-0.8463747004216045,-0.8463747004216045
-1.270049516949956,-1.270049516949956
-1.472324819979985,-1.472324819979985
-1.5407306497319584,-1.5407306497319584
-1.537788463506067,-1.537788463506067
-1.5135154271424636,-1.5135154271424636
-1.4877712976659145,-1.4877712976659145
-1.4598205285199468,-1.4598205285199468
-1.4142166420186313,-1.4142166420186313
-1.3516951847184404,-1.3516951847184404
-1.2810827152970485,-1.2810827152970485
-1.2163546183274392,-1.2163546183274392
-1.160453080035504,-1.160453080035504
-1.1082292745259328,-1.1082292745259328
-1.058947655242253,-1.058947655242253
-1.0001039307244264,-1.0001039307244264
-0.9442023924324912,-0.9442023924324912
-0.8919785869229201,-0.8919785869229201
-0.8603500849945882,-0.8603500849945882
-0.8382836883004032,-0.8382836883004032
-0.8176883847191639,-0.8176883847191639
-0.7838532431214137,-0.7838532431214137
-0.729422797942424,-0.729422797942424
-0.6492482232868853,-0.6492482232868853
-0.5455361588242159,-0.5455361588242159
-0.43299753568387245,-0.43299753568387245
-0.3153100866482193,-0.3153100866482193
-0.1895316254913649,-0.1895316254913649
-0.046835593535635364,-0.046835593535635364
0.10762918332365949,0.10762918332365949
0.25547404117469885,0.25547404117469885
0.3775747695491891,0.3775747695491891
0.470253635664766,0.470253635664766
0.5393950119732123,0.5393950119732123
0.5916188174827834,0.5916188174827834
0.6203051331852238,0.6203051331852238
0.6210406797416967,0.6210406797416967
0.5938254571522019,0.5938254571522019
0.5460149309814678,0.5460149309814678
0.4857001133506955,0.4857001133506955
0.4268563888328689,0.4268563888328689
0.3775747695491891,0.3775747695491891
0.33270642960434627,0.33270642960434627
0.26944942574768266,0.26944942574768266
0.18706821142272542,0.18706821142272542
0.10762918332365949,0.10762918332365949
0.048785458805832876,0.048785458805832876
-0.0004961604778469084,-0.0004961604778469084
-0.05419105910036369,-0.05419105910036369
-0.10862150427935331,-0.10862150427935331
-0.15128320455477762,-0.15128320455477762
-0.1895316254913649,-0.1895316254913649
-0.2388132447750447,-0.2388132447750447
-0.2976569692928713,-0.2976569692928713
-0.3476741351330239,-0.3476741351330239
-0.37856709050488285,-0.37856709050488285
-0.40946004587674184,-0.40946004587674184
-0.4602127582733673,-0.4602127582733673
-0.5389162398159604,-0.5389162398159604
-0.6220330006973904,-0.6220330006973904
-0.6992653891270378,-0.6992653891270378
-0.7573735670883917,-0.7573735670883917
-0.8059196398155987,-0.8059196398155987
-0.8382836883004032,-0.8382836883004032
-0.8647633643334253,-0.8647633643334253
-0.8919785869229201,-0.8919785869229201
-0.9243426354077247,-0.9243426354077247
-0.9464090321019096,-0.9464090321019096
-0.9478801252148553,-0.9478801252148553
-0.9464090321019096,-0.9464090321019096
-0.9684754287960946,-0.9684754287960946
-1.0273191533139212,-1.0273191533139212
-1.1001382624047318,-1.1001382624047318
-1.1354444971154276,-1.1354444971154276
-1.0574765621293074,-1.0574765621293074
-0.7838532431214137,-0.7838532431214137
-0.2498464431221372,-0.2498464431221372
0.5393950119732123,0.5393950119732123
1.481630150814911,1.481630150814911
2.3767903100423484,2.3767903100423484
2.9961205105924735,2.9961205105924735
3.1601473926859147,3.1601473926859147
2.821060430151939,2.821060430151939
2.079629501227324,2.079629501227324
1.151369746958609,1.151369746958609
0.26944942574768266,0.26944942574768266
-0.39916239408612214,-0.39916239408612214
-0.8110684657109084,-0.8110684657109084
-1.0243769670880298,-1.0243769670880298
-1.1354444971154276,-1.1354444971154276
-1.203850326867401,-1.203850326867401
-1.243569840916934,-1.243569840916934
-1.2516608530381352,-1.2516608530381352
-1.243569840916934,-1.243569840916934
-1.2318010960133687,-1.2318010960133687
-1.2163546183274392,-1.2163546183274392
-1.1913460354073628,-1.1913460354073628
-1.1626597197049224,-1.1626597197049224
-1.1369155902283734,-1.1369155902283734
-1.1082292745259328,-1.1082292745259328
-1.0788074122670195,-1.0788074122670195
-1.054534375903416,-1.054534375903416
-1.0442367241127963,-1.0442367241127963
-1.0273191533139212,-1.0273191533139212
-1.0015750238373722,-1.0015750238373722
-0.9728887081349317,-0.9728887081349317
-0.9515578579972195,-0.9515578579972195
-0.9191938095124148,-0.9191938095124148
-0.8669700040028437,-0.8669700040028437
-0.8110684657109084,-0.8110684657109084
-0.7625223929837015,-0.7625223929837015
-0.702943121909402,-0.702943121909402
-0.6073220695679338,-0.6073220695679338
-0.48669243430638925,-0.48669243430638925
-0.36238506626248057,-0.36238506626248057
-0.24396207067035452,-0.24396207067035452
-0.12701016819117414,-0.12701016819117414
-0.027711383067341718,-0.027711383067341718
0.04142999324110455,0.04142999324110455
0.08041396073416468,0.08041396073416468
0.10174481087187683,0.10174481087187683
0.10762918332365949,0.10762918332365949
0.09806707808951266,0.09806707808951266
0.08041396073416468,0.08041396073416468
0.06790966927412653,0.06790966927412653
0.053198738144669876,0.053198738144669876
0.0245124224422294,0.0245124224422294
-0.027711383067341718,-0.027711383067341718
-0.09317502659342382,-0.09317502659342382
-0.16305194945834292,-0.16305194945834292
-0.2233667670891152,-0.2233667670891152
-0.27117729325984935,-0.27117729325984935
-0.3020702486317083,-0.3020702486317083
-0.3248721918823661,-0.3248721918823661
-0.3469385885765511,-0.3469385885765511
-0.37856709050488285,-0.37856709050488285
-0.4271131632320898,-0.4271131632320898
-0.48669243430638925,-0.48669243430638925
-0.5396517863724332,-0.5396517863724332
-0.5683381020748737,-0.5683381020748737
-0.5705447417442921,-0.5705447417442921
-0.5683381020748737,-0.5683381020748737
-0.5764291141960748,-0.5764291141960748
-0.5948177781078956,-0.5948177781078956
-0.6190908144714992,-0.6190908144714992
-0.6492482232868853,-0.6492482232868853
-0.7000009356835107,-0.7000009356835107
-0.7573735670883917,-0.7573735670883917
-0.8029774535897073,-0.8029774535897073
-0.8110684657109084,-0.8110684657109084
-0.795621988024979,-0.795621988024979
-0.7838532431214137,-0.7838532431214137
-0.7926798017990876,-0.7926798017990876
-0.8110684657109084,-0.8110684657109084
-0.8316637692921478,-0.8316637692921478
-0.865498910889898,-0.865498910889898
-0.9221359957383062,-0.9221359957383062
-1.0001039307244264,-1.0001039307244264
-1.081014051936438,-1.081014051936438
-1.1354444971154276,-1.1354444971154276
-1.089840610614112,-1.089840610614112
-0.8382836883004032,-0.8382836883004032
-0.3028057951881811,-0.3028057951881811
0.4857001133506955,0.4857001133506955
1.3970422968205352,1.3970422968205352
2.241449743651347,2.241449743651347
2.826944802603722,2.826944802603722
2.997591603705419,2.997591603705419
2.7092573535680686,2.7092573535680686
2.052414278637829,2.052414278637829
1.226395495718838,1.226395495718838
0.4312696681717059,0.4312696681717059
-0.19688709105609323,-0.19688709105609323
-0.6220330006973904,-0.6220330006973904
-0.8691766436722622,-0.8691766436722622
-1.0001039307244264,-1.0001039307244264
-1.075865226041128,-1.075865226041128
-1.1354444971154276,-1.1354444971154276
-1.1707507318261237,-1.1707507318261237
-1.1626597197049224,-1.1626597197049224
-1.1185269263165525,-1.1185269263165525
-1.081014051936438,-1.081014051936438
-1.0670386673634542,-1.0670386673634542
-1.054534375903416,-1.054534375903416
-1.032467979209231,-1.032467979209231
-1.0273191533139212,-1.0273191533139212
-1.050856643121052,-1.050856643121052
-1.054534375903416,-1.054534375903416
-1.0118726756279919,-1.0118726756279919
-0.9464090321019096,-0.9464090321019096
-0.9103672508347409,-0.9103672508347409
-0.8919785869229201,-0.8919785869229201
-0.8618211781075339,-0.8618211781075339
-0.8110684657109084,-0.8110684657109084
-0.7654645792095929,-0.7654645792095929
-0.7301583444988968,-0.7301583444988968
-0.6860255511105269,-0.6860255511105269
-0.6220330006973904,-0.6220330006973904
-0.5367096001465419,-0.5367096001465419
-0.43299753568387245,-0.43299753568387245
-0.312367900422328,-0.312367900422328
-0.1895316254913649,-0.1895316254913649
-0.08214182824633133,-0.08214182824633133
-0.0004961604778469084,-0.0004961604778469084
0.06128975026587104,0.06128975026587104
0.10762918332365949,0.10762918332365949
0.13410885935668146,0.13410885935668146
0.13410885935668146,0.13410885935668146
0.11939792822722481,0.11939792822722481
0.10762918332365949,0.10762918332365949
0.101009264315404,0.101009264315404
0.08041396073416468,0.08041396073416468
0.04069444668463172,0.04069444668463172
-0.0004961604778469084,-0.0004961604778469084
-0.026975836510868885,-0.026975836510868885
-0.054926605656836526,-0.054926605656836526
-0.10273713182757065,-0.10273713182757065
-0.16305194945834292,-0.16305194945834292
-0.20424255662082155,-0.20424255662082155
-0.2167468480808597,-0.2167468480808597
-0.21380466185496838,-0.21380466185496838
-0.2167468480808597,-0.2167468480808597
-0.2343999654362077,-0.2343999654362077
-0.27117729325984935,-0.27117729325984935
-0.32413664532589326,-0.32413664532589326
-0.37856709050488285,-0.37856709050488285
-0.41093113898968747,-0.41093113898968747
-0.4057823130943777,-0.4057823130943777
-0.3837159164001927,-0.3837159164001927
-0.37856709050488285,-0.37856709050488285
-0.41902215111088864,-0.41902215111088864
-0.48669243430638925,-0.48669243430638925
-0.5631892761795638,-0.5631892761795638
-0.6220330006973904,-0.6220330006973904
-0.6705790734245974,-0.6705790734245974
-0.702943121909402,-0.702943121909402
-0.7147118668129674,-0.7147118668129674
-0.702943121909402,-0.702943121909402
-0.6911743770058367,-0.6911743770058367
-0.702943121909402,-0.702943121909402
-0.7397204497330437,-0.7397204497330437
-0.7838532431214137,-0.7838532431214137
-0.8316637692921478,-0.8316637692921478
-0.8919785869229201,-0.8919785869229201
-0.9471445786583825,-0.9471445786583825
-0.9191938095124148,-0.9191938095124148
-0.6963232029011466,-0.6963232029011466
-0.2167468480808597,-0.2167468480808597
0.4798157408989129,0.4798157408989129
1.296272418583757,1.296272418583757
2.139944318858096,2.139944318858096
2.8894662599039127,2.8894662599039127
3.325645367892302,3.325645367892302
3.2138422913084317,3.2138422913084317
2.5371394593534258,2.5371394593534258
1.5662180048092866,1.5662180048092866
0.6511980885570828,0.6511980885570828
-0.027711383067341718,-0.027711383067341718
-0.4653615841686771,-0.4653615841686771
-0.702943121909402,-0.702943121909402
-0.7838532431214137,-0.7838532431214137
-0.7838532431214137,-0.7838532431214137
-0.7742911378872668,-0.7742911378872668
-0.7573735670883917,-0.7573735670883917
-0.6963232029011466,-0.6963232029011466
-0.5948177781078956,-0.5948177781078956
-0.5043455516617372,-0.5043455516617372
-0.4602127582733673,-0.4602127582733673
-0.46168385138631296,-0.46168385138631296
-0.48669243430638925,-0.48669243430638925
-0.5161142965653026,-0.5161142965653026
-0.513907656895884,-0.513907656895884
-0.4631549444992586,-0.4631549444992586
-0.3520874144718609,-0.3520874144718609
-0.21380466185496838,-0.21380466185496838
-0.0814062816898585,-0.0814062816898585
-0.0093227191555209,-0.0093227191555209
-0.0004961604778469084,-0.0004961604778469084
-0.027711383067341718,-0.027711383067341718
-0.027711383067341718,-0.027711383067341718
0.02966124833753923,0.02966124833753923
0.13410885935668146,0.13410885935668146
0.25253185494880753,0.25253185494880753
0.3775747695491891,0.3775747695491891
0.5239485342872828,0.5239485342872828
0.7019508009537083,0.7019508009537083
0.8814241607330795,0.8814241607330795
1.0255912858017546,1.0255912858017546
1.1197412450302773,1.1197412450302773
1.1881470747822507,1.1881470747822507
1.2550818114212785,1.2550818114212785
1.322752094616779,1.322752094616779
1.3742403535698773,1.3742403535698773
1.4043977623852635,1.4043977623852635
1.420579786627666,1.420579786627666
1.4308774384182854,1.4308774384182854
1.4271997056359214,1.4271997056359214
1.4043977623852635,1.4043977623852635
1.3646782483357305,1.3646782483357305
1.322752094616779,1.322752094616779
1.2764126615589906,1.2764126615589906
1.2146267508152726,1.2146267508152726
1.1329810830467884,1.1329810830467884
1.0528065083912495,1.0528065083912495
1.0035248891075697,1.0035248891075697
0.9991116097687327,0.9991116097687327
1.010880354672298,1.010880354672298
0.9991116097687327,0.9991116097687327
0.9351190593555962,0.9351190593555962
0.8365558207882366,0.8365558207882366
0.73872812877735,0.73872812877735
0.6747355783642135,0.6747355783642135
0.6394293436535176,0.6394293436535176
0.6203051331852238,0.6203051331852238
0.5952965502651476,0.5952965502651476
0.5666102345627071,0.5666102345627071
0.5246840808437556,0.5246840808437556
0.4857001133506955,0.4857001133506955
0.4533360648658909,0.4533360648658909
0.4584848907612007,0.4584848907612007
0.4798157408989129,0.4798157408989129
0.4857001133506955,0.4857001133506955
0.42832748194581455,0.42832748194581455
0.32314432437019946,0.32314432437019946
0.23193655136756822,0.23193655136756822
0.2157545271251659,0.2157545271251659
0.25253185494880753,0.25253185494880753
0.26944942574768266,0.26944942574768266
0.2297299116981497,0.2297299116981497
0.18853930453567108,0.18853930453567108
0.20766351500396474,0.20766351500396474
0.32314432437019946,0.32314432437019946
0.5827922588051094,0.5827922588051094
1.0528065083912495,1.0528065083912495
1.7074429436520706,1.7074429436520706
2.430485208664865,2.430485208664865
3.137345449435257,3.137345449435257
3.7809486863489856,3.7809486863489856
4.164168442271332,4.164168442271332
3.9707196979189763,3.9707196979189763
3.1086591337328167,3.1086591337328167
1.9170737122468278,1.9170737122468278
0.8520022984741662,0.8520022984741662
0.10762918332365949,0.10762918332365949
-0.37047607838368174,-0.37047607838368174
-0.6220330006973904,-0.6220330006973904
-0.6507193163998309,-0.6507193163998309
-0.5411228794853788,-0.5411228794853788
-0.44329518747449215,-0.44329518747449215
-0.4057823130943777,-0.4057823130943777
-0.3675338921577904,-0.3675338921577904
-0.27117729325984935,-0.27117729325984935
-0.1534898442241961,-0.1534898442241961
-0.0814062816898585,-0.0814062816898585
-0.083612921359277,-0.083612921359277
-0.10862150427935331,-0.10862150427935331
-0.09758830593226082,-0.09758830593226082
-0.027711383067341718,-0.027711383067341718
0.028925701781066397,0.028925701781066397
0.025983515555175068,0.025983515555175068
-0.01741373127672206,-0.01741373127672206
-0.0004961604778469084,-0.0004961604778469084
0.08850497285536585,0.08850497285536585
0.18853930453567108,0.18853930453567108
0.23340764448051388,0.23340764448051388
0.26944942574768266,0.26944942574768266
0.3716903970974064,0.3716903970974064
0.5393950119732123,0.5393950119732123
0.6835621370418875,0.6835621370418875
0.7556456995762251,0.7556456995762251
0.8041917723034321,0.8041917723034321
0.9174659420002483,0.9174659420002483
1.1065014070137662,1.1065014070137662
1.296272418583757,1.296272418583757
1.401455576159372,1.401455576159372
1.4308774384182854,1.4308774384182854
1.4588282075642531,1.4588282075642531
1.5390027822197918,1.5390027822197918
1.6287394621094775,1.6287394621094775
1.6471281260212982,1.6471281260212982
1.5669535513657595,1.5669535513657595
1.4580926610077802,1.4580926610077802
1.3911579243687526,1.3911579243687526
1.3771825397957687,1.3771825397957687
1.3720337139004588,1.3720337139004588
1.3499673172062738,1.3499673172062738
1.3109833497132137,1.3109833497132137
1.2690571959942623,1.2690571959942623
1.226395495718838,1.226395495718838
1.1881470747822507,1.1881470747822507
1.1484275607327177,1.1484275607327177
1.107236953570239,1.107236953570239
1.0601619739559778,1.0601619739559778
1.0255912858017546,1.0255912858017546
1.0079381684464066,1.0079381684464066
0.9991116097687327,0.9991116097687327
0.9763096665180749,0.9763096665180749
0.944681164589743,0.944681164589743
0.9130526626614113,0.9130526626614113
0.8909862659672263,0.8909862659672263
0.8667132296036228,0.8667132296036228
0.8365558207882366,0.8365558207882366
0.7946296670692853,0.7946296670692853
0.7556456995762251,0.7556456995762251
0.7063640802925453,0.7063640802925453
0.6475203557747187,0.6475203557747187
0.5710235139015442,0.5710235139015442
0.5129153359401903,0.5129153359401903
0.46804699599534755,0.46804699599534755
0.4312696681717059,0.4312696681717059
0.3886079678962816,0.3886079678962816
0.3503595469596943,0.3503595469596943
0.30769784668426997,0.30769784668426997
0.24223420315818786,0.24223420315818786
0.1510264301555566,0.1510264301555566
0.053198738144669876,0.053198738144669876
-0.054926605656836526,-0.054926605656836526
-0.1895316254913649,-0.1895316254913649
-0.3086901676399638,-0.3086901676399638
-0.24396207067035452,-0.24396207067035452
0.1958947701003994,0.1958947701003994
1.0255912858017546,1.0255912858017546
2.0046037524670948,2.0046037524670948
2.8629865838708906,2.8629865838708906
3.5639624521894997,3.5639624521894997
4.186234838965516,4.186234838965516
4.54297491885484,4.54297491885484
4.213450061555011,4.213450061555011
3.079972818030376,3.079972818030376
1.6199129034318034,1.6199129034318034
0.4555427045353094,0.4555427045353094
