ECG,PPG
-0.8173324647221513,-0.8173324647221513
-0.3038643480464509,-0.3038643480464509
-0.886132847069389,-0.886132847069389
-1.2337558315606953,-1.2337558315606953
-0.9542090148656032,-0.9542090148656032
-0.7383930786605838,-0.7383930786605838
-0.9542090148656032,-0.9542090148656032
-1.2026146058666825,-1.2026146058666825
-1.091085565009055,-1.091085565009055
-0.8245746102323868,-0.8245746102323868
-0.7492562969259371,-0.7492562969259371
-0.8615095523345881,-0.8615095523345881
-0.886132847069389,-0.886132847069389
-0.7789490935179029,-0.7789490935179029
-0.7492562969259371,-0.7492562969259371
-0.8904781343755303,-0.8904781343755303
-0.9542090148656032,-0.9542090148656032
-0.8151598210690806,-0.8151598210690806
-0.6804559145786994,-0.6804559145786994
-0.7463594387218428,-0.7463594387218428
-0.8173324647221513,-0.8173324647221513
-0.7115971402727123,-0.7115971402727123
-0.6116555322314617,-0.6116555322314617
-0.6971128492522412,-0.6971128492522412
-0.7492562969259371,-0.7492562969259371
-0.6073102449253204,-0.6073102449253204
-0.47477898208800984,-0.47477898208800984
-0.5080928514350933,-0.5080928514350933
-0.40670281429179567,-0.40670281429179567
0.0003057633834421269,0.0003057633834421269
0.41455648656891547,0.41455648656891547
0.5673657568348855,0.5673657568348855
0.757109969203057,0.757109969203057
1.2749233731848986,1.2749233731848986
1.9209227526979096,1.9209227526979096
2.3177923266588176,2.3177923266588176
2.4003527854755027,2.4003527854755027
1.986826276841053,1.986826276841053
0.620233419059605,0.620233419059605
-1.7740198866242671,-1.7740198866242671
-4.239970432859471,-4.239970432859471
-5.57614627949793,-5.57614627949793
-5.403783216354324,-5.403783216354324
-4.328324608084345,-4.328324608084345
-3.0761576493646188,-3.0761576493646188
-2.0542909178703828,-2.0542909178703828
-1.3648386652959588,-1.3648386652959588
-1.037493688233312,-1.037493688233312
-0.9542090148656032,-0.9542090148656032
-0.9520363712125325,-0.9520363712125325
-0.886132847069389,-0.886132847069389
-0.7811217371709736,-0.7811217371709736
-0.6804559145786994,-0.6804559145786994
-0.6007923139661083,-0.6007923139661083
-0.47477898208800984,-0.47477898208800984
-0.3762858031488064,-0.3762858031488064
-0.40670281429179567,-0.40670281429179567
-0.5616847282108364,-0.5616847282108364
-0.6116555322314617,-0.6116555322314617
-0.5044717786799756,-0.5044717786799756
-0.40670281429179567,-0.40670281429179567
-0.46970948023084497,-0.46970948023084497
-0.5435793644352476,-0.5435793644352476
-0.5073686368840699,-0.5073686368840699
-0.47477898208800984,-0.47477898208800984
-0.5616847282108364,-0.5616847282108364
-0.6116555322314617,-0.6116555322314617
-0.5348887898229648,-0.5348887898229648
-0.47477898208800984,-0.47477898208800984
-0.5660300155169777,-0.5660300155169777
-0.6116555322314617,-0.6116555322314617
-0.5066444223330463,-0.5066444223330463
-0.40670281429179567,-0.40670281429179567
-0.44508618549604406,-0.44508618549604406
-0.40670281429179567,-0.40670281429179567
-0.22130388922976565,-0.22130388922976565
-0.13294971400489197,-0.13294971400489197
-0.2864831988218856,-0.2864831988218856
-0.337902431944558,-0.337902431944558
-0.09529055735166711,-0.09529055735166711
0.14080338628201175,0.14080338628201175
0.04158599279178475,0.04158599279178475
-0.13294971400489197,-0.13294971400489197
-0.06559776075970136,-0.06559776075970136
0.14080338628201175,0.14080338628201175
0.19729212126184903,0.19729212126184903
0.20960376862924948,0.20960376862924948
0.3377897441604187,0.3377897441604187
0.4833568689161532,0.4833568689161532
0.47394207975284697,0.47394207975284697
0.4833568689161532,0.4833568689161532
0.6528230738556651,0.6528230738556651
0.8259103515502946,0.8259103515502946
0.7810090493868342,0.7810090493868342
0.6890338014068428,0.6890338014068428
0.7694216165704574,0.7694216165704574
0.9627869016937465,0.9627869016937465
1.0142061348164189,1.0142061348164189
0.9627869016937465,0.9627869016937465
1.0142061348164189,1.0142061348164189
1.2365400019806503,1.2365400019806503
1.3857281994915025,1.3857281994915025
1.3046161697768643,1.3046161697768643
1.0960423790820806,1.0960423790820806
1.0308630694899605,1.0308630694899605
1.121389888367905,1.121389888367905
1.1677396196334124,1.1677396196334124
1.022172494877678,1.022172494877678
0.8259103515502946,0.8259103515502946
0.6839642995496779,0.6839642995496779
0.5514330367123673,0.5514330367123673
0.3653098970993138,0.3653098970993138
0.2776799364254636,0.2776799364254636
0.3262023113440418,0.3262023113440418
0.34648031877270136,0.34648031877270136
0.21829434324153213,0.21829434324153213
0.14080338628201175,0.14080338628201175
0.2009131940169668,0.2009131940169668
0.20960376862924948,0.20960376862924948
0.014790054403913223,0.014790054403913223
-0.13294971400489197,-0.13294971400489197
-0.07428833537198402,-0.07428833537198402
0.003926836138559901,0.003926836138559901
-0.12353492484158575,-0.12353492484158575
-0.2698262641483438,-0.2698262641483438
-0.27127469325039094,-0.27127469325039094
-0.2698262641483438,-0.2698262641483438
-0.45160411645525605,-0.45160411645525605
-0.6116555322314617,-0.6116555322314617
-0.5739963755782368,-0.5739963755782368
-0.47477898208800984,-0.47477898208800984
-0.536337218925012,-0.536337218925012
-0.6116555322314617,-0.6116555322314617
-0.5508215099454831,-0.5508215099454831
-0.47477898208800984,-0.47477898208800984
-0.59499859755792,-0.59499859755792
-0.7492562969259371,-0.7492562969259371
-0.6985612783542883,-0.6985612783542883
-0.47477898208800984,-0.47477898208800984
-0.3755615885977828,-0.3755615885977828
-0.47477898208800984,-0.47477898208800984
-0.616000819537603,-0.616000819537603
-0.6116555322314617,-0.6116555322314617
-0.5225771424555644,-0.5225771424555644
-0.47477898208800984,-0.47477898208800984
-0.5377856480270591,-0.5377856480270591
-0.6116555322314617,-0.6116555322314617
-0.6413483288234274,-0.6413483288234274
-0.6116555322314617,-0.6116555322314617
-0.542855149884224,-0.542855149884224
-0.40670281429179567,-0.40670281429179567
-0.318348639066922,-0.318348639066922
-0.40670281429179567,-0.40670281429179567
-0.6051376012722497,-0.6051376012722497
-0.6116555322314617,-0.6116555322314617
-0.4038059560877015,-0.4038059560877015
-0.2698262641483438,-0.2698262641483438
-0.36687101398550015,-0.36687101398550015
-0.40670281429179567,-0.40670281429179567
-0.24230611120944873,-0.24230611120944873
-0.13294971400489197,-0.13294971400489197
-0.305312777148498,-0.305312777148498
-0.47477898208800984,-0.47477898208800984
-0.40090909788360723,-0.40090909788360723
-0.2698262641483438,-0.2698262641483438
-0.3400750755976286,-0.3400750755976286
-0.40670281429179567,-0.40670281429179567
-0.2763441951075558,-0.2763441951075558
-0.13294971400489197,-0.13294971400489197
-0.20319852545417677,-0.20319852545417677
-0.2698262641483438,-0.2698262641483438
-0.15684879418866926,-0.15684879418866926
-0.06414933165765425,-0.06414933165765425
-0.1916110926377999,-0.1916110926377999
-0.2698262641483438,-0.2698262641483438
-0.11846542298442087,-0.11846542298442087
0.003926836138559901,0.003926836138559901
-0.16191829604583416,-0.16191829604583416
-0.337902431944558,-0.337902431944558
-0.2640325477401554,-0.2640325477401554
-0.13294971400489197,-0.13294971400489197
-0.22492496198488343,-0.22492496198488343
-0.337902431944558,-0.337902431944558
-0.25172090037275496,-0.25172090037275496
-0.13294971400489197,-0.13294971400489197
-0.2459271839645665,-0.2459271839645665
-0.40670281429179567,-0.40670281429179567
-0.3828037341080184,-0.3828037341080184
-0.2698262641483438,-0.2698262641483438
-0.29444955888314467,-0.29444955888314467
-0.337902431944558,-0.337902431944558
-0.2509966858217314,-0.2509966858217314
-0.13294971400489197,-0.13294971400489197
-0.18074787437244658,-0.18074787437244658
-0.2698262641483438,-0.2698262641483438
-0.23216710749511896,-0.23216710749511896
-0.13294971400489197,-0.13294971400489197
-0.20392274000520033,-0.20392274000520033
-0.40670281429179567,-0.40670281429179567
-0.536337218925012,-0.536337218925012
-0.47477898208800984,-0.47477898208800984
-0.3719405158426651,-0.3719405158426651
-0.337902431944558,-0.337902431944558
-0.3277634282302282,-0.3277634282302282
-0.20102588180110612,-0.20102588180110612
-0.05618297159639515,-0.05618297159639515
-0.06414933165765425,-0.06414933165765425
-0.21116488551543589,-0.21116488551543589
-0.20102588180110612,-0.20102588180110612
0.0263774872202901,0.0263774872202901
0.20960376862924948,0.20960376862924948
0.13138859711870554,0.13138859711870554
0.003926836138559901,0.003926836138559901
0.018411127159030996,0.018411127159030996
0.0727272184857976,0.0727272184857976
-0.005487953024746312,-0.005487953024746312
-0.06414933165765425,-0.06414933165765425
-0.010557454881911196,-0.010557454881911196
0.003926836138559901,0.003926836138559901
-0.1293286412497742,-0.1293286412497742
-0.13294971400489197,-0.13294971400489197
0.11690430609823445,0.11690430609823445
0.34648031877270136,0.34648031877270136
0.2950610856500289,0.2950610856500289
0.20960376862924948,0.20960376862924948
0.28709472558876986,0.28709472558876986
0.34648031877270136,0.34648031877270136
0.1639782519147655,0.1639782519147655
0.003926836138559901,0.003926836138559901
0.06113978566942073,0.06113978566942073
0.14080338628201175,0.14080338628201175
0.003202621587536346,0.003202621587536346
-0.13294971400489197,-0.13294971400489197
-0.03300810596364139,-0.03300810596364139
0.14080338628201175,0.14080338628201175
0.12342223705744644,0.12342223705744644
0.0727272184857976,0.0727272184857976
0.23712392156814455,0.23712392156814455
0.5514330367123673,0.5514330367123673
0.7288656017131383,0.7288656017131383
0.8259103515502946,0.8259103515502946
1.12645939022507,1.12645939022507
1.71524582020722,1.71524582020722
2.2475435152095327,2.2475435152095327
2.537229335618955,2.537229335618955
2.8725406727428604,2.8725406727428604
3.6322417367665696,3.6322417367665696
4.360077360545242,4.360077360545242
3.974795219400711,3.974795219400711
1.9238196109020038,1.9238196109020038
-0.9542090148656032,-0.9542090148656032
-3.2702471490389313,-3.2702471490389313
-4.239970432859471,-4.239970432859471
-3.990116412756345,-3.990116412756345
-2.939281099221167,-2.939281099221167
-1.6168653290521557,-1.6168653290521557
-0.5435793644352476,-0.5435793644352476
-0.004763738473722757,-0.004763738473722757
0.20960376862924948,0.20960376862924948
0.329099169548136,0.329099169548136
0.34648031877270136,0.34648031877270136
0.20525848132310814,0.20525848132310814
0.14080338628201175,0.14080338628201175
0.25160821258861565,0.25160821258861565
0.34648031877270136,0.34648031877270136
0.25378085624168634,0.25378085624168634
0.20960376862924948,0.20960376862924948
0.3305475986501831,0.3305475986501831
0.41455648656891547,0.41455648656891547
0.2617472163029454,0.2617472163029454
0.14080338628201175,0.14080338628201175
0.23133020515995611,0.23133020515995611
0.34648031877270136,0.34648031877270136
0.2675409327111339,0.2675409327111339
0.20960376862924948,0.20960376862924948
0.348652962425772,0.348652962425772
0.4833568689161532,0.4833568689161532
0.40007219554844436,0.40007219554844436
0.34648031877270136,0.34648031877270136
0.5108770218550482,0.5108770218550482
0.6890338014068428,0.6890338014068428
0.62530292091677,0.62530292091677
0.5514330367123673,0.5514330367123673
0.6738252958353481,0.6738252958353481
0.8259103515502946,0.8259103515502946
0.7802848348358107,0.7802848348358107
0.757109969203057,0.757109969203057
0.9265761741425688,0.9265761741425688
1.0996634518371984,1.0996634518371984
1.0373810004491726,1.0373810004491726
0.9627869016937465,0.9627869016937465
1.0779370153064918,1.0779370153064918
1.2365400019806503,1.2365400019806503
1.1887418416130955,1.1887418416130955
1.0996634518371984,1.0996634518371984
1.1532553286129414,1.1532553286129414
1.2365400019806503,1.2365400019806503
1.0974908081841277,1.0974908081841277
0.8939865193465087,0.8939865193465087
0.9287488177956394,0.9287488177956394
1.2365400019806503,1.2365400019806503
1.4472864363285047,1.4472864363285047
1.373416552124102,1.373416552124102
1.207571419939708,1.207571419939708
1.3046161697768643,1.3046161697768643
1.6015441356965219,1.6015441356965219
1.7840462025544577,1.7840462025544577
1.7239363948195026,1.7239363948195026
1.71524582020722,1.71524582020722
1.8781940941875197,1.8781940941875197
1.9889989204941236,1.9889989204941236
1.8658824468201194,1.8658824468201194
1.7840462025544577,1.7840462025544577
1.918750109044839,1.918750109044839
2.0577993028413615,2.0577993028413615
1.9593061239021579,1.9593061239021579
1.8521223703506717,1.8521223703506717
1.9064384616774384,1.9064384616774384
1.9209227526979096,1.9209227526979096
1.7101763183500551,1.7101763183500551
1.5783692700637681,1.5783692700637681
1.6985888855336781,1.6985888855336781
1.7840462025544577,1.7840462025544577
1.5689544809004619,1.5689544809004619
1.373416552124102,1.373416552124102
1.424111570695751,1.424111570695751
1.4414927199203162,1.4414927199203162
1.1293562484291642,1.1293562484291642
0.8259103515502946,0.8259103515502946
0.844739929876907,0.844739929876907
0.9627869016937465,0.9627869016937465
0.8186682060400591,0.8186682060400591
0.620233419059605,0.620233419059605
0.6267513500188171,0.6267513500188171
0.6890338014068428,0.6890338014068428
0.5304308147326843,0.5304308147326843
0.34648031877270136,0.34648031877270136
0.3501013915278191,0.3501013915278191
0.41455648656891547,0.41455648656891547
0.3233054531399476,0.3233054531399476
0.2776799364254636,0.2776799364254636
0.441352424956787,0.441352424956787
0.620233419059605,0.620233419059605
0.5268097419775665,0.5268097419775665
0.34648031877270136,0.34648031877270136
0.36675832620136084,0.36675832620136084
0.5514330367123673,0.5514330367123673
0.5586751822226029,0.5586751822226029
0.34648031877270136,0.34648031877270136
0.1770141138331895,0.1770141138331895
0.2776799364254636,0.2776799364254636
0.467424148793635,0.467424148793635
0.4833568689161532,0.4833568689161532
0.30447587481333516,0.30447587481333516
0.20960376862924948,0.20960376862924948
0.2784041509764872,0.2784041509764872
0.34648031877270136,0.34648031877270136
0.28347365283365206,0.28347365283365206
0.2776799364254636,0.2776799364254636
0.4029690537525386,0.4029690537525386
0.4833568689161532,0.4833568689161532
0.38341526087490263,0.38341526087490263
0.34648031877270136,0.34648031877270136
0.4978411599366243,0.4978411599366243
0.620233419059605,0.620233419059605
0.4913232289774123,0.4913232289774123
0.34648031877270136,0.34648031877270136
0.3921058354871853,0.3921058354871853
0.4833568689161532,0.4833568689161532
0.4051416974056093,0.4051416974056093
0.34648031877270136,0.34648031877270136
0.4558367159772581,0.4558367159772581
0.5514330367123673,0.5514330367123673
0.41962598842608034,0.41962598842608034
0.2776799364254636,0.2776799364254636
0.32185702403790045,0.32185702403790045
0.41455648656891547,0.41455648656891547
0.36168882434419597,0.36168882434419597
0.34648031877270136,0.34648031877270136
0.48046001071205896,0.48046001071205896
0.5514330367123673,0.5514330367123673
0.3689309698544315,0.3689309698544315
0.20960376862924948,0.20960376862924948
0.28709472558876986,0.28709472558876986
0.41455648656891547,0.41455648656891547
0.3269265258950654,0.3269265258950654
0.20960376862924948,0.20960376862924948
0.25812614354782765,0.25812614354782765
0.34648031877270136,0.34648031877270136
0.2697135763642045,0.2697135763642045
0.20960376862924948,0.20960376862924948
0.3102695912215236,0.3102695912215236
0.41455648656891547,0.41455648656891547
0.3341686714053009,0.3341686714053009
0.2776799364254636,0.2776799364254636
0.4080385556097035,0.4080385556097035
0.5514330367123673,0.5514330367123673
0.47249365065079985,0.47249365065079985
0.34648031877270136,0.34648031877270136
0.38124261722183195,0.38124261722183195
0.4833568689161532,0.4833568689161532
0.3986237664463973,0.3986237664463973
0.20960376862924948,0.20960376862924948
0.13283702622075266,0.13283702622075266
0.20960376862924948,0.20960376862924948
0.22481227420074412,0.22481227420074412
0.14080338628201175,0.14080338628201175
0.11328323334311668,0.11328323334311668
0.2776799364254636,0.2776799364254636
0.4319376357934808,0.4319376357934808
0.34648031877270136,0.34648031877270136
0.08503886585319805,0.08503886585319805
0.003926836138559901,0.003926836138559901
0.16035717915964776,0.16035717915964776
0.2776799364254636,0.2776799364254636
0.17991097203728373,0.17991097203728373
0.14080338628201175,0.14080338628201175
0.3211328094868769,0.3211328094868769
0.4833568689161532,0.4833568689161532
0.35082560607884267,0.35082560607884267
0.14080338628201175,0.14080338628201175
0.11907694975130512,0.11907694975130512
0.20960376862924948,0.20960376862924948
0.17991097203728373,0.17991097203728373
0.14080338628201175,0.14080338628201175
0.23205441971097968,0.23205441971097968
0.34648031877270136,0.34648031877270136
0.29144001289491117,0.29144001289491117
0.20960376862924948,0.20960376862924948
0.2530566416906628,0.2530566416906628
0.34648031877270136,0.34648031877270136
0.3377897441604187,0.3377897441604187
0.34648031877270136,0.34648031877270136
0.4399039958547399,0.4399039958547399
0.4833568689161532,0.4833568689161532
0.3435834605686071,0.3435834605686071
0.20960376862924948,0.20960376862924948
0.20453426677208458,0.20453426677208458
0.20960376862924948,0.20960376862924948
0.08141779309808027,0.08141779309808027
0.003926836138559901,0.003926836138559901
0.09662629866957492,0.09662629866957492
0.20960376862924948,0.20960376862924948
0.12487066615949356,0.12487066615949356
0.003926836138559901,0.003926836138559901
0.046655494648949636,0.046655494648949636
0.20960376862924948,0.20960376862924948
0.21829434324153213,0.21829434324153213
0.0727272184857976,0.0727272184857976
-0.05183768429025382,-0.05183768429025382
0.003926836138559901,0.003926836138559901
0.13935495717996466,0.13935495717996466
0.20960376862924948,0.20960376862924948
0.17411725562909527,0.17411725562909527
0.14080338628201175,0.14080338628201175
0.1531150336494122,0.1531150336494122
0.20960376862924948,0.20960376862924948
0.3341686714053009,0.3341686714053009
0.620233419059605,0.620233419059605
0.9323698905507571,0.9323698905507571
1.0996634518371984,1.0996634518371984
1.253196936654192,1.253196936654192
1.7840462025544577,1.7840462025544577
2.580682208680368,2.580682208680368
3.1528117039889763,3.1528117039889763
3.4779840373985524,3.4779840373985524
4.111671769544163,4.111671769544163
4.818505171343152,4.818505171343152
4.316624487483828,4.316624487483828
1.907162676228462,1.907162676228462
-1.2279621151525069,-1.2279621151525069
-3.3969846954680536,-3.3969846954680536
-4.10309388271602,-4.10309388271602
-3.8872779465110003,-3.8872779465110003
-3.0761576493646188,-3.0761576493646188
-1.876858352869612,-1.876858352869612
-0.8173324647221513,-0.8173324647221513
-0.3741131594957357,-0.3741131594957357
-0.2698262641483438,-0.2698262641483438
-0.07646097902505468,-0.07646097902505468
0.14080338628201175,0.14080338628201175
0.10097158597571625,0.10097158597571625
0.003926836138559901,0.003926836138559901
0.10386844417981046,0.10386844417981046
0.2776799364254636,0.2776799364254636
0.26247143085396896,0.26247143085396896
0.20960376862924948,0.20960376862924948
0.2784041509764872,0.2784041509764872
0.34648031877270136,0.34648031877270136
0.22553648875176768,0.22553648875176768
0.14080338628201175,0.14080338628201175
0.2733346491193223,0.2733346491193223
0.4833568689161532,0.4833568689161532
0.5420182475490611,0.5420182475490611
0.5514330367123673,0.5514330367123673
0.6231302772636993,0.6231302772636993
0.620233419059605,0.620233419059605
0.40586591195663285,0.40586591195663285
0.20960376862924948,0.20960376862924948
0.2284333469558619,0.2284333469558619
0.34648031877270136,0.34648031877270136
0.3146148785276649,0.3146148785276649
0.20960376862924948,0.20960376862924948
0.17991097203728373,0.17991097203728373
0.20960376862924948,0.20960376862924948
0.14876974634327086,0.14876974634327086
0.0727272184857976,0.0727272184857976
0.09662629866957492,0.09662629866957492
0.20960376862924948,0.20960376862924948
0.223363845098697,0.223363845098697
0.14080338628201175,0.14080338628201175
0.11545587699618734,0.11545587699618734
0.2776799364254636,0.2776799364254636
0.4449734977119048,0.4449734977119048
0.41455648656891547,0.41455648656891547
0.2284333469558619,0.2284333469558619
0.20960376862924948,0.20960376862924948
0.4181775593240333,0.4181775593240333
0.620233419059605,0.620233419059605
0.6390629973862175,0.6390629973862175
0.6890338014068428,0.6890338014068428
0.8809506574280848,0.8809506574280848
1.0308630694899605,1.0308630694899605
0.9729259054080762,0.9729259054080762
0.9627869016937465,0.9627869016937465
1.1793270524497894,1.1793270524497894
1.4414927199203162,1.4414927199203162
1.5146383895736952,1.5146383895736952
1.5783692700637681,1.5783692700637681
1.7746314133911514,1.7746314133911514
1.9209227526979096,1.9209227526979096
1.8231537883097295,1.8231537883097295
1.71524582020722,1.71524582020722
1.7644924096768217,1.7644924096768217
1.7840462025544577,1.7840462025544577
1.5870598446760507,1.5870598446760507
1.4414927199203162,1.4414927199203162
1.523328964185978,1.523328964185978
1.5783692700637681,1.5783692700637681
1.3140309589401706,1.3140309589401706
0.9627869016937465,0.9627869016937465
0.8085292023257293,0.8085292023257293
0.757109969203057,0.757109969203057
0.5398456038959905,0.5398456038959905
0.2776799364254636,0.2776799364254636
0.18063518658830727,0.18063518658830727
0.20960376862924948,0.20960376862924948
0.137182313526894,0.137182313526894
0.003926836138559901,0.003926836138559901
-0.06414933165765425,-0.06414933165765425
-0.06414933165765425,-0.06414933165765425
-0.1517792923315044,-0.1517792923315044
-0.2698262641483438,-0.2698262641483438
-0.2604114749850376,-0.2604114749850376
-0.06414933165765425,-0.06414933165765425
0.08214200764910382,0.08214200764910382
0.003926836138559901,0.003926836138559901
-0.21478595827055366,-0.21478595827055366
-0.2698262641483438,-0.2698262641483438
-0.1271559975967035,-0.1271559975967035
0.003926836138559901,0.003926836138559901
-0.016351171290099633,-0.016351171290099633
0.003926836138559901,0.003926836138559901
0.1386307426289411,0.1386307426289411
0.20960376862924948,0.20960376862924948
0.08359043675115094,0.08359043675115094
0.003926836138559901,0.003926836138559901
0.11038637513902246,0.11038637513902246
0.20960376862924948,0.20960376862924948
0.10169580052673981,0.10169580052673981
0.003926836138559901,0.003926836138559901
0.07707250579193894,0.07707250579193894
0.14080338628201175,0.14080338628201175
-0.005487953024746312,-0.005487953024746312
-0.13294971400489197,-0.13294971400489197
-0.0648735462086778,-0.0648735462086778
0.003926836138559901,0.003926836138559901
-0.15974565239276348,-0.15974565239276348
-0.337902431944558,-0.337902431944558
-0.3277634282302282,-0.3277634282302282
-0.2698262641483438,-0.2698262641483438
-0.3618015121283353,-0.3618015121283353
-0.40670281429179567,-0.40670281429179567
-0.28213791151574424,-0.28213791151574424
-0.20102588180110612,-0.20102588180110612
-0.3400750755976286,-0.3400750755976286
-0.40670281429179567,-0.40670281429179567
-0.2270976056379541,-0.2270976056379541
-0.06414933165765425,-0.06414933165765425
-0.17133308520914037,-0.17133308520914037
-0.2698262641483438,-0.2698262641483438
-0.13801921586205684,-0.13801921586205684
0.003926836138559901,0.003926836138559901
-0.08732419729040801,-0.08732419729040801
-0.13294971400489197,-0.13294971400489197
0.09300522591445715,0.09300522591445715
0.34648031877270136,0.34648031877270136
0.31244223487459427,0.31244223487459427
0.20960376862924948,0.20960376862924948
0.29361265654798185,0.29361265654798185
0.41455648656891547,0.41455648656891547
0.3015790166092409,0.3015790166092409
0.14080338628201175,0.14080338628201175
0.1900499757516135,0.1900499757516135
0.34648031877270136,0.34648031877270136
0.30664851846640584,0.30664851846640584
0.14080338628201175,0.14080338628201175
0.09372944046548069,0.09372944046548069
0.20960376862924948,0.20960376862924948
0.24871135438452144,0.24871135438452144
0.14080338628201175,0.14080338628201175
0.0263774872202901,0.0263774872202901
0.0727272184857976,0.0727272184857976
0.1820836156903544,0.1820836156903544
0.20960376862924948,0.20960376862924948
0.1386307426289411,0.1386307426289411
0.14080338628201175,0.14080338628201175
0.21322484138436723,0.21322484138436723
0.20960376862924948,0.20960376862924948
0.06765771662863272,0.06765771662863272
0.003926836138559901,0.003926836138559901
0.08648729495524515,0.08648729495524515
0.14080338628201175,0.14080338628201175
0.03724070548564342,0.03724070548564342
0.003926836138559901,0.003926836138559901
0.15166660454736508,0.15166660454736508
0.2776799364254636,0.2776799364254636
0.1980163358128726,0.1980163358128726
0.14080338628201175,0.14080338628201175
0.25378085624168634,0.25378085624168634
0.34648031877270136,0.34648031877270136
0.24509028162940366,0.24509028162940366
0.20960376862924948,0.20960376862924948
0.37472468626261995,0.37472468626261995
0.4833568689161532,0.4833568689161532
0.3233054531399476,0.3233054531399476
0.20960376862924948,0.20960376862924948
0.3501013915278191,0.3501013915278191
0.4833568689161532,0.4833568689161532
0.3377897441604187,0.3377897441604187
0.20960376862924948,0.20960376862924948
0.3392381732624658,0.3392381732624658
0.4833568689161532,0.4833568689161532
0.32837495499711244,0.32837495499711244
0.14080338628201175,0.14080338628201175
0.20018897946594325,0.20018897946594325
0.34648031877270136,0.34648031877270136
0.26464407450703964,0.26464407450703964
0.14080338628201175,0.14080338628201175
0.20670691042515524,0.20670691042515524
0.34648031877270136,0.34648031877270136
0.28781894013979337,0.28781894013979337
0.14080338628201175,0.14080338628201175
0.16035717915964776,0.16035717915964776
0.34648031877270136,0.34648031877270136
0.46163043238544654,0.46163043238544654
0.4833568689161532,0.4833568689161532
0.5717110441410269,0.5717110441410269
0.8259103515502946,0.8259103515502946
1.069246440694209,1.069246440694209
1.2365400019806503,1.2365400019806503
1.5334679679003076,1.5334679679003076
2.194675852984813,2.194675852984813
2.9196146185593914,2.9196146185593914
3.289688254132428,3.289688254132428
3.4859503974598116,3.4859503974598116
4.111671769544163,4.111671769544163
4.819229385894176,4.819229385894176
4.248548319687615,4.248548319687615
1.7043826019418666,1.7043826019418666
-1.5705155977866483,-1.5705155977866483
-3.7569193273267603,-3.7569193273267603
-4.239970432859471,-4.239970432859471
-3.6540808610814155,-3.6540808610814155
-2.597451831138049,-2.597451831138049
-1.4119126111124898,-1.4119126111124898
-0.47477898208800984,-0.47477898208800984
-0.08370312453529023,-0.08370312453529023
0.003926836138559901,0.003926836138559901
0.10531687328185757,0.10531687328185757
0.20960376862924948,0.20960376862924948
0.17991097203728373,0.17991097203728373
0.20960376862924948,0.20960376862924948
0.3841394754259262,0.3841394754259262
0.4833568689161532,0.4833568689161532
0.32547809679301826,0.32547809679301826
0.20960376862924948,0.20960376862924948
0.32837495499711244,0.32837495499711244
0.4833568689161532,0.4833568689161532
0.4174533447730097,0.4174533447730097
0.34648031877270136,0.34648031877270136
0.4268681339363159,0.4268681339363159
0.4833568689161532,0.4833568689161532
0.3479287478747484,0.3479287478747484
0.2776799364254636,0.2776799364254636
0.45293985777316387,0.45293985777316387
0.620233419059605,0.620233419059605
0.5036348763448127,0.5036348763448127
0.34648031877270136,0.34648031877270136
0.4268681339363159,0.4268681339363159
0.620233419059605,0.620233419059605
0.6093702007942517,0.6093702007942517
0.4833568689161532,0.4833568689161532
0.4666999342426114,0.4666999342426114
0.5514330367123673,0.5514330367123673
0.5000138035896949,0.5000138035896949
0.34648031877270136,0.34648031877270136
0.30737273301742934,0.30737273301742934
0.4833568689161532,0.4833568689161532
0.6267513500188171,0.6267513500188171
0.5514330367123673,0.5514330367123673
0.35734353703805466,0.35734353703805466
0.34648031877270136,0.34648031877270136
0.49711694538560075,0.49711694538560075
0.5514330367123673,0.5514330367123673
0.4029690537525386,0.4029690537525386
0.34648031877270136,0.34648031877270136
0.5152223091611896,0.5152223091611896
0.6890338014068428,0.6890338014068428
0.6499262156515708,0.6499262156515708
0.620233419059605,0.620233419059605
0.7592826128561275,0.7592826128561275
0.8939865193465087,0.8939865193465087
0.8353251407136009,0.8353251407136009
0.8259103515502946,0.8259103515502946
1.0323114985920077,1.0323114985920077
1.2365400019806503,1.2365400019806503
1.1822239106538837,1.1822239106538837
1.0996634518371984,1.0996634518371984
1.2148135654499435,1.2148135654499435
1.373416552124102,1.373416552124102
1.321273104450406,1.321273104450406
1.2365400019806503,1.2365400019806503
1.318376246246312,1.318376246246312
1.4414927199203162,1.4414927199203162
1.3690712648179608,1.3690712648179608
1.2365400019806503,1.2365400019806503
1.2017777035315196,1.2017777035315196
1.1677396196334124,1.1677396196334124
0.9664079744488643,0.9664079744488643
0.757109969203057,0.757109969203057
0.6781705831414895,0.6781705831414895
0.620233419059605,0.620233419059605
0.43266185034450433,0.43266185034450433
0.2776799364254636,0.2776799364254636
0.2530566416906628,0.2530566416906628
0.20960376862924948,0.20960376862924948
0.007547908893677675,0.007547908893677675
-0.13294971400489197,-0.13294971400489197
-0.07646097902505468,-0.07646097902505468
0.003926836138559901,0.003926836138559901
-0.11339592112725598,-0.11339592112725598
-0.2698262641483438,-0.2698262641483438
-0.2930011297810976,-0.2930011297810976
-0.2698262641483438,-0.2698262641483438
-0.39583959602644236,-0.39583959602644236
-0.5435793644352476,-0.5435793644352476
-0.5276466443127293,-0.5276466443127293
-0.40670281429179567,-0.40670281429179567
-0.47260633843493915,-0.47260633843493915
-0.7492562969259371,-0.7492562969259371
-0.9701417349881213,-0.9701417349881213
-0.886132847069389,-0.886132847069389
-0.6681442672112989,-0.6681442672112989
-0.6116555322314617,-0.6116555322314617
-0.7420141514157016,-0.7420141514157016
-0.7492562969259371,-0.7492562969259371
-0.5732721610272133,-0.5732721610272133
-0.47477898208800984,-0.47477898208800984
-0.6051376012722497,-0.6051376012722497
-0.6804559145786994,-0.6804559145786994
-0.555891011802648,-0.555891011802648
-0.47477898208800984,-0.47477898208800984
-0.6377272560683097,-0.6377272560683097
-0.7492562969259371,-0.7492562969259371
-0.6102071031294146,-0.6102071031294146
-0.47477898208800984,-0.47477898208800984
-0.6123797467824853,-0.6123797467824853
-0.7492562969259371,-0.7492562969259371
-0.6312093251090977,-0.6312093251090977
-0.47477898208800984,-0.47477898208800984
-0.5863080229456373,-0.5863080229456373
-0.7492562969259371,-0.7492562969259371
-0.6913191328440528,-0.6913191328440528
-0.5435793644352476,-0.5435793644352476
-0.5660300155169777,-0.5660300155169777
-0.6116555322314617,-0.6116555322314617
-0.510265495088164,-0.510265495088164
-0.40670281429179567,-0.40670281429179567
-0.5044717786799756,-0.5044717786799756
-0.6116555322314617,-0.6116555322314617
-0.5544425827006009,-0.5544425827006009
-0.47477898208800984,-0.47477898208800984
-0.5602362991087894,-0.5602362991087894
-0.6116555322314617,-0.6116555322314617
-0.4784000548431276,-0.4784000548431276
-0.337902431944558,-0.337902431944558
-0.4016333124346308,-0.4016333124346308
-0.47477898208800984,-0.47477898208800984
-0.38352794865904194,-0.38352794865904194
-0.2698262641483438,-0.2698262641483438
-0.3335571446384166,-0.3335571446384166
-0.40670281429179567,-0.40670281429179567
-0.3400750755976286,-0.3400750755976286
-0.2698262641483438,-0.2698262641483438
-0.3762858031488064,-0.3762858031488064
-0.47477898208800984,-0.47477898208800984
-0.39583959602644236,-0.39583959602644236
-0.2698262641483438,-0.2698262641483438
-0.331384500985346,-0.331384500985346
-0.47477898208800984,-0.47477898208800984
-0.5160592114963525,-0.5160592114963525
-0.47477898208800984,-0.47477898208800984
-0.5261982152106822,-0.5261982152106822
-0.6116555322314617,-0.6116555322314617
-0.5761690192313075,-0.5761690192313075
-0.40670281429179567,-0.40670281429179567
-0.32196971182203976,-0.32196971182203976
-0.40670281429179567,-0.40670281429179567
-0.5276466443127293,-0.5276466443127293
-0.47477898208800984,-0.47477898208800984
-0.32052128271999264,-0.32052128271999264
-0.2698262641483438,-0.2698262641483438
-0.39221852327132456,-0.39221852327132456
-0.47477898208800984,-0.47477898208800984
-0.4334987526796672,-0.4334987526796672
-0.40670281429179567,-0.40670281429179567
-0.5240255715576115,-0.5240255715576115
-0.6116555322314617,-0.6116555322314617
-0.555891011802648,-0.555891011802648
-0.47477898208800984,-0.47477898208800984
-0.5196802842514703,-0.5196802842514703
-0.5435793644352476,-0.5435793644352476
-0.46174312016958585,-0.46174312016958585
-0.40670281429179567,-0.40670281429179567
-0.48274534214926895,-0.48274534214926895
-0.47477898208800984,-0.47477898208800984
-0.3038643480464509,-0.3038643480464509
-0.20102588180110612,-0.20102588180110612
-0.3292118573322753,-0.3292118573322753
-0.40670281429179567,-0.40670281429179567
-0.2618599040870847,-0.2618599040870847
-0.13294971400489197,-0.13294971400489197
-0.26258411863810827,-0.26258411863810827
-0.40670281429179567,-0.40670281429179567
-0.350938293862982,-0.350938293862982
-0.2698262641483438,-0.2698262641483438
-0.3864248068631361,-0.3864248068631361
-0.47477898208800984,-0.47477898208800984
-0.3465930065568406,-0.3465930065568406
-0.20102588180110612,-0.20102588180110612
-0.2893800570259798,-0.2893800570259798
-0.40670281429179567,-0.40670281429179567
-0.34731722110786417,-0.34731722110786417
-0.2698262641483438,-0.2698262641483438
-0.41973867621021965,-0.41973867621021965
-0.6116555322314617,-0.6116555322314617
-0.6036891721702026,-0.6036891721702026
-0.47477898208800984,-0.47477898208800984
-0.49578120406769294,-0.49578120406769294
-0.6116555322314617,-0.6116555322314617
-0.6348303978642155,-0.6348303978642155
-0.5435793644352476,-0.5435793644352476
-0.5341645752719413,-0.5341645752719413
-0.6116555322314617,-0.6116555322314617
-0.6065860303742968,-0.6065860303742968
-0.40670281429179567,-0.40670281429179567
-0.22564917653590696,-0.22564917653590696
-0.2698262641483438,-0.2698262641483438
-0.443637756393997,-0.443637756393997
-0.40670281429179567,-0.40670281429179567
-0.15105507778048083,-0.15105507778048083
0.003926836138559901,0.003926836138559901
-0.11194749202520887,-0.11194749202520887
-0.20102588180110612,-0.20102588180110612
-0.09094527004552579,-0.09094527004552579
0.003926836138559901,0.003926836138559901
-0.12353492484158575,-0.12353492484158575
-0.20102588180110612,-0.20102588180110612
-0.03735339326978272,-0.03735339326978272
0.14080338628201175,0.14080338628201175
0.03506806183257276,0.03506806183257276
-0.13294971400489197,-0.13294971400489197
-0.10760220471906753,-0.10760220471906753
0.003926836138559901,0.003926836138559901
-0.04242289512694761,-0.04242289512694761
-0.13294971400489197,-0.13294971400489197
-0.08515155363733734,-0.08515155363733734
0.003926836138559901,0.003926836138559901
-0.058355615249465816,-0.058355615249465816
-0.13294971400489197,-0.13294971400489197
-0.004039523922699202,-0.004039523922699202
0.2776799364254636,0.2776799364254636
0.4333860648955279,0.4333860648955279
0.4833568689161532,0.4833568689161532
0.7346593181213267,0.7346593181213267
1.373416552124102,1.373416552124102
2.082422597576162,2.082422597576162
2.537229335618955,2.537229335618955
2.894991323824591,2.894991323824591
3.5641655689703553,3.5641655689703553
4.190611155605731,4.190611155605731
3.7010421191138074,3.7010421191138074
1.5008783131042478,1.5008783131042478
-1.5017152154394107,-1.5017152154394107
-3.757643541877784,-3.757643541877784
-4.445647365350161,-4.445647365350161
-3.898865379327377,-3.898865379327377
-2.802404549077715,-2.802404549077715
-1.7023226460729353,-1.7023226460729353
-0.886132847069389,-0.886132847069389
-0.4653641929247036,-0.4653641929247036
-0.2698262641483438,-0.2698262641483438
-0.12643178304567998,-0.12643178304567998
0.003926836138559901,0.003926836138559901
0.03506806183257276,0.03506806183257276
0.003926836138559901,0.003926836138559901
-0.059804044351512924,-0.059804044351512924
-0.13294971400489197,-0.13294971400489197
-0.199577452699059,-0.199577452699059
-0.13294971400489197,-0.13294971400489197
0.02927434542438432,0.02927434542438432
0.14080338628201175,0.14080338628201175
0.08359043675115094,0.08359043675115094
0.003926836138559901,0.003926836138559901
-0.012005883983958306,-0.012005883983958306
0.003926836138559901,0.003926836138559901
0.0024784070365127912,0.0024784070365127912
0.0727272184857976,0.0727272184857976
0.17773832838421305,0.17773832838421305
0.14080338628201175,0.14080338628201175
-0.06559776075970136,-0.06559776075970136
-0.13294971400489197,-0.13294971400489197
0.06403664387351495,0.06403664387351495
0.2776799364254636,0.2776799364254636
0.24291763797633298,0.24291763797633298
0.14080338628201175,0.14080338628201175
0.19584369215980194,0.19584369215980194
0.34648031877270136,0.34648031877270136
0.3906574063851382,0.3906574063851382
0.41455648656891547,0.41455648656891547
0.5036348763448127,0.5036348763448127
0.5514330367123673,0.5514330367123673
0.41672913022198615,0.41672913022198615
0.2776799364254636,0.2776799364254636
0.2813010091805814,0.2813010091805814
0.34648031877270136,0.34648031877270136
0.3233054531399476,0.3233054531399476
0.34648031877270136,0.34648031877270136
0.4884263707733181,0.4884263707733181
0.620233419059605,0.620233419059605
0.6035764843860633,0.6035764843860633
0.620233419059605,0.620233419059605
0.7665247583663631,0.7665247583663631
0.8939865193465087,0.8939865193465087
0.8476367880810013,0.8476367880810013
0.8259103515502946,0.8259103515502946
0.9591658289386287,0.9591658289386287
1.0996634518371984,1.0996634518371984
1.0612800806329499,1.0612800806329499
1.0308630694899605,1.0308630694899605
1.1720849069395538,1.1720849069395538
1.373416552124102,1.373416552124102
1.425559999797798,1.425559999797798
1.4414927199203162,1.4414927199203162
1.5436069716146374,1.5436069716146374
1.6471696524110058,1.6471696524110058
1.5906809174311685,1.5906809174311685
1.5102931022675539,1.5102931022675539
1.5501249025738495,1.5501249025738495
1.6471696524110058,1.6471696524110058
1.597923062941404,1.597923062941404
1.4414927199203162,1.4414927199203162
1.3082372425319821,1.3082372425319821
1.2365400019806503,1.2365400019806503
1.0989392372861748,1.0989392372861748
0.8939865193465087,0.8939865193465087
0.7056907360803846,0.7056907360803846
0.620233419059605,0.620233419059605
0.5463635348552025,0.5463635348552025
0.41455648656891547,0.41455648656891547
0.25595349989475696,0.25595349989475696
0.20960376862924948,0.20960376862924948
0.21757012869050857,0.21757012869050857
0.14080338628201175,0.14080338628201175
-0.03083546231057073,-0.03083546231057073
-0.06414933165765425,-0.06414933165765425
0.0488281383020203,0.0488281383020203
0.0727272184857976,0.0727272184857976
-0.1271559975967035,-0.1271559975967035
-0.2698262641483438,-0.2698262641483438
-0.2075438127603181,-0.2075438127603181
-0.13294971400489197,-0.13294971400489197
-0.23361553659716608,-0.23361553659716608
-0.2698262641483438,-0.2698262641483438
-0.11049906292316176,-0.11049906292316176
0.003926836138559901,0.003926836138559901
-0.14453714682126884,-0.14453714682126884
-0.2698262641483438,-0.2698262641483438
-0.15250350688252795,-0.15250350688252795
0.003926836138559901,0.003926836138559901
-0.04314710967797116,-0.04314710967797116
-0.06414933165765425,-0.06414933165765425
0.10169580052673981,0.10169580052673981
0.20960376862924948,0.20960376862924948
0.028550130873360766,0.028550130873360766
-0.13294971400489197,-0.13294971400489197
-0.02214488769828807,-0.02214488769828807
0.14080338628201175,0.14080338628201175
0.05607028381225585,0.05607028381225585
-0.06414933165765425,-0.06414933165765425
0.017686912608007442,0.017686912608007442
0.14080338628201175,0.14080338628201175
0.025653272669266546,0.025653272669266546
-0.13294971400489197,-0.13294971400489197
-0.0409744660249005,-0.0409744660249005
0.20960376862924948,0.20960376862924948
0.23205441971097968,0.23205441971097968
0.003926836138559901,0.003926836138559901
-0.15250350688252795,-0.15250350688252795
0.003926836138559901,0.003926836138559901
0.26609250360908676,0.26609250360908676
0.34648031877270136,0.34648031877270136
0.216845914139485,0.216845914139485
0.14080338628201175,0.14080338628201175
0.18715311754751926,0.18715311754751926
0.20960376862924948,0.20960376862924948
0.12414645160847,0.12414645160847
0.14080338628201175,0.14080338628201175
0.31316644942561783,0.31316644942561783
0.41455648656891547,0.41455648656891547
0.2747830782213694,0.2747830782213694
0.14080338628201175,0.14080338628201175
0.1965679067108255,0.1965679067108255
0.2776799364254636,0.2776799364254636
0.16977196832295396,0.16977196832295396
0.0727272184857976,0.0727272184857976
0.17918675748626017,0.17918675748626017
0.34648031877270136,0.34648031877270136
0.3146148785276649,0.3146148785276649
0.20960376862924948,0.20960376862924948
0.21612169958846147,0.21612169958846147
0.2776799364254636,0.2776799364254636
0.21757012869050857,0.21757012869050857
0.14080338628201175,0.14080338628201175
0.1610813937106713,0.1610813937106713
0.20960376862924948,0.20960376862924948
0.1610813937106713,0.1610813937106713
0.14080338628201175,0.14080338628201175
0.20018897946594325,0.20018897946594325
0.20960376862924948,0.20960376862924948
0.0727272184857976,0.0727272184857976
0.003926836138559901,0.003926836138559901
0.09300522591445715,0.09300522591445715
0.14080338628201175,0.14080338628201175
-0.03373232051466495,-0.03373232051466495
-0.20102588180110612,-0.20102588180110612
-0.15322772143355148,-0.15322772143355148
0.003926836138559901,0.003926836138559901
0.032895418179502096,0.032895418179502096
0.003926836138559901,0.003926836138559901
0.03361963273052565,0.03361963273052565
0.0727272184857976,0.0727272184857976
0.008996337995724784,0.008996337995724784
0.003926836138559901,0.003926836138559901
0.1980163358128726,0.1980163358128726
0.4833568689161532,0.4833568689161532
0.5840226915084273,0.5840226915084273
0.4833568689161532,0.4833568689161532
0.3370655296093951,0.3370655296093951
0.2776799364254636,0.2776799364254636
0.24146920887428588,0.24146920887428588
0.20960376862924948,0.20960376862924948
0.223363845098697,0.223363845098697
0.34648031877270136,0.34648031877270136
0.45221564322214036,0.45221564322214036
0.41455648656891547,0.41455648656891547
0.25957457264987477,0.25957457264987477
0.20960376862924948,0.20960376862924948
0.29216422744593473,0.29216422744593473
0.34648031877270136,0.34648031877270136
0.2552292853437334,0.2552292853437334
0.20960376862924948,0.20960376862924948
0.2849220819356992,0.2849220819356992
0.34648031877270136,0.34648031877270136
0.25595349989475696,0.25595349989475696
0.20960376862924948,0.20960376862924948
0.2986821584051467,0.2986821584051467
0.34648031877270136,0.34648031877270136
0.20018897946594325,0.20018897946594325
0.0727272184857976,0.0727272184857976
0.12487066615949356,0.12487066615949356
0.20960376862924948,0.20960376862924948
0.16687511011885975,0.16687511011885975
0.20960376862924948,0.20960376862924948
0.4848052980182003,0.4848052980182003
0.8259103515502946,0.8259103515502946
1.0308630694899605,1.0308630694899605
1.3046161697768643,1.3046161697768643
1.8151874282484706,1.8151874282484706
2.4003527854755027,2.4003527854755027
2.814603508660976,2.814603508660976
3.221612086336214,3.221612086336214
3.76477299960388,3.76477299960388
4.111671769544163,4.111671769544163
3.564889783521379,3.564889783521379
1.8521223703506717,1.8521223703506717
-0.6203461068437444,-0.6203461068437444
-2.939281099221167,-2.939281099221167
-4.239970432859471,-4.239970432859471
-4.10309388271602,-4.10309388271602
-2.9153820190373896,-2.9153820190373896
-1.5017152154394107,-1.5017152154394107
-0.5196802842514703,-0.5196802842514703
0.003926836138559901,0.003926836138559901
0.29361265654798185,0.29361265654798185
0.4833568689161532,0.4833568689161532
0.5217402401204015,0.5217402401204015
0.4833568689161532,0.4833568689161532
0.49711694538560075,0.49711694538560075
0.620233419059605,0.620233419059605
0.6702042230802303,0.6702042230802303
0.5514330367123673,0.5514330367123673
0.3797941881197848,0.3797941881197848
0.41455648656891547,0.41455648656891547
0.5804016187533095,0.5804016187533095
0.620233419059605,0.620233419059605
0.4435250686098577,0.4435250686098577
0.34648031877270136,0.34648031877270136
0.43266185034450433,0.43266185034450433
0.4833568689161532,0.4833568689161532
0.36024039524214885,0.36024039524214885
0.34648031877270136,0.34648031877270136
0.5963343388758278,0.5963343388758278
0.8259103515502946,0.8259103515502946
0.731038245366209,0.731038245366209
0.5514330367123673,0.5514330367123673
0.5688141859369327,0.5688141859369327
0.6890338014068428,0.6890338014068428
0.6615136484679477,0.6615136484679477
0.620233419059605,0.620233419059605
0.6970001614681018,0.6970001614681018
0.757109969203057,0.757109969203057
0.633269280978029,0.633269280978029
0.5514330367123673,0.5514330367123673
0.6549957175087356,0.6549957175087356
0.757109969203057,0.757109969203057
0.6607894339169241,0.6607894339169241
0.620233419059605,0.620233419059605
0.8107018459788,0.8107018459788
1.0308630694899605,1.0308630694899605
1.015654563918466,1.015654563918466
0.9627869016937465,0.9627869016937465
1.074315942551374,1.074315942551374
1.2365400019806503,1.2365400019806503
1.2343673583275796,1.2343673583275796
1.2365400019806503,1.2365400019806503
1.3944187741037852,1.3944187741037852
1.5783692700637681,1.5783692700637681
1.5646091935943205,1.5646091935943205
1.5102931022675539,1.5102931022675539
1.6066136375536868,1.6066136375536868
1.7840462025544577,1.7840462025544577
1.797806279023905,1.797806279023905
1.71524582020722,1.71524582020722
1.7384206858399738,1.7384206858399738
1.9209227526979096,1.9209227526979096
2.057075088290338,2.057075088290338
2.0577993028413615,2.0577993028413615
1.9875504913920765,1.9875504913920765
1.9889989204941236,1.9889989204941236
2.0382455099637253,2.0382455099637253
2.0577993028413615,2.0577993028413615
1.973790414922629,1.973790414922629
1.8521223703506717,1.8521223703506717
1.7355238276358795,1.7355238276358795
1.6471696524110058,1.6471696524110058
1.5385374697574725,1.5385374697574725
1.4414927199203162,1.4414927199203162
1.3429995409811128,1.3429995409811128
1.2365400019806503,1.2365400019806503
1.088800233571845,1.088800233571845
0.9627869016937465,0.9627869016937465
0.8374977843666715,0.8374977843666715
0.6890338014068428,0.6890338014068428
0.5253613128755193,0.5253613128755193
0.4833568689161532,0.4833568689161532
0.5202918110183545,0.5202918110183545
0.4833568689161532,0.4833568689161532
0.30664851846640584,0.30664851846640584
0.20960376862924948,0.20960376862924948
0.27261043456829875,0.27261043456829875
0.34648031877270136,0.34648031877270136
0.2697135763642045,0.2697135763642045
0.20960376862924948,0.20960376862924948
0.27261043456829875,0.27261043456829875
0.34648031877270136,0.34648031877270136
0.27261043456829875,0.27261043456829875
0.20960376862924948,0.20960376862924948
0.27116200546625163,0.27116200546625163
0.34648031877270136,0.34648031877270136
0.2762315073234165,0.2762315073234165
0.20960376862924948,0.20960376862924948
0.24653871073145076,0.24653871073145076
0.2776799364254636,0.2776799364254636
0.18063518658830727,0.18063518658830727
0.14080338628201175,0.14080338628201175
0.2349512779150739,0.2349512779150739
0.2776799364254636,0.2776799364254636
0.11907694975130512,0.11907694975130512
0.003926836138559901,0.003926836138559901
0.09300522591445715,0.09300522591445715
0.20960376862924948,0.20960376862924948
0.12197380795539933,0.12197380795539933
0.003926836138559901,0.003926836138559901
0.042310207342808305,0.042310207342808305
0.14080338628201175,0.14080338628201175
0.08938415315933937,0.08938415315933937
0.003926836138559901,0.003926836138559901
0.04375863644485541,0.04375863644485541
0.14080338628201175,0.14080338628201175
0.07852093489398605,0.07852093489398605
-0.06414933165765425,-0.06414933165765425
-0.06559776075970136,-0.06559776075970136
0.14080338628201175,0.14080338628201175
0.30664851846640584,0.30664851846640584
0.2776799364254636,0.2776799364254636
0.1625298228127184,0.1625298228127184
0.20960376862924948,0.20960376862924948
0.3689309698544315,0.3689309698544315
0.41455648656891547,0.41455648656891547
0.27261043456829875,0.27261043456829875
0.20960376862924948,0.20960376862924948
0.34213503146656,0.34213503146656
0.4833568689161532,0.4833568689161532
0.4304892066914337,0.4304892066914337
0.34648031877270136,0.34648031877270136
0.37689732991569064,0.37689732991569064
0.41455648656891547,0.41455648656891547
0.3023032311602645,0.3023032311602645
0.20960376862924948,0.20960376862924948
0.2675409327111339,0.2675409327111339
0.34648031877270136,0.34648031877270136
0.27261043456829875,0.27261043456829875
0.20960376862924948,0.20960376862924948
0.2798525800785343,0.2798525800785343
0.34648031877270136,0.34648031877270136
0.24002077977223876,0.24002077977223876
0.14080338628201175,0.14080338628201175
0.1770141138331895,0.1770141138331895
0.20960376862924948,0.20960376862924948
0.06620928752658561,0.06620928752658561
-0.06414933165765425,-0.06414933165765425
-0.04242289512694761,-0.04242289512694761
0.003926836138559901,0.003926836138559901
-0.09022105549450223,-0.09022105549450223
-0.13294971400489197,-0.13294971400489197
-0.0018668802696285376,-0.0018668802696285376
0.14080338628201175,0.14080338628201175
0.08141779309808027,0.08141779309808027
0.003926836138559901,0.003926836138559901
0.07779672034296249,0.07779672034296249
0.20960376862924948,0.20960376862924948
0.20018897946594325,0.20018897946594325
0.14080338628201175,0.14080338628201175
0.20163740856799037,0.20163740856799037
0.34648031877270136,0.34648031877270136
0.3855879045279733,0.3855879045279733
0.34648031877270136,0.34648031877270136
0.41528070111993903,0.41528070111993903
0.6890338014068428,0.6890338014068428
0.9584416143876051,0.9584416143876051
1.0996634518371984,1.0996634518371984
1.3082372425319821,1.3082372425319821
1.8521223703506717,1.8521223703506717
2.4510478040471515,2.4510478040471515
2.6741058857624065,2.6741058857624065
2.748699984517833,2.748699984517833
3.358488636479666,3.358488636479666
4.1297771333197515,4.1297771333197515
3.5641655689703553,3.5641655689703553
0.9301972468976866,0.9301972468976866
-2.3917748986473595,-2.3917748986473595
-4.489824452962598,-4.489824452962598
-4.856277015780517,-4.856277015780517
-4.24793679292073,-4.24793679292073
-3.2130341995080705,-3.2130341995080705
-1.982593677319051,-1.982593677319051
-0.9542090148656032,-0.9542090148656032
-0.5117139241902111,-0.5117139241902111
-0.40670281429179567,-0.40670281429179567
-0.26910204959732026,-0.26910204959732026
-0.13294971400489197,-0.13294971400489197
-0.18436894712756435,-0.18436894712756435
-0.20102588180110612,-0.20102588180110612
-0.02214488769828807,-0.02214488769828807
0.14080338628201175,0.14080338628201175
0.05969135656737362,0.05969135656737362
0.003926836138559901,0.003926836138559901
0.17122039742500106,0.17122039742500106
0.34648031877270136,0.34648031877270136
0.25595349989475696,0.25595349989475696
0.14080338628201175,0.14080338628201175
0.24219342342530945,0.24219342342530945
0.41455648656891547,0.41455648656891547
0.40586591195663285,0.40586591195663285
0.34648031877270136,0.34648031877270136
0.41528070111993903,0.41528070111993903
0.4833568689161532,0.4833568689161532
0.35372246428293685,0.35372246428293685
0.20960376862924948,0.20960376862924948
0.24074499432326232,0.24074499432326232
0.34648031877270136,0.34648031877270136
0.3023032311602645,0.3023032311602645
0.20960376862924948,0.20960376862924948
0.1994647649149197,0.1994647649149197
0.20960376862924948,0.20960376862924948
0.09662629866957492,0.09662629866957492
0.003926836138559901,0.003926836138559901
0.06548507297556207,0.06548507297556207
0.20960376862924948,0.20960376862924948
0.23929656522121523,0.23929656522121523
0.20960376862924948,0.20960376862924948
0.23639970701712099,0.23639970701712099
0.34648031877270136,0.34648031877270136
0.4225228466301746,0.4225228466301746
0.4833568689161532,0.4833568689161532
0.5673657568348855,0.5673657568348855
0.6890338014068428,0.6890338014068428
0.7629036856112453,0.7629036856112453
0.8259103515502946,0.8259103515502946
0.9475783961222518,0.9475783961222518
1.1677396196334124,1.1677396196334124
1.3241699626545003,1.3241699626545003
1.3046161697768643,1.3046161697768643
1.1901902707151426,1.1901902707151426
1.2365400019806503,1.2365400019806503
1.4393200762672456,1.4393200762672456
1.5783692700637681,1.5783692700637681
1.5305711096962136,1.5305711096962136
1.5102931022675539,1.5102931022675539
1.6261674304313227,1.6261674304313227
1.71524582020722,1.71524582020722
1.6131315685128986,1.6131315685128986
1.5102931022675539,1.5102931022675539
1.5450554007166846,1.5450554007166846
1.5783692700637681,1.5783692700637681
1.4212147124916568,1.4212147124916568
1.2365400019806503,1.2365400019806503
1.1662911905313653,1.1662911905313653
1.0996634518371984,1.0996634518371984
0.8802264428770612,0.8802264428770612
0.6890338014068428,0.6890338014068428
0.6528230738556651,0.6528230738556651
0.620233419059605,0.620233419059605
0.39138162093616174,0.39138162093616174
0.14080338628201175,0.14080338628201175
0.037964920036666974,0.037964920036666974
0.003926836138559901,0.003926836138559901
-0.10253270286190266,-0.10253270286190266
-0.13294971400489197,-0.13294971400489197
-0.03445653506568851,-0.03445653506568851
0.003926836138559901,0.003926836138559901
-0.15829722329071638,-0.15829722329071638
-0.2698262641483438,-0.2698262641483438
-0.19378373629087056,-0.19378373629087056
-0.13294971400489197,-0.13294971400489197
-0.2843105551688149,-0.2843105551688149
-0.40670281429179567,-0.40670281429179567
-0.3190728536179456,-0.3190728536179456
-0.20102588180110612,-0.20102588180110612
-0.29444955888314467,-0.29444955888314467
-0.40670281429179567,-0.40670281429179567
-0.33210871553636956,-0.33210871553636956
-0.20102588180110612,-0.20102588180110612
-0.2893800570259798,-0.2893800570259798
-0.47477898208800984,-0.47477898208800984
-0.4950569895166694,-0.4950569895166694
-0.337902431944558,-0.337902431944558
-0.3016917043933802,-0.3016917043933802
-0.47477898208800984,-0.47477898208800984
-0.6558326198438985,-0.6558326198438985
-0.6116555322314617,-0.6116555322314617
-0.46970948023084497,-0.46970948023084497
-0.47477898208800984,-0.47477898208800984
-0.6587294780479928,-0.6587294780479928
-0.7492562969259371,-0.7492562969259371
-0.6688684817623225,-0.6688684817623225
-0.6116555322314617,-0.6116555322314617
-0.7130455693747594,-0.7130455693747594
-0.7492562969259371,-0.7492562969259371
-0.6044133867212261,-0.6044133867212261
-0.47477898208800984,-0.47477898208800984
-0.5312677170678471,-0.5312677170678471
-0.5435793644352476,-0.5435793644352476
-0.38135530500597126,-0.38135530500597126
-0.2698262641483438,-0.2698262641483438
-0.4117723161489606,-0.4117723161489606
-0.5435793644352476,-0.5435793644352476
-0.47260633843493915,-0.47260633843493915
-0.40670281429179567,-0.40670281429179567
-0.5645815864149306,-0.5645815864149306
-0.6804559145786994,-0.6804559145786994
-0.5515457244965066,-0.5515457244965066
-0.40670281429179567,-0.40670281429179567
-0.5080928514350933,-0.5080928514350933
-0.6116555322314617,-0.6116555322314617
-0.48926327310848094,-0.48926327310848094
-0.337902431944558,-0.337902431944558
-0.4269808217204552,-0.4269808217204552
-0.5435793644352476,-0.5435793644352476
-0.4624673347206094,-0.4624673347206094
-0.337902431944558,-0.337902431944558
-0.4052543851897486,-0.4052543851897486
-0.47477898208800984,-0.47477898208800984
-0.3741131594957357,-0.3741131594957357
-0.2698262641483438,-0.2698262641483438
-0.37338894494471214,-0.37338894494471214
-0.47477898208800984,-0.47477898208800984
-0.3864248068631361,-0.3864248068631361
-0.2698262641483438,-0.2698262641483438
-0.35818043937321753,-0.35818043937321753
-0.47477898208800984,-0.47477898208800984
-0.4081512433938428,-0.4081512433938428
-0.2698262641483438,-0.2698262641483438
-0.324866570026134,-0.324866570026134
-0.47477898208800984,-0.47477898208800984
-0.4668126220267507,-0.4668126220267507
-0.2698262641483438,-0.2698262641483438
-0.16409093969890481,-0.16409093969890481
-0.2698262641483438,-0.2698262641483438
-0.4284292508225023,-0.4284292508225023
-0.40670281429179567,-0.40670281429179567
-0.2814136969647207,-0.2814136969647207
-0.2698262641483438,-0.2698262641483438
-0.4320503235776201,-0.4320503235776201
-0.5435793644352476,-0.5435793644352476
-0.5117139241902111,-0.5117139241902111
-0.47477898208800984,-0.47477898208800984
-0.5609605136598128,-0.5609605136598128
-0.6116555322314617,-0.6116555322314617
-0.555891011802648,-0.555891011802648
-0.5435793644352476,-0.5435793644352476
-0.6855254164358643,-0.6855254164358643
-0.7492562969259371,-0.7492562969259371
-0.6094828885783911,-0.6094828885783911
-0.47477898208800984,-0.47477898208800984
-0.5631331573128835,-0.5631331573128835
-0.6804559145786994,-0.6804559145786994
-0.6543841907418514,-0.6543841907418514
-0.6116555322314617,-0.6116555322314617
-0.7115971402727123,-0.7115971402727123
-0.7492562969259371,-0.7492562969259371
-0.6015165285171319,-0.6015165285171319
-0.47477898208800984,-0.47477898208800984
-0.5602362991087894,-0.5602362991087894
-0.6116555322314617,-0.6116555322314617
-0.4465346145980912,-0.4465346145980912
-0.2698262641483438,-0.2698262641483438
-0.34152350469967574,-0.34152350469967574
-0.47477898208800984,-0.47477898208800984
-0.45957047651651517,-0.45957047651651517
-0.40670281429179567,-0.40670281429179567
-0.516783426047376,-0.516783426047376
-0.6116555322314617,-0.6116555322314617
-0.5298192879658,-0.5298192879658
-0.40670281429179567,-0.40670281429179567
-0.48129691304722183,-0.48129691304722183
-0.6116555322314617,-0.6116555322314617
-0.6181734631906737,-0.6181734631906737
-0.5435793644352476,-0.5435793644352476
-0.5624089427618599,-0.5624089427618599
-0.6116555322314617,-0.6116555322314617
-0.5653058009659542,-0.5653058009659542
-0.47477898208800984,-0.47477898208800984
-0.5044717786799756,-0.5044717786799756
-0.6116555322314617,-0.6116555322314617
-0.6123797467824853,-0.6123797467824853
-0.40670281429179567,-0.40670281429179567
-0.1821963034744937,-0.1821963034744937
-0.06414933165765425,-0.06414933165765425
0.12776752436358776,0.12776752436358776
0.6890338014068428,0.6890338014068428
1.4262842143488215,1.4262842143488215
1.9209227526979096,1.9209227526979096
2.2381287260462264,2.2381287260462264
2.8790586037020724,2.8790586037020724
3.5634413544193317,3.5634413544193317
3.1528117039889763,3.1528117039889763
1.1286320338781406,1.1286320338781406
-1.5017152154394107,-1.5017152154394107
-3.564278256754495,-3.564278256754495
-4.856277015780517,-4.856277015780517
-5.487792104273057,-5.487792104273057
-4.9931535659239685,-4.9931535659239685
-3.319493738508533,-3.319493738508533
-1.5705155977866483,-1.5705155977866483
-0.8738211997019886,-0.8738211997019886
-0.9542090148656032,-0.9542090148656032
-0.9368278656410378,-0.9368278656410378
-0.6804559145786994,-0.6804559145786994
-0.6297608960070505,-0.6297608960070505
-0.7492562969259371,-0.7492562969259371
-0.7311509331503483,-0.7311509331503483
-0.6116555322314617,-0.6116555322314617
-0.6558326198438985,-0.6558326198438985
-0.7492562969259371,-0.7492562969259371
-0.7224603585380656,-0.7224603585380656
-0.6804559145786994,-0.6804559145786994
-0.8035723882527037,-0.8035723882527037
-0.886132847069389,-0.886132847069389
-0.767361660701526,-0.767361660701526
-0.6116555322314617,-0.6116555322314617
-0.6522115470887808,-0.6522115470887808
-0.7492562969259371,-0.7492562969259371
-0.7065276384155473,-0.7065276384155473
-0.6116555322314617,-0.6116555322314617
-0.6572810489459456,-0.6572810489459456
-0.7492562969259371,-0.7492562969259371
-0.7297025040483012,-0.7297025040483012
-0.6116555322314617,-0.6116555322314617
-0.5370614334760355,-0.5370614334760355
-0.47477898208800984,-0.47477898208800984
-0.39221852327132456,-0.39221852327132456
-0.337902431944558,-0.337902431944558
-0.38352794865904194,-0.38352794865904194
-0.40670281429179567,-0.40670281429179567
-0.3407992901486522,-0.3407992901486522
-0.2698262641483438,-0.2698262641483438
-0.34442036290377,-0.34442036290377
-0.47477898208800984,-0.47477898208800984
-0.4899874876595045,-0.4899874876595045
-0.337902431944558,-0.337902431944558
-0.22275231833181275,-0.22275231833181275
-0.2698262641483438,-0.2698262641483438
-0.3842521632100655,-0.3842521632100655
-0.337902431944558,-0.337902431944558
-0.18147208892347014,-0.18147208892347014
-0.13294971400489197,-0.13294971400489197
-0.25027247127070784,-0.25027247127070784
-0.2698262641483438,-0.2698262641483438
-0.11267170657623242,-0.11267170657623242
0.003926836138559901,0.003926836138559901
-0.06632197531072492,-0.06632197531072492
-0.06414933165765425,-0.06414933165765425
0.15094238999634152,0.15094238999634152
0.34648031877270136,0.34648031877270136
0.28999158379286405,0.28999158379286405
0.20960376862924948,0.20960376862924948
0.3059243039153823,0.3059243039153823
0.41455648656891547,0.41455648656891547
0.33344445685427737,0.33344445685427737
0.2776799364254636,0.2776799364254636
0.4174533447730097,0.4174533447730097
0.5514330367123673,0.5514330367123673
0.4732178652018234,0.4732178652018234
0.41455648656891547,0.41455648656891547
0.5434666766511083,0.5434666766511083
0.620233419059605,0.620233419059605
0.4015206246504915,0.4015206246504915
0.14080338628201175,0.14080338628201175
0.07055457483272694,0.07055457483272694
0.003926836138559901,0.003926836138559901
-0.3016917043933802,-0.3016917043933802
-0.6116555322314617,-0.6116555322314617
-0.6695926963133461,-0.6695926963133461
-0.6116555322314617,-0.6116555322314617
-0.7202877148849949,-0.7202877148849949
-0.886132847069389,-0.886132847069389
-0.9187225018654489,-0.9187225018654489
-0.886132847069389,-0.886132847069389
-0.9766596659473333,-0.9766596659473333
-1.091085565009055,-1.091085565009055
-1.0997761396213377,-1.0997761396213377
-1.091085565009055,-1.091085565009055
-1.2641728427036847,-1.2641728427036847
-1.5017152154394107,-1.5017152154394107
-1.5538586631131066,-1.5538586631131066
-1.3648386652959588,-1.3648386652959588
-1.2185473259892006,-1.2185473259892006
-1.2967624974997445,-1.2967624974997445
-1.4843340662148452,-1.4843340662148452
-1.5017152154394107,-1.5017152154394107
-1.3800471708674533,-1.3800471708674533
-1.3648386652959588,-1.3648386652959588
-1.546616517602871,-1.546616517602871
-1.6385917655828623,-1.6385917655828623
-1.4756434916025627,-1.4756434916025627
-1.2279621151525069,-1.2279621151525069
-1.1323657944173977,-1.1323657944173977
-1.091085565009055,-1.091085565009055
-0.9991103170290635,-0.9991103170290635
-0.9542090148656032,-0.9542090148656032
-1.0541506229068538,-1.0541506229068538
-1.091085565009055,-1.091085565009055
-0.9672448767840272,-0.9672448767840272
-0.886132847069389,-0.886132847069389
-1.0092493207433932,-1.0092493207433932
-1.091085565009055,-1.091085565009055
-0.9607269458248151,-0.9607269458248151
-0.8173324647221513,-0.8173324647221513
-0.8832359888652948,-0.8832359888652948
-0.9542090148656032,-0.9542090148656032
-0.8528189777223054,-0.8528189777223054
-0.7492562969259371,-0.7492562969259371
-0.8332651848446695,-0.8332651848446695
-0.886132847069389,-0.886132847069389
-0.7427383659667252,-0.7427383659667252
-0.6116555322314617,-0.6116555322314617
-0.7137697839257829,-0.7137697839257829
-0.8173324647221513,-0.8173324647221513
-0.7239087876401127,-0.7239087876401127
-0.6116555322314617,-0.6116555322314617
-0.7072518529665709,-0.7072518529665709
-0.8173324647221513,-0.8173324647221513
-0.7782248789668793,-0.7782248789668793
-0.7492562969259371,-0.7492562969259371
-0.8759938433550593,-0.8759938433550593
-0.886132847069389,-0.886132847069389
-0.6116555322314617,-0.6116555322314617
-0.337902431944558,-0.337902431944558
-0.4038059560877015,-0.4038059560877015
-0.6116555322314617,-0.6116555322314617
-0.6275882523539799,-0.6275882523539799
-0.47477898208800984,-0.47477898208800984
-0.4494314728021854,-0.4494314728021854
-0.5435793644352476,-0.5435793644352476
-0.5327161461698943,-0.5327161461698943
-0.337902431944558,-0.337902431944558
-0.20030166725008255,-0.20030166725008255
-0.2698262641483438,-0.2698262641483438
-0.4400166836388792,-0.4400166836388792
-0.47477898208800984,-0.47477898208800984
-0.40670281429179567,-0.40670281429179567
-0.40670281429179567,-0.40670281429179567
-0.5030233495779285,-0.5030233495779285
-0.47477898208800984,-0.47477898208800984
-0.31400335176078065,-0.31400335176078065
-0.2698262641483438,-0.2698262641483438
-0.4668126220267507,-0.4668126220267507
-0.6116555322314617,-0.6116555322314617
-0.5421309353332004,-0.5421309353332004
-0.47477898208800984,-0.47477898208800984
-0.6261398232519328,-0.6261398232519328
-0.7492562969259371,-0.7492562969259371
-0.6377272560683097,-0.6377272560683097
-0.47477898208800984,-0.47477898208800984
-0.5073686368840699,-0.5073686368840699
-0.5435793644352476,-0.5435793644352476
-0.4095996724958899,-0.4095996724958899
-0.2698262641483438,-0.2698262641483438
-0.3234181409240869,-0.3234181409240869
-0.337902431944558,-0.337902431944558
-0.15684879418866926,-0.15684879418866926
0.003926836138559901,0.003926836138559901
-0.11339592112725598,-0.11339592112725598
-0.2698262641483438,-0.2698262641483438
-0.2350639656992132,-0.2350639656992132
-0.13294971400489197,-0.13294971400489197
-0.19088687808677635,-0.19088687808677635
-0.2698262641483438,-0.2698262641483438
-0.20392274000520033,-0.20392274000520033
-0.13294971400489197,-0.13294971400489197
-0.2394092530053545,-0.2394092530053545
-0.337902431944558,-0.337902431944558
-0.1887142344337057,-0.1887142344337057
0.14080338628201175,0.14080338628201175
0.3587919661401018,0.3587919661401018
0.4833568689161532,0.4833568689161532
0.7969417695093525,0.7969417695093525
1.4414927199203162,1.4414927199203162
2.0896647430863977,2.0896647430863977
2.468428953271717,2.468428953271717
2.8015676467425523,2.8015676467425523
3.495365186623118,3.495365186623118
4.1435372097892,4.1435372097892
3.7010421191138074,3.7010421191138074
1.718142678411314,1.718142678411314
-0.9542090148656032,-0.9542090148656032
-3.2557628580184605,-3.2557628580184605
-4.788200847984302,-4.788200847984302
-5.434924442048337,-5.434924442048337
-4.788200847984302,-4.788200847984302
-2.9544896047926614,-2.9544896047926614
-1.023009397212841,-1.023009397212841
-0.0844273390863138,-0.0844273390863138
0.003926836138559901,0.003926836138559901
0.005375265240607011,0.005375265240607011
0.20960376862924948,0.20960376862924948
0.37472468626261995,0.37472468626261995
0.4833568689161532,0.4833568689161532
0.6050249134881104,0.6050249134881104
0.620233419059605,0.620233419059605
0.3964511227933266,0.3964511227933266
0.20960376862924948,0.20960376862924948
0.24871135438452144,0.24871135438452144
0.34648031877270136,0.34648031877270136
0.26609250360908676,0.26609250360908676
0.20960376862924948,0.20960376862924948
0.3377897441604187,0.3377897441604187
0.4833568689161532,0.4833568689161532
0.4109354138137977,0.4109354138137977
0.2776799364254636,0.2776799364254636
0.28781894013979337,0.28781894013979337
0.34648031877270136,0.34648031877270136
0.2762315073234165,0.2762315073234165
0.20960376862924948,0.20960376862924948
0.2682651472621574,0.2682651472621574
0.34648031877270136,0.34648031877270136
0.2784041509764872,0.2784041509764872
0.20960376862924948,0.20960376862924948
0.24364185252735654,0.24364185252735654
0.2776799364254636,0.2776799364254636
0.1965679067108255,0.1965679067108255
0.20960376862924948,0.20960376862924948
0.41528070111993903,0.41528070111993903
0.620233419059605,0.620233419059605
0.6064733425901575,0.6064733425901575
0.5514330367123673,0.5514330367123673
0.6100944153452753,0.6100944153452753
0.6890338014068428,0.6890338014068428
0.6535472884066885,0.6535472884066885
0.6890338014068428,0.6890338014068428
0.8621210791014724,0.8621210791014724
0.9627869016937465,0.9627869016937465
0.8143229187339177,0.8143229187339177
0.6890338014068428,0.6890338014068428
0.791148053101164,0.791148053101164
0.9627869016937465,0.9627869016937465
0.943957323367134,0.943957323367134
0.8939865193465087,0.8939865193465087
1.0185514221225602,1.0185514221225602
1.2365400019806503,1.2365400019806503
1.2901318787563933,1.2901318787563933
1.2365400019806503,1.2365400019806503
1.2517485075521448,1.2517485075521448
1.373416552124102,1.373416552124102
1.4371474326141749,1.4371474326141749
1.4414927199203162,1.4414927199203162
1.477703447471494,1.477703447471494
1.5783692700637681,1.5783692700637681
1.5646091935943205,1.5646091935943205
1.373416552124102,1.373416552124102
1.174981765143648,1.174981765143648
1.2365400019806503,1.2365400019806503
1.4559770109407872,1.4559770109407872
1.5102931022675539,1.5102931022675539
1.285786591450252,1.285786591450252
1.0996634518371984,1.0996634518371984
1.106905597347434,1.106905597347434
1.0996634518371984,1.0996634518371984
0.8809506574280848,0.8809506574280848
0.6890338014068428,0.6890338014068428
0.6890338014068428,0.6890338014068428
0.6890338014068428,0.6890338014068428
0.47249365065079985,0.47249365065079985
0.2776799364254636,0.2776799364254636
0.2972337293030996,0.2972337293030996
0.34648031877270136,0.34648031877270136
0.18063518658830727,0.18063518658830727
0.003926836138559901,0.003926836138559901
0.0003057633834421269,0.0003057633834421269
0.003926836138559901,0.003926836138559901
-0.2075438127603181,-0.2075438127603181
-0.40670281429179567,-0.40670281429179567
-0.37845844680187707,-0.37845844680187707
-0.2698262641483438,-0.2698262641483438
-0.34731722110786417,-0.34731722110786417
-0.47477898208800984,-0.47477898208800984
-0.4718821238839156,-0.4718821238839156
-0.40670281429179567,-0.40670281429179567
-0.450155687353209,-0.450155687353209
-0.47477898208800984,-0.47477898208800984
-0.3907700941692775,-0.3907700941692775
-0.337902431944558,-0.337902431944558
-0.48129691304722183,-0.48129691304722183
-0.6116555322314617,-0.6116555322314617
-0.5138865678432818,-0.5138865678432818
-0.2698262641483438,-0.2698262641483438
-0.17857523071937592,-0.17857523071937592
-0.2698262641483438,-0.2698262641483438
-0.3864248068631361,-0.3864248068631361
-0.40670281429179567,-0.40670281429179567
-0.4074270288428192,-0.4074270288428192
-0.40670281429179567,-0.40670281429179567
-0.3545593666180997,-0.3545593666180997
-0.20102588180110612,-0.20102588180110612
-0.08732419729040801,-0.08732419729040801
-0.13294971400489197,-0.13294971400489197
-0.2748957660055087,-0.2748957660055087
-0.2698262641483438,-0.2698262641483438
-0.10687799016804399,-0.10687799016804399
0.003926836138559901,0.003926836138559901
-0.07066726261686625,-0.07066726261686625
-0.13294971400489197,-0.13294971400489197
-0.0648735462086778,-0.0648735462086778
0.003926836138559901,0.003926836138559901
-0.07428833537198402,-0.07428833537198402
-0.13294971400489197,-0.13294971400489197
-0.06270090255560715,-0.06270090255560715
0.003926836138559901,0.003926836138559901
-0.08008205178017246,-0.08008205178017246
-0.13294971400489197,-0.13294971400489197
-0.043871324228994715,-0.043871324228994715
0.003926836138559901,0.003926836138559901
-0.18943844898472922,-0.18943844898472922
-0.40670281429179567,-0.40670281429179567
-0.3907700941692775,-0.3907700941692775
-0.20102588180110612,-0.20102588180110612
-0.1083264192700911,-0.1083264192700911
-0.13294971400489197,-0.13294971400489197
-0.193059521739847,-0.193059521739847
-0.2698262641483438,-0.2698262641483438
-0.37049208674061795,-0.37049208674061795
-0.337902431944558,-0.337902431944558
-0.15250350688252795,-0.15250350688252795
0.003926836138559901,0.003926836138559901
-0.020696458596240964,-0.020696458596240964
-0.06414933165765425,-0.06414933165765425
-0.020696458596240964,-0.020696458596240964
0.003926836138559901,0.003926836138559901
-0.09456634280064355,-0.09456634280064355
-0.13294971400489197,-0.13294971400489197
-0.03807760782080628,-0.03807760782080628
0.003926836138559901,0.003926836138559901
-0.1517792923315044,-0.1517792923315044
-0.2698262641483438,-0.2698262641483438
-0.18436894712756435,-0.18436894712756435
-0.06414933165765425,-0.06414933165765425
-0.14236450316819818,-0.14236450316819818
-0.2698262641483438,-0.2698262641483438
-0.2669294059442496,-0.2669294059442496
-0.20102588180110612,-0.20102588180110612
-0.24013346755637807,-0.24013346755637807
-0.2698262641483438,-0.2698262641483438
-0.17640258706630524,-0.17640258706630524
-0.06414933165765425,-0.06414933165765425
-0.13005285580079773,-0.13005285580079773
-0.2698262641483438,-0.2698262641483438
-0.29517377343416823,-0.29517377343416823
-0.20102588180110612,-0.20102588180110612
-0.22564917653590696,-0.22564917653590696
-0.40670281429179567,-0.40670281429179567
-0.5385098625780826,-0.5385098625780826
-0.40670281429179567,-0.40670281429179567
-0.20030166725008255,-0.20030166725008255
-0.20102588180110612,-0.20102588180110612
-0.3972880251284895,-0.3972880251284895
-0.40670281429179567,-0.40670281429179567
-0.1611940814948106,-0.1611940814948106
0.003926836138559901,0.003926836138559901
-0.13150128490284485,-0.13150128490284485
-0.2698262641483438,-0.2698262641483438
-0.13657078676000972,-0.13657078676000972
0.0727272184857976,0.0727272184857976
0.028550130873360766,0.028550130873360766
-0.13294971400489197,-0.13294971400489197
-0.1018084883108791,-0.1018084883108791
0.14080338628201175,0.14080338628201175
0.3377897441604187,0.3377897441604187
0.4833568689161532,0.4833568689161532
0.7737669038765986,0.7737669038765986
1.3046161697768643,1.3046161697768643
1.9049900325753912,1.9049900325753912
2.468428953271717,2.468428953271717
2.984069713600488,2.984069713600488
3.358488636479666,3.358488636479666
3.154984347642047,3.154984347642047
1.9209227526979096,1.9209227526979096
-0.3610772975773117,-0.3610772975773117
-2.939281099221167,-2.939281099221167
-4.749817476780054,-4.749817476780054
-5.13003011606742,-5.13003011606742
-4.344981542757886,-4.344981542757886
-3.1449580317118566,-3.1449580317118566
-2.104261721891008,-2.104261721891008
-1.2967624974997445,-1.2967624974997445
-0.7297025040483012,-0.7297025040483012
-0.47477898208800984,-0.47477898208800984
-0.4965054186187165,-0.4965054186187165
-0.47477898208800984,-0.47477898208800984
-0.2872074133729091,-0.2872074133729091
-0.13294971400489197,-0.13294971400489197
-0.20175009635212968,-0.20175009635212968
-0.2698262641483438,-0.2698262641483438
-0.15250350688252795,-0.15250350688252795
0.003926836138559901,0.003926836138559901
-0.07790940812710179,-0.07790940812710179
-0.2698262641483438,-0.2698262641483438
-0.3190728536179456,-0.3190728536179456
-0.20102588180110612,-0.20102588180110612
-0.18436894712756435,-0.18436894712756435
-0.337902431944558,-0.337902431944558
-0.4740547675369863,-0.4740547675369863
-0.40670281429179567,-0.40670281429179567
-0.23433975114818964,-0.23433975114818964
-0.13294971400489197,-0.13294971400489197
-0.1097748483721382,-0.1097748483721382
0.003926836138559901,0.003926836138559901
0.15601189185350642,0.15601189185350642
0.14080338628201175,0.14080338628201175
-0.0634251171066307,-0.0634251171066307
-0.13294971400489197,-0.13294971400489197
0.02927434542438432,0.02927434542438432
0.14080338628201175,0.14080338628201175
-0.027214389555452956,-0.027214389555452956
-0.20102588180110612,-0.20102588180110612
-0.1401918595151275,-0.1401918595151275
0.003926836138559901,0.003926836138559901
-0.026490175004429403,-0.026490175004429403
-0.06414933165765425,-0.06414933165765425
0.08141779309808027,0.08141779309808027
0.2776799364254636,0.2776799364254636
0.27550729277239294,0.27550729277239294
0.20960376862924948,0.20960376862924948
0.25595349989475696,0.25595349989475696
0.34648031877270136,0.34648031877270136
0.3276507404460889,0.3276507404460889
0.34648031877270136,0.34648031877270136
0.4927716580794594,0.4927716580794594
0.620233419059605,0.620233419059605
0.5934374806717335,0.5934374806717335
0.620233419059605,0.620233419059605
0.791148053101164,0.791148053101164
0.8939865193465087,0.8939865193465087
0.7679731874684103,0.7679731874684103
0.6890338014068428,0.6890338014068428
0.8432915007748599,0.8432915007748599
1.0308630694899605,1.0308630694899605
1.0055155602041361,1.0055155602041361
0.9627869016937465,0.9627869016937465
1.0931455208779863,1.0931455208779863
1.2365400019806503,1.2365400019806503
1.1394952521434938,1.1394952521434938
0.9627869016937465,0.9627869016937465
0.9265761741425688,0.9265761741425688
0.9627869016937465,0.9627869016937465
0.8360493552646244,0.8360493552646244
0.620233419059605,0.620233419059605
0.4985653744876478,0.4985653744876478
0.4833568689161532,0.4833568689161532
0.38920897728309106,0.38920897728309106
0.20960376862924948,0.20960376862924948
0.056794498363279405,0.056794498363279405
0.003926836138559901,0.003926836138559901
-0.06704618986174847,-0.06704618986174847
-0.20102588180110612,-0.20102588180110612
-0.31545178086282777,-0.31545178086282777
-0.2698262641483438,-0.2698262641483438
-0.1691604415560697,-0.1691604415560697
-0.20102588180110612,-0.20102588180110612
-0.38787323596518325,-0.38787323596518325
-0.47477898208800984,-0.47477898208800984
-0.39439116692439524,-0.39439116692439524
-0.337902431944558,-0.337902431944558
-0.4588462619654916,-0.4588462619654916
-0.5435793644352476,-0.5435793644352476
-0.4530525455573032,-0.4530525455573032
-0.337902431944558,-0.337902431944558
-0.39583959602644236,-0.39583959602644236
-0.47477898208800984,-0.47477898208800984
-0.4588462619654916,-0.4588462619654916
-0.47477898208800984,-0.47477898208800984
-0.6464178306805923,-0.6464178306805923
-0.7492562969259371,-0.7492562969259371
-0.6666958381092518,-0.6666958381092518
-0.6116555322314617,-0.6116555322314617
-0.7695343043545967,-0.7695343043545967
-0.886132847069389,-0.886132847069389
-0.7861912390281384,-0.7861912390281384
-0.6804559145786994,-0.6804559145786994
-0.7905365263342797,-0.7905365263342797
-0.886132847069389,-0.886132847069389
-0.7847428099260912,-0.7847428099260912
-0.6804559145786994,-0.6804559145786994
-0.7746038062117615,-0.7746038062117615
-0.8173324647221513,-0.8173324647221513
-0.6398998997213803,-0.6398998997213803
-0.47477898208800984,-0.47477898208800984
-0.5522699390475302,-0.5522699390475302
-0.6116555322314617,-0.6116555322314617
-0.4769516257410805,-0.4769516257410805
-0.40670281429179567,-0.40670281429179567
-0.648590474333663,-0.648590474333663
-0.886132847069389,-0.886132847069389
-0.8093661046608922,-0.8093661046608922
-0.6116555322314617,-0.6116555322314617
-0.6391756851703568,-0.6391756851703568
-0.7492562969259371,-0.7492562969259371
-0.6732137690684639,-0.6732137690684639
-0.47477898208800984,-0.47477898208800984
-0.4074270288428192,-0.4074270288428192
-0.40670281429179567,-0.40670281429179567
-0.32052128271999264,-0.32052128271999264
-0.20102588180110612,-0.20102588180110612
-0.23361553659716608,-0.23361553659716608
-0.337902431944558,-0.337902431944558
-0.3502140793119584,-0.3502140793119584
-0.2698262641483438,-0.2698262641483438
-0.30096748984235666,-0.30096748984235666
-0.47477898208800984,-0.47477898208800984
-0.635554612415239,-0.635554612415239
-0.6116555322314617,-0.6116555322314617
-0.5030233495779285,-0.5030233495779285
-0.47477898208800984,-0.47477898208800984
-0.5479246517413888,-0.5479246517413888
-0.5435793644352476,-0.5435793644352476
-0.4646399783736801,-0.4646399783736801
-0.47477898208800984,-0.47477898208800984
-0.6123797467824853,-0.6123797467824853
-0.6116555322314617,-0.6116555322314617
-0.39221852327132456,-0.39221852327132456
-0.20102588180110612,-0.20102588180110612
-0.2538935440258256,-0.2538935440258256
-0.337902431944558,-0.337902431944558
-0.27344733690346157,-0.27344733690346157
-0.20102588180110612,-0.20102588180110612
-0.3089338499036158,-0.3089338499036158
-0.40670281429179567,-0.40670281429179567
-0.3400750755976286,-0.3400750755976286
-0.2698262641483438,-0.2698262641483438
-0.4016333124346308,-0.4016333124346308
-0.5435793644352476,-0.5435793644352476
-0.5059202077820227,-0.5059202077820227
-0.40670281429179567,-0.40670281429179567
-0.44291354184297343,-0.44291354184297343
-0.47477898208800984,-0.47477898208800984
-0.3719405158426651,-0.3719405158426651
-0.2698262641483438,-0.2698262641483438
-0.35600779572014685,-0.35600779572014685
-0.47477898208800984,-0.47477898208800984
-0.46029469106753873,-0.46029469106753873
-0.40670281429179567,-0.40670281429179567
-0.5153349969453289,-0.5153349969453289
-0.6804559145786994,-0.6804559145786994
-0.7130455693747594,-0.7130455693747594
-0.6116555322314617,-0.6116555322314617
-0.5718237319251662,-0.5718237319251662
-0.6116555322314617,-0.6116555322314617
-0.6239671795988622,-0.6239671795988622
-0.5435793644352476,-0.5435793644352476
-0.5138865678432818,-0.5138865678432818
-0.6116555322314617,-0.6116555322314617
-0.7354962204564895,-0.7354962204564895
-0.6804559145786994,-0.6804559145786994
-0.5160592114963525,-0.5160592114963525
-0.47477898208800984,-0.47477898208800984
-0.6362788269662626,-0.6362788269662626
-0.7492562969259371,-0.7492562969259371
-0.6905949182930292,-0.6905949182930292
-0.6116555322314617,-0.6116555322314617
-0.6659716235582283,-0.6659716235582283
-0.6804559145786994,-0.6804559145786994
-0.5595120845577658,-0.5595120845577658
-0.47477898208800984,-0.47477898208800984
-0.5877564520476843,-0.5877564520476843
-0.6804559145786994,-0.6804559145786994
-0.5892048811497315,-0.5892048811497315
-0.47477898208800984,-0.47477898208800984
-0.5421309353332004,-0.5421309353332004
-0.6116555322314617,-0.6116555322314617
-0.5204044988024938,-0.5204044988024938
-0.40670281429179567,-0.40670281429179567
-0.46970948023084497,-0.46970948023084497
-0.5435793644352476,-0.5435793644352476
-0.4820211275982454,-0.4820211275982454
-0.40670281429179567,-0.40670281429179567
-0.4863664149043867,-0.4863664149043867
-0.5435793644352476,-0.5435793644352476
-0.4841937712513161,-0.4841937712513161
-0.47477898208800984,-0.47477898208800984
-0.6543841907418514,-0.6543841907418514
-0.7492562969259371,-0.7492562969259371
-0.6087586740273675,-0.6087586740273675
-0.47477898208800984,-0.47477898208800984
-0.5551667972516244,-0.5551667972516244
-0.6116555322314617,-0.6116555322314617
-0.4653641929247036,-0.4653641929247036
-0.337902431944558,-0.337902431944558
-0.41684181800612546,-0.41684181800612546
-0.40670281429179567,-0.40670281429179567
-0.11339592112725598,-0.11339592112725598
0.20960376862924948,0.20960376862924948
0.3479287478747484,0.3479287478747484
0.620233419059605,0.620233419059605
1.2242283546132497,1.2242283546132497
1.8521223703506717,1.8521223703506717
2.235231867842132,2.235231867842132
2.6741058857624065,2.6741058857624065
3.262168101193533,3.262168101193533
3.358488636479666,3.358488636479666
2.2663730935361452,2.2663730935361452
0.20960376862924948,0.20960376862924948
-2.053566703319359,-2.053566703319359
-3.8981411647763533,-3.8981411647763533
-4.900454103392954,-4.900454103392954
-4.650600083289827,-4.650600083289827
-3.326011669467745,-3.326011669467745
-1.844268698073552,-1.844268698073552
-1.0816707758457487,-1.0816707758457487
-0.9542090148656032,-0.9542090148656032
-0.8774422724571063,-0.8774422724571063
-0.6116555322314617,-0.6116555322314617
-0.4530525455573032,-0.4530525455573032
-0.5435793644352476,-0.5435793644352476
-0.68262855823177,-0.68262855823177
-0.6116555322314617,-0.6116555322314617
-0.44725882914911474,-0.44725882914911474
-0.40670281429179567,-0.40670281429179567
-0.5051959932309992,-0.5051959932309992
-0.47477898208800984,-0.47477898208800984
-0.2785168387606265,-0.2785168387606265
-0.13294971400489197,-0.13294971400489197
-0.20319852545417677,-0.20319852545417677
-0.2698262641483438,-0.2698262641483438
-0.193059521739847,-0.193059521739847
-0.13294971400489197,-0.13294971400489197
-0.24737561306661363,-0.24737561306661363
-0.337902431944558,-0.337902431944558
-0.24520296941354297,-0.24520296941354297
-0.13294971400489197,-0.13294971400489197
-0.20102588180110612,-0.20102588180110612
-0.2698262641483438,-0.2698262641483438
-0.19595637994394122,-0.19595637994394122
-0.13294971400489197,-0.13294971400489197
-0.23868503845433098,-0.23868503845433098
-0.2698262641483438,-0.2698262641483438
-0.06921883351481914,-0.06921883351481914
0.14080338628201175,0.14080338628201175
0.09807472777162203,0.09807472777162203
0.003926836138559901,0.003926836138559901
0.07779672034296249,0.07779672034296249
0.20960376862924948,0.20960376862924948
0.18353204479240148,0.18353204479240148
0.14080338628201175,0.14080338628201175
0.21105219773129658,0.21105219773129658
0.2776799364254636,0.2776799364254636
0.2074311249761788,0.2074311249761788
0.20960376862924948,0.20960376862924948
0.3761731153646671,0.3761731153646671
0.4833568689161532,0.4833568689161532
0.33344445685427737,0.33344445685427737
0.20960376862924948,0.20960376862924948
0.3740004717115964,0.3740004717115964
0.6890338014068428,0.6890338014068428
0.8230134933462004,0.8230134933462004
0.8259103515502946,0.8259103515502946
0.8925380902444616,0.8925380902444616
1.0308630694899605,1.0308630694899605
1.0438989314083846,1.0438989314083846
0.9627869016937465,0.9627869016937465
0.9743743345101233,0.9743743345101233
1.1677396196334124,1.1677396196334124
1.332860537266783,1.332860537266783
1.3046161697768643,1.3046161697768643
1.1452889685516823,1.1452889685516823
1.0996634518371984,1.0996634518371984
1.189466056164119,1.189466056164119
1.2365400019806503,1.2365400019806503
1.0916970917759392,1.0916970917759392
0.8939865193465087,0.8939865193465087
0.7679731874684103,0.7679731874684103
0.6890338014068428,0.6890338014068428
0.5804016187533095,0.5804016187533095
0.5514330367123673,0.5514330367123673
0.6166123463044872,0.6166123463044872
0.620233419059605,0.620233419059605
0.4268681339363159,0.4268681339363159
0.20960376862924948,0.20960376862924948
0.09228101136343358,0.09228101136343358
0.003926836138559901,0.003926836138559901
-0.14888243412741017,-0.14888243412741017
-0.20102588180110612,-0.20102588180110612
-0.10615377561702043,-0.10615377561702043
-0.06414933165765425,-0.06414933165765425
-0.2394092530053545,-0.2394092530053545
-0.40670281429179567,-0.40670281429179567
-0.39439116692439524,-0.39439116692439524
-0.337902431944558,-0.337902431944558
-0.43784403998580856,-0.43784403998580856
-0.5435793644352476,-0.5435793644352476
-0.5196802842514703,-0.5196802842514703
-0.47477898208800984,-0.47477898208800984
-0.5616847282108364,-0.5616847282108364
-0.6116555322314617,-0.6116555322314617
-0.5283708588637529,-0.5283708588637529
-0.47477898208800984,-0.47477898208800984
-0.6188976777416972,-0.6188976777416972
-0.7492562969259371,-0.7492562969259371
-0.7021823511094061,-0.7021823511094061
-0.6116555322314617,-0.6116555322314617
-0.6768348418235817,-0.6768348418235817
-0.7492562969259371,-0.7492562969259371
-0.6869738455379114,-0.6869738455379114
-0.6116555322314617,-0.6116555322314617
-0.7268056458442069,-0.7268056458442069
-0.886132847069389,-0.886132847069389
-0.8658548396407294,-0.8658548396407294
-0.6804559145786994,-0.6804559145786994
-0.5812385210884724,-0.5812385210884724
-0.6116555322314617,-0.6116555322314617
-0.6174492486396501,-0.6174492486396501
-0.47477898208800984,-0.47477898208800984
-0.35383515206707616,-0.35383515206707616
-0.40670281429179567,-0.40670281429179567
-0.5392340771291062,-0.5392340771291062
-0.47477898208800984,-0.47477898208800984
-0.2640325477401554,-0.2640325477401554
-0.20102588180110612,-0.20102588180110612
-0.36687101398550015,-0.36687101398550015
-0.40670281429179567,-0.40670281429179567
-0.1821963034744937,-0.1821963034744937
0.003926836138559901,0.003926836138559901
-0.09673898645371422,-0.09673898645371422
-0.20102588180110612,-0.20102588180110612
-0.0923936991475729,-0.0923936991475729
0.003926836138559901,0.003926836138559901
-0.14960664867843373,-0.14960664867843373
-0.2698262641483438,-0.2698262641483438
-0.1358465722089862,-0.1358465722089862
0.003926836138559901,0.003926836138559901
-0.11194749202520887,-0.11194749202520887
-0.20102588180110612,-0.20102588180110612
-0.04531975333104183,-0.04531975333104183
0.0727272184857976,0.0727272184857976
-0.14888243412741017,-0.14888243412741017
-0.40670281429179567,-0.40670281429179567
-0.3864248068631361,-0.3864248068631361
-0.2698262641483438,-0.2698262641483438
-0.34514457745479354,-0.34514457745479354
-0.40670281429179567,-0.40670281429179567
-0.2618599040870847,-0.2618599040870847
-0.13294971400489197,-0.13294971400489197
-0.2719989078014145,-0.2719989078014145
-0.40670281429179567,-0.40670281429179567
-0.2908284861280269,-0.2908284861280269
-0.13294971400489197,-0.13294971400489197
-0.24085768210740163,-0.24085768210740163
-0.40670281429179567,-0.40670281429179567
-0.35600779572014685,-0.35600779572014685
-0.20102588180110612,-0.20102588180110612
-0.25461775857684915,-0.25461775857684915
-0.40670281429179567,-0.40670281429179567
-0.41322074525100766,-0.41322074525100766
-0.2698262641483438,-0.2698262641483438
-0.23289132204614252,-0.23289132204614252
-0.337902431944558,-0.337902431944558
-0.4291534653735259,-0.4291534653735259
-0.40670281429179567,-0.40670281429179567
-0.337902431944558,-0.337902431944558
-0.2698262641483438,-0.2698262641483438
-0.21333752916850654,-0.21333752916850654
-0.13294971400489197,-0.13294971400489197
-0.012005883983958306,-0.012005883983958306
0.20960376862924948,0.20960376862924948
0.5058075199978834,0.5058075199978834
0.8259103515502946,0.8259103515502946
1.1141477428576694,1.1141477428576694
1.4414927199203162,1.4414927199203162
1.866606661371143,1.866606661371143
2.4003527854755027,2.4003527854755027
2.8479173780080598,2.8479173780080598
2.8790586037020724,2.8790586037020724
2.0788015248210443,2.0788015248210443
0.2776799364254636,0.2776799364254636
-2.25127727574879,-2.25127727574879
-4.650600083289827,-4.650600083289827
-5.898421754703412,-5.898421754703412
-5.472583598701561,-5.472583598701561
-3.9321792486744607,-3.9321792486744607
-2.3917748986473595,-2.3917748986473595
-1.520544793766023,-1.520544793766023
-1.091085565009055,-1.091085565009055
-0.7550500133341256,-0.7550500133341256
-0.5435793644352476,-0.5435793644352476
-0.5841353792925666,-0.5841353792925666
-0.6116555322314617,-0.6116555322314617
-0.4400166836388792,-0.4400166836388792
-0.2698262641483438,-0.2698262641483438
-0.3567320102711704,-0.3567320102711704
-0.47477898208800984,-0.47477898208800984
-0.4001848833325837,-0.4001848833325837
-0.2698262641483438,-0.2698262641483438
-0.3299360718832989,-0.3299360718832989
-0.40670281429179567,-0.40670281429179567
-0.3400750755976286,-0.3400750755976286
-0.2698262641483438,-0.2698262641483438
-0.3654225848834531,-0.3654225848834531
-0.40670281429179567,-0.40670281429179567
-0.21261331461748298,-0.21261331461748298
0.003926836138559901,0.003926836138559901
-0.02214488769828807,-0.02214488769828807
-0.13294971400489197,-0.13294971400489197
-0.09746320100473778,-0.09746320100473778
0.003926836138559901,0.003926836138559901
-0.08370312453529023,-0.08370312453529023
-0.2698262641483438,-0.2698262641483438
-0.3024159189444038,-0.3024159189444038
-0.13294971400489197,-0.13294971400489197
-0.031559676861594284,-0.031559676861594284
-0.13294971400489197,-0.13294971400489197
-0.31545178086282777,-0.31545178086282777
-0.337902431944558,-0.337902431944558
-0.2205796746787421,-0.2205796746787421
-0.13294971400489197,-0.13294971400489197
-0.19668059449496478,-0.19668059449496478
-0.2698262641483438,-0.2698262641483438
-0.22275231833181275,-0.22275231833181275
-0.06414933165765425,-0.06414933165765425
0.060415571118397175,0.060415571118397175
0.14080338628201175,0.14080338628201175
0.20236162311901393,0.20236162311901393
0.2776799364254636,0.2776799364254636
0.35299824973191335,0.35299824973191335
0.4833568689161532,0.4833568689161532
0.6064733425901575,0.6064733425901575
0.620233419059605,0.620233419059605
0.5246370983244958,0.5246370983244958
0.5514330367123673,0.5514330367123673
0.7752153329786458,0.7752153329786458
1.0308630694899605,1.0308630694899605
1.1481858267557765,1.1481858267557765
1.2365400019806503,1.2365400019806503
1.3480690428382776,1.3480690428382776
1.373416552124102,1.373416552124102
1.2582664385113569,1.2582664385113569
1.2365400019806503,1.2365400019806503
1.373416552124102,1.373416552124102
1.4414927199203162,1.4414927199203162
1.2850623768992284,1.2850623768992284
1.1677396196334124,1.1677396196334124
1.2300220710214382,1.2300220710214382
1.2365400019806503,1.2365400019806503
0.968580618101935,0.968580618101935
0.6890338014068428,0.6890338014068428
0.6100944153452753,0.6100944153452753
0.5514330367123673,0.5514330367123673
0.2747830782213694,0.2747830782213694
0.003926836138559901,0.003926836138559901
-0.03662917871875917,-0.03662917871875917
0.003926836138559901,0.003926836138559901
-0.14453714682126884,-0.14453714682126884
-0.337902431944558,-0.337902431944558
-0.3552835811691233,-0.3552835811691233
-0.2698262641483438,-0.2698262641483438
-0.35383515206707616,-0.35383515206707616
-0.5435793644352476,-0.5435793644352476
-0.5877564520476843,-0.5877564520476843
-0.40670281429179567,-0.40670281429179567
-0.2669294059442496,-0.2669294059442496
-0.337902431944558,-0.337902431944558
-0.5175076405983996,-0.5175076405983996
-0.5435793644352476,-0.5435793644352476
-0.44291354184297343,-0.44291354184297343
-0.40670281429179567,-0.40670281429179567
-0.49578120406769294,-0.49578120406769294
-0.47477898208800984,-0.47477898208800984
-0.3002432752913331,-0.3002432752913331
-0.20102588180110612,-0.20102588180110612
-0.3407992901486522,-0.3407992901486522
-0.47477898208800984,-0.47477898208800984
-0.443637756393997,-0.443637756393997
-0.40670281429179567,-0.40670281429179567
-0.536337218925012,-0.536337218925012
-0.6116555322314617,-0.6116555322314617
-0.4994022768228107,-0.4994022768228107
-0.40670281429179567,-0.40670281429179567
-0.5319919316188707,-0.5319919316188707
-0.6116555322314617,-0.6116555322314617
-0.45087990190423255,-0.45087990190423255
-0.2698262641483438,-0.2698262641483438
-0.34731722110786417,-0.34731722110786417
-0.47477898208800984,-0.47477898208800984
-0.4117723161489606,-0.4117723161489606
-0.2698262641483438,-0.2698262641483438
-0.27127469325039094,-0.27127469325039094
-0.2698262641483438,-0.2698262641483438
-0.14453714682126884,-0.14453714682126884
-0.06414933165765425,-0.06414933165765425
-0.19016266353575279,-0.19016266353575279
-0.2698262641483438,-0.2698262641483438
-0.1358465722089862,-0.1358465722089862
0.003926836138559901,0.003926836138559901
-0.06994304806584269,-0.06994304806584269
-0.13294971400489197,-0.13294971400489197
-0.01707538584112319,-0.01707538584112319
0.0727272184857976,0.0727272184857976
-0.07356412082096046,-0.07356412082096046
-0.20102588180110612,-0.20102588180110612
-0.1083264192700911,-0.1083264192700911
0.003926836138559901,0.003926836138559901
-0.10253270286190266,-0.10253270286190266
-0.20102588180110612,-0.20102588180110612
-0.09673898645371422,-0.09673898645371422
0.003926836138559901,0.003926836138559901
-0.16988465610709325,-0.16988465610709325
-0.40670281429179567,-0.40670281429179567
-0.4211871053122668,-0.4211871053122668
-0.2698262641483438,-0.2698262641483438
-0.193059521739847,-0.193059521739847
-0.13294971400489197,-0.13294971400489197
0.014790054403913223,0.014790054403913223
0.14080338628201175,0.14080338628201175
0.048103923750996744,0.048103923750996744
-0.13294971400489197,-0.13294971400489197
-0.17205729976016393,-0.17205729976016393
-0.06414933165765425,-0.06414933165765425
-0.09311791369859644,-0.09311791369859644
-0.337902431944558,-0.337902431944558
-0.5624089427618599,-0.5624089427618599
-0.47477898208800984,-0.47477898208800984
-0.21695860192362432,-0.21695860192362432
-0.13294971400489197,-0.13294971400489197
-0.3082096353525922,-0.3082096353525922
-0.40670281429179567,-0.40670281429179567
-0.2915527006790505,-0.2915527006790505
-0.20102588180110612,-0.20102588180110612
-0.3292118573322753,-0.3292118573322753
-0.40670281429179567,-0.40670281429179567
-0.2444787548625194,-0.2444787548625194
-0.06414933165765425,-0.06414933165765425
-0.1401918595151275,-0.1401918595151275
-0.2698262641483438,-0.2698262641483438
-0.22492496198488343,-0.22492496198488343
-0.13294971400489197,-0.13294971400489197
-0.22637339108693053,-0.22637339108693053
-0.337902431944558,-0.337902431944558
-0.28865584247495624,-0.28865584247495624
-0.20102588180110612,-0.20102588180110612
-0.2560661876788963,-0.2560661876788963
-0.2698262641483438,-0.2698262641483438
-0.11918963753544441,-0.11918963753544441
0.003926836138559901,0.003926836138559901
-0.08008205178017246,-0.08008205178017246
-0.13294971400489197,-0.13294971400489197
-0.006936382126793421,-0.006936382126793421
0.0727272184857976,0.0727272184857976
-0.10470534651497332,-0.10470534651497332
-0.2698262641483438,-0.2698262641483438
-0.21478595827055366,-0.21478595827055366
-0.13294971400489197,-0.13294971400489197
-0.24954825671968428,-0.24954825671968428
-0.337902431944558,-0.337902431944558
-0.22927024929102474,-0.22927024929102474
-0.13294971400489197,-0.13294971400489197
-0.25823883133196696,-0.25823883133196696
-0.337902431944558,-0.337902431944558
-0.17205729976016393,-0.17205729976016393
0.003926836138559901,0.003926836138559901
-0.10542956106599688,-0.10542956106599688
-0.2698262641483438,-0.2698262641483438
-0.19450795084189412,-0.19450795084189412
0.003926836138559901,0.003926836138559901
-0.023593316800335183,-0.023593316800335183
-0.20102588180110612,-0.20102588180110612
-0.20030166725008255,-0.20030166725008255
0.0727272184857976,0.0727272184857976
0.2675409327111339,0.2675409327111339
0.14080338628201175,0.14080338628201175
-0.15829722329071638,-0.15829722329071638
-0.2698262641483438,-0.2698262641483438
-0.1771268016173288,-0.1771268016173288
-0.13294971400489197,-0.13294971400489197
-0.24737561306661363,-0.24737561306661363
-0.2698262641483438,-0.2698262641483438
-0.1097748483721382,-0.1097748483721382
0.003926836138559901,0.003926836138559901
-0.09311791369859644,-0.09311791369859644
-0.13294971400489197,-0.13294971400489197
0.04593128009792608,0.04593128009792608
0.20960376862924948,0.20960376862924948
0.11545587699618734,0.11545587699618734
0.003926836138559901,0.003926836138559901
0.07779672034296249,0.07779672034296249
0.14080338628201175,0.14080338628201175
-0.03518074961671206,-0.03518074961671206
-0.20102588180110612,-0.20102588180110612
-0.14598557592331596,-0.14598557592331596
-0.06414933165765425,-0.06414933165765425
-0.186541590780635,-0.186541590780635
-0.2698262641483438,-0.2698262641483438
-0.1322254994538684,-0.1322254994538684
0.003926836138559901,0.003926836138559901
-0.08515155363733734,-0.08515155363733734
-0.13294971400489197,-0.13294971400489197
0.03506806183257276,0.03506806183257276
0.14080338628201175,0.14080338628201175
-0.06994304806584269,-0.06994304806584269
-0.2698262641483438,-0.2698262641483438
-0.1691604415560697,-0.1691604415560697
0.003926836138559901,0.003926836138559901
-0.0923936991475729,-0.0923936991475729
-0.2698262641483438,-0.2698262641483438
-0.2683778350462967,-0.2683778350462967
-0.20102588180110612,-0.20102588180110612
-0.305312777148498,-0.305312777148498
-0.40670281429179567,-0.40670281429179567
-0.30458856259747447,-0.30458856259747447
-0.13294971400489197,-0.13294971400489197
-0.14236450316819818,-0.14236450316819818
-0.20102588180110612,-0.20102588180110612
-0.10398113196394977,-0.10398113196394977
0.0727272184857976,0.0727272184857976
0.046655494648949636,0.046655494648949636
-0.13294971400489197,-0.13294971400489197
-0.19088687808677635,-0.19088687808677635
0.003926836138559901,0.003926836138559901
0.17122039742500106,0.17122039742500106
0.0727272184857976,0.0727272184857976
-0.19595637994394122,-0.19595637994394122
-0.2698262641483438,-0.2698262641483438
-0.1307770703518213,-0.1307770703518213
-0.06414933165765425,-0.06414933165765425
-0.2430303257604723,-0.2430303257604723
-0.40670281429179567,-0.40670281429179567
-0.35745622482219397,-0.35745622482219397
-0.2698262641483438,-0.2698262641483438
-0.3675952285365237,-0.3675952285365237
-0.47477898208800984,-0.47477898208800984
-0.3502140793119584,-0.3502140793119584
-0.06414933165765425,-0.06414933165765425
0.11328323334311668,0.11328323334311668
0.20960376862924948,0.20960376862924948
0.4029690537525386,0.4029690537525386
0.757109969203057,0.757109969203057
1.1641185468782946,1.1641185468782946
1.6471696524110058,1.6471696524110058
2.23885294059725,2.23885294059725
2.8790586037020724,2.8790586037020724
3.353419134622501,3.353419134622501
3.4272890188269036,3.4272890188269036
2.7298704061912202,2.7298704061912202
1.0308630694899605,1.0308630694899605
-1.377150312663359,-1.377150312663359
-3.555587682142212,-3.555587682142212
-4.662187516106203,-4.662187516106203
-4.513723533146375,-4.513723533146375
-3.552690823938118,-3.552690823938118
-2.323698730851145,-2.323698730851145
-1.3387669414591108,-1.3387669414591108
-0.886132847069389,-0.886132847069389
-0.8629579814366353,-0.8629579814366353
-0.8173324647221513,-0.8173324647221513
-0.581962735639496,-0.581962735639496
-0.40670281429179567,-0.40670281429179567
-0.503747564128952,-0.503747564128952
-0.6116555322314617,-0.6116555322314617
-0.5247497861086351,-0.5247497861086351
-0.40670281429179567,-0.40670281429179567
-0.49795384772076356,-0.49795384772076356
-0.6116555322314617,-0.6116555322314617
-0.5653058009659542,-0.5653058009659542
-0.47477898208800984,-0.47477898208800984
-0.5653058009659542,-0.5653058009659542
-0.6804559145786994,-0.6804559145786994
-0.6239671795988622,-0.6239671795988622
-0.47477898208800984,-0.47477898208800984
-0.44291354184297343,-0.44291354184297343
-0.47477898208800984,-0.47477898208800984
-0.4284292508225023,-0.4284292508225023
-0.337902431944558,-0.337902431944558
-0.3762858031488064,-0.3762858031488064
-0.47477898208800984,-0.47477898208800984
-0.437119825434785,-0.437119825434785
-0.20102588180110612,-0.20102588180110612
-0.03662917871875917,-0.03662917871875917
-0.13294971400489197,-0.13294971400489197
-0.34948986476093485,-0.34948986476093485
-0.337902431944558,-0.337902431944558
-0.1307770703518213,-0.1307770703518213
-0.06414933165765425,-0.06414933165765425
-0.27344733690346157,-0.27344733690346157
-0.40670281429179567,-0.40670281429179567
-0.27779262420960293,-0.27779262420960293
-0.13294971400489197,-0.13294971400489197
-0.21623438737260076,-0.21623438737260076
-0.2698262641483438,-0.2698262641483438
-0.08080626633119602,-0.08080626633119602
0.14080338628201175,0.14080338628201175
0.11907694975130512,0.11907694975130512
0.0727272184857976,0.0727272184857976
0.22553648875176768,0.22553648875176768
0.41455648656891547,0.41455648656891547
0.3906574063851382,0.3906574063851382
0.34648031877270136,0.34648031877270136
0.4580093596303288,0.4580093596303288
0.5514330367123673,0.5514330367123673
0.4290407775893866,0.4290407775893866
0.34648031877270136,0.34648031877270136
0.5014622326917421,0.5014622326917421
0.6890338014068428,0.6890338014068428
0.6600652193659006,0.6600652193659006
0.620233419059605,0.620233419059605
0.7346593181213267,0.7346593181213267
0.8259103515502946,0.8259103515502946
0.7375561763254209,0.7375561763254209
0.757109969203057,0.757109969203057
1.030138854938937,1.030138854938937
1.2365400019806503,1.2365400019806503
1.0721432988983033,1.0721432988983033
0.8259103515502946,0.8259103515502946
0.8179439914890355,0.8179439914890355
0.8939865193465087,0.8939865193465087
0.7136570961416436,0.7136570961416436
0.41455648656891547,0.41455648656891547
0.2994063729561703,0.2994063729561703
0.34648031877270136,0.34648031877270136
0.23422706336405033,0.23422706336405033
-0.06414933165765425,-0.06414933165765425
-0.2980706316382625,-0.2980706316382625
-0.2698262641483438,-0.2698262641483438
-0.1242591393926093,-0.1242591393926093
-0.06414933165765425,-0.06414933165765425
-0.17350572886221102,-0.17350572886221102
-0.337902431944558,-0.337902431944558
-0.49578120406769294,-0.49578120406769294
-0.6116555322314617,-0.6116555322314617
-0.6768348418235817,-0.6768348418235817
-0.6116555322314617,-0.6116555322314617
-0.4965054186187165,-0.4965054186187165
-0.47477898208800984,-0.47477898208800984
-0.5834111647415431,-0.5834111647415431
-0.6116555322314617,-0.6116555322314617
-0.5138865678432818,-0.5138865678432818
-0.47477898208800984,-0.47477898208800984
-0.6275882523539799,-0.6275882523539799
-0.7492562969259371,-0.7492562969259371
-0.6978370638032647,-0.6978370638032647
-0.6116555322314617,-0.6116555322314617
-0.642072543374451,-0.642072543374451
-0.6116555322314617,-0.6116555322314617
-0.44291354184297343,-0.44291354184297343
-0.337902431944558,-0.337902431944558
-0.437119825434785,-0.437119825434785
-0.47477898208800984,-0.47477898208800984
-0.331384500985346,-0.331384500985346
-0.2698262641483438,-0.2698262641483438
-0.4899874876595045,-0.4899874876595045
-0.6804559145786994,-0.6804559145786994
-0.6188976777416972,-0.6188976777416972
-0.5435793644352476,-0.5435793644352476
-0.7029065656604296,-0.7029065656604296
-0.8173324647221513,-0.8173324647221513
-0.6580052634969692,-0.6580052634969692
-0.47477898208800984,-0.47477898208800984
-0.5834111647415431,-0.5834111647415431
-0.7492562969259371,-0.7492562969259371
-0.6891464891909821,-0.6891464891909821
-0.5435793644352476,-0.5435793644352476
-0.5906533102517786,-0.5906533102517786
-0.6804559145786994,-0.6804559145786994
-0.6044133867212261,-0.6044133867212261
-0.47477898208800984,-0.47477898208800984
-0.523301357006588,-0.523301357006588
-0.6116555322314617,-0.6116555322314617
-0.5479246517413888,-0.5479246517413888
-0.40670281429179567,-0.40670281429179567
-0.40887545794486635,-0.40887545794486635
-0.47477898208800984,-0.47477898208800984
-0.42335974896533746,-0.42335974896533746
-0.2698262641483438,-0.2698262641483438
-0.2531693294748021,-0.2531693294748021
-0.40670281429179567,-0.40670281429179567
-0.5225771424555644,-0.5225771424555644
-0.40670281429179567,-0.40670281429179567
-0.21695860192362432,-0.21695860192362432
-0.20102588180110612,-0.20102588180110612
-0.36252572667935884,-0.36252572667935884
-0.40670281429179567,-0.40670281429179567
-0.27272312235243806,-0.27272312235243806
-0.20102588180110612,-0.20102588180110612
-0.35166250841400554,-0.35166250841400554
-0.47477898208800984,-0.47477898208800984
-0.40887545794486635,-0.40887545794486635
-0.337902431944558,-0.337902431944558
-0.4733305529859627,-0.4733305529859627
-0.6116555322314617,-0.6116555322314617
-0.5667542300680013,-0.5667542300680013
-0.47477898208800984,-0.47477898208800984
-0.5450277935372947,-0.5450277935372947
-0.6116555322314617,-0.6116555322314617
-0.5392340771291062,-0.5392340771291062
-0.47477898208800984,-0.47477898208800984
-0.5957228121089435,-0.5957228121089435
-0.6804559145786994,-0.6804559145786994
-0.5812385210884724,-0.5812385210884724
-0.47477898208800984,-0.47477898208800984
-0.5805143065374488,-0.5805143065374488
-0.6804559145786994,-0.6804559145786994
-0.5928259539048493,-0.5928259539048493
-0.47477898208800984,-0.47477898208800984
-0.5153349969453289,-0.5153349969453289
-0.5435793644352476,-0.5435793644352476
-0.4226355344143139,-0.4226355344143139
-0.337902431944558,-0.337902431944558
-0.4458104000470676,-0.4458104000470676
-0.47477898208800984,-0.47477898208800984
-0.21840703102567144,-0.21840703102567144
0.14080338628201175,0.14080338628201175
0.3580677515890782,0.3580677515890782
0.620233419059605,0.620233419059605
1.121389888367905,1.121389888367905
1.71524582020722,1.71524582020722
2.165707270943871,2.165707270943871
2.6053055034151686,2.6053055034151686
3.1115314745806337,3.1115314745806337
3.289688254132428,3.289688254132428
2.5031912517208474,2.5031912517208474
0.620233419059605,0.620233419059605
-1.884824712930871,-1.884824712930871
-4.171894265063258,-4.171894265063258
-5.447236089415737,-5.447236089415737
-5.266906666210872,-5.266906666210872
-3.9727352635317796,-3.9727352635317796
-2.4605752809945973,-2.4605752809945973
-1.4951972844801986,-1.4951972844801986
-1.091085565009055,-1.091085565009055
-0.8709243414978943,-0.8709243414978943
-0.6116555322314617,-0.6116555322314617
-0.47260633843493915,-0.47260633843493915
-0.5435793644352476,-0.5435793644352476
-0.6724895545174403,-0.6724895545174403
-0.6116555322314617,-0.6116555322314617
-0.4465346145980912,-0.4465346145980912
-0.40670281429179567,-0.40670281429179567
-0.5341645752719413,-0.5341645752719413
-0.5435793644352476,-0.5435793644352476
-0.3791826613529006,-0.3791826613529006
-0.2698262641483438,-0.2698262641483438
-0.37049208674061795,-0.37049208674061795
-0.40670281429179567,-0.40670281429179567
-0.2270976056379541,-0.2270976056379541
-0.06414933165765425,-0.06414933165765425
-0.1336739285559155,-0.1336739285559155
-0.20102588180110612,-0.20102588180110612
-0.04676818243308894,-0.04676818243308894
0.14080338628201175,0.14080338628201175
0.09735051322059847,0.09735051322059847
0.003926836138559901,0.003926836138559901
0.06113978566942073,0.06113978566942073
0.14080338628201175,0.14080338628201175
0.03724070548564342,0.03724070548564342
-0.06414933165765425,-0.06414933165765425
-0.004039523922699202,-0.004039523922699202
0.0727272184857976,0.0727272184857976
-0.017799600392146744,-0.017799600392146744
-0.06414933165765425,-0.06414933165765425
0.07489986213886828,0.07489986213886828
0.20960376862924948,0.20960376862924948
0.11473166244516379,0.11473166244516379
0.003926836138559901,0.003926836138559901
0.07707250579193894,0.07707250579193894
0.20960376862924948,0.20960376862924948
0.1770141138331895,0.1770141138331895
0.14080338628201175,0.14080338628201175
0.2950610856500289,0.2950610856500289
0.5514330367123673,0.5514330367123673
0.6455809283454295,0.6455809283454295
0.620233419059605,0.620233419059605
0.6615136484679477,0.6615136484679477
0.8259103515502946,0.8259103515502946
0.9367151778568985,0.9367151778568985
0.9627869016937465,0.9627869016937465
1.0265177821838194,1.0265177821838194
1.2365400019806503,1.2365400019806503
1.4117999233283505,1.4117999233283505
1.373416552124102,1.373416552124102
1.206122990837661,1.206122990837661
1.2365400019806503,1.2365400019806503
1.4813245202266117,1.4813245202266117
1.6471696524110058,1.6471696524110058
1.5631607644922734,1.5631607644922734
1.5102931022675539,1.5102931022675539
1.6594812997784063,1.6594812997784063
1.7840462025544577,1.7840462025544577
1.6022683502475454,1.6022683502475454
1.3046161697768643,1.3046161697768643
1.153979543163965,1.153979543163965
1.0996634518371984,1.0996634518371984
0.9157129558772155,0.9157129558772155
0.6890338014068428,0.6890338014068428
0.5593993967736265,0.5593993967736265
0.4833568689161532,0.4833568689161532
0.3276507404460889,0.3276507404460889
0.20960376862924948,0.20960376862924948
0.18932576120058994,0.18932576120058994
0.14080338628201175,0.14080338628201175
-0.03880182237182983,-0.03880182237182983
-0.13294971400489197,-0.13294971400489197
-0.05256189884127738,-0.05256189884127738
0.003926836138559901,0.003926836138559901
-0.14091607406615106,-0.14091607406615106
-0.2698262641483438,-0.2698262641483438
-0.25679040222991983,-0.25679040222991983
-0.2698262641483438,-0.2698262641483438
-0.43639561088376144,-0.43639561088376144
-0.47477898208800984,-0.47477898208800984
-0.2763441951075558,-0.2763441951075558
-0.13294971400489197,-0.13294971400489197
-0.27779262420960293,-0.27779262420960293
-0.40670281429179567,-0.40670281429179567
-0.3190728536179456,-0.3190728536179456
-0.2698262641483438,-0.2698262641483438
-0.48057269849619827,-0.48057269849619827
-0.6116555322314617,-0.6116555322314617
-0.43784403998580856,-0.43784403998580856
-0.2698262641483438,-0.2698262641483438
-0.4320503235776201,-0.4320503235776201
-0.6116555322314617,-0.6116555322314617
-0.4878148440064338,-0.4878148440064338
-0.2698262641483438,-0.2698262641483438
-0.3067612062505451,-0.3067612062505451
-0.40670281429179567,-0.40670281429179567
-0.3002432752913331,-0.3002432752913331
-0.13294971400489197,-0.13294971400489197
-0.21985546012771853,-0.21985546012771853
-0.40670281429179567,-0.40670281429179567
-0.3885974505162068,-0.3885974505162068
-0.20102588180110612,-0.20102588180110612
-0.19233530718882347,-0.19233530718882347
-0.40670281429179567,-0.40670281429179567
-0.5725479464761898,-0.5725479464761898
-0.47477898208800984,-0.47477898208800984
-0.31400335176078065,-0.31400335176078065
-0.337902431944558,-0.337902431944558
-0.49795384772076356,-0.49795384772076356
-0.47477898208800984,-0.47477898208800984
-0.25679040222991983,-0.25679040222991983
-0.13294971400489197,-0.13294971400489197
-0.23723660935228386,-0.23723660935228386
-0.2698262641483438,-0.2698262641483438
-0.09891163010678489,-0.09891163010678489
0.003926836138559901,0.003926836138559901
-0.15902143784173994,-0.15902143784173994
-0.2698262641483438,-0.2698262641483438
-0.1242591393926093,-0.1242591393926093
0.003926836138559901,0.003926836138559901
-0.1481582195763866,-0.1481582195763866
-0.2698262641483438,-0.2698262641483438
-0.10760220471906753,-0.10760220471906753
0.0727272184857976,0.0727272184857976
-0.04749239698411249,-0.04749239698411249
-0.20102588180110612,-0.20102588180110612
-0.11556856478032665,-0.11556856478032665
0.003926836138559901,0.003926836138559901
-0.12860442669875063,-0.12860442669875063
-0.2698262641483438,-0.2698262641483438
-0.18074787437244658,-0.18074787437244658
-0.06414933165765425,-0.06414933165765425
-0.1771268016173288,-0.1771268016173288
-0.2698262641483438,-0.2698262641483438
-0.1322254994538684,-0.1322254994538684
0.003926836138559901,0.003926836138559901
-0.1307770703518213,-0.1307770703518213
-0.2698262641483438,-0.2698262641483438
-0.14453714682126884,-0.14453714682126884
0.0727272184857976,0.0727272184857976
0.07345143303682117,0.07345143303682117
0.003926836138559901,0.003926836138559901
0.06620928752658561,0.06620928752658561
0.14080338628201175,0.14080338628201175
-0.01273009853498186,-0.01273009853498186
-0.20102588180110612,-0.20102588180110612
-0.11991385208646797,-0.11991385208646797
0.20960376862924948,0.20960376862924948
0.3884847627320675,0.3884847627320675
0.2776799364254636,0.2776799364254636
0.09445365501650425,0.09445365501650425
0.14080338628201175,0.14080338628201175
0.3196843803848298,0.3196843803848298
0.34648031877270136,0.34648031877270136
0.18787733209854282,0.18787733209854282
0.14080338628201175,0.14080338628201175
0.28202522373160493,0.28202522373160493
0.34648031877270136,0.34648031877270136
0.22553648875176768,0.22553648875176768
0.2776799364254636,0.2776799364254636
0.6289239936718877,0.6289239936718877
0.9627869016937465,0.9627869016937465
1.142392110347588,1.142392110347588
1.5783692700637681,1.5783692700637681
2.292444817372993,2.292444817372993
2.7421820535586208,2.7421820535586208
2.855883738069319,2.855883738069319
3.358488636479666,3.358488636479666
4.1305013478707755,4.1305013478707755
3.7691182869100213,3.7691182869100213
1.516811033226766,1.516811033226766
-1.3648386652959588,-1.3648386652959588
-3.394812051814983,-3.394812051814983
-4.513723533146375,-4.513723533146375
-5.115545825046949,-5.115545825046949
-4.650600083289827,-4.650600083289827
-2.853099567649364,-2.853099567649364
-0.886132847069389,-0.886132847069389
-0.06414933165765425,-0.06414933165765425
-0.06414933165765425,-0.06414933165765425
0.10314422962878692,0.10314422962878692
0.4833568689161532,0.4833568689161532
0.47828736705898833,0.47828736705898833
0.20960376862924948,0.20960376862924948
0.17339304107807174,0.17339304107807174
0.34648031877270136,0.34648031877270136
0.32982338409915957,0.32982338409915957
0.20960376862924948,0.20960376862924948
0.23422706336405033,0.23422706336405033
0.34648031877270136,0.34648031877270136
0.31244223487459427,0.31244223487459427
0.2776799364254636,0.2776799364254636
0.38269104632387907,0.38269104632387907
0.4833568689161532,0.4833568689161532
0.36820675530340796,0.36820675530340796
0.20960376862924948,0.20960376862924948
0.2523324271396392,0.2523324271396392
0.41455648656891547,0.41455648656891547
0.38486368997694975,0.38486368997694975
0.14080338628201175,0.14080338628201175
-0.059804044351512924,-0.059804044351512924
0.003926836138559901,0.003926836138559901
0.16977196832295396,0.16977196832295396
0.20960376862924948,0.20960376862924948
0.1161800915472109,0.1161800915472109
0.14080338628201175,0.14080338628201175
0.2892673692418405,0.2892673692418405
0.34648031877270136,0.34648031877270136
0.2219154159966499,0.2219154159966499
0.20960376862924948,0.20960376862924948
0.4225228466301746,0.4225228466301746
0.620233419059605,0.620233419059605
0.5825742624063802,0.5825742624063802
0.5514330367123673,0.5514330367123673
0.6941033032640076,0.6941033032640076
0.8259103515502946,0.8259103515502946
0.757109969203057,0.757109969203057
0.757109969203057,0.757109969203057
0.9808922654693354,0.9808922654693354
1.1677396196334124,1.1677396196334124
1.062728509734997,1.062728509734997
0.9627869016937465,0.9627869016937465
1.1126993137556223,1.1126993137556223
1.3046161697768643,1.3046161697768643
1.2669570131236396,1.2669570131236396
1.2365400019806503,1.2365400019806503
1.412524137879374,1.412524137879374
1.5783692700637681,1.5783692700637681
1.4965330257981064,1.4965330257981064
1.4414927199203162,1.4414927199203162
1.6203737140231342,1.6203737140231342
1.7840462025544577,1.7840462025544577
1.6544117979212414,1.6544117979212414
1.5102931022675539,1.5102931022675539
1.6022683502475454,1.6022683502475454
1.71524582020722,1.71524582020722
1.5414343279615668,1.5414343279615668
1.3046161697768643,1.3046161697768643
1.2705780858787572,1.2705780858787572
1.3046161697768643,1.3046161697768643
1.1452889685516823,1.1452889685516823
0.9627869016937465,0.9627869016937465
0.9454057524691811,0.9454057524691811
0.9627869016937465,0.9627869016937465
0.7947691258562818,0.7947691258562818
0.620233419059605,0.620233419059605
0.6043006989370868,0.6043006989370868
0.620233419059605,0.620233419059605
0.47394207975284697,0.47394207975284697
0.34648031877270136,0.34648031877270136
0.3950026936912795,0.3950026936912795
0.4833568689161532,0.4833568689161532
0.3754489008136435,0.3754489008136435
0.20960376862924948,0.20960376862924948
0.19077419030263704,0.19077419030263704
0.2776799364254636,0.2776799364254636
0.21105219773129658,0.21105219773129658
0.003926836138559901,0.003926836138559901
-0.1162927793313502,-0.1162927793313502
0.003926836138559901,0.003926836138559901
0.1610813937106713,0.1610813937106713
0.14080338628201175,0.14080338628201175
-0.02214488769828807,-0.02214488769828807
-0.06414933165765425,-0.06414933165765425
0.014065839852889669,0.014065839852889669
0.003926836138559901,0.003926836138559901
-0.16336672514788125,-0.16336672514788125
-0.20102588180110612,-0.20102588180110612
-0.03228389141261784,-0.03228389141261784
0.0727272184857976,0.0727272184857976
-0.08515155363733734,-0.08515155363733734
-0.20102588180110612,-0.20102588180110612
-0.05545875704537159,-0.05545875704537159
0.14080338628201175,0.14080338628201175
0.09879894232264558,0.09879894232264558
0.003926836138559901,0.003926836138559901
0.06403664387351495,0.06403664387351495
0.14080338628201175,0.14080338628201175
0.02927434542438432,0.02927434542438432
-0.06414933165765425,-0.06414933165765425
0.03144698907745498,0.03144698907745498
0.14080338628201175,0.14080338628201175
0.05534606926123229,0.05534606926123229
0.003926836138559901,0.003926836138559901
0.16687511011885975,0.16687511011885975
0.34648031877270136,0.34648031877270136
0.2950610856500289,0.2950610856500289
0.20960376862924948,0.20960376862924948
0.27550729277239294,0.27550729277239294
0.34648031877270136,0.34648031877270136
0.229881776057909,0.229881776057909
0.14080338628201175,0.14080338628201175
0.24219342342530945,0.24219342342530945
0.34648031877270136,0.34648031877270136
0.22046698689460278,0.22046698689460278
0.0727272184857976,0.0727272184857976
0.1292159534656349,0.1292159534656349
0.2776799364254636,0.2776799364254636
0.2523324271396392,0.2523324271396392
0.14080338628201175,0.14080338628201175
0.13283702622075266,0.13283702622075266
0.20960376862924948,0.20960376862924948
0.1704961828739775,0.1704961828739775
0.0727272184857976,0.0727272184857976
