ECG,PPG
0.9536786827993117,0.9536786827993117
1.0337188382171205,1.0337188382171205
0.9403386568963435,0.9403386568963435
1.0000511537953438,1.0000511537953438
1.015932137013163,1.015932137013163
1.0102149830547482,1.0102149830547482
1.0044978290963331,1.0044978290963331
1.0165673763418759,1.0165673763418759
1.0286369235874184,1.0286369235874184
1.0260959662725673,1.0260959662725673
1.0222845303002908,1.0222845303002908
1.0254607269438545,1.0254607269438545
1.029907402244844,1.029907402244844
1.0254607269438545,1.0254607269438545
1.0203788123141524,1.0203788123141524
1.018473094328014,1.018473094328014
1.015932137013163,1.015932137013163
1.0108502223834608,1.0108502223834608
1.0070387864111843,1.0070387864111843
1.0064035470824715,1.0064035470824715
1.0038625897676203,1.0038625897676203
1.0013216324527694,1.0013216324527694
1.0006863931240566,1.0006863931240566
0.9987806751379182,0.9987806751379182
0.9987806751379182,0.9987806751379182
0.9981454358092056,0.9981454358092056
0.999415914466631,0.999415914466631
0.999415914466631,0.999415914466631
1.002592111110195,1.002592111110195
1.0038625897676203,1.0038625897676203
1.0089445043973226,1.0089445043973226
1.0114854617121736,1.0114854617121736
1.0172026156705885,1.0172026156705885
1.0197435729854396,1.0197435729854396
1.0248254876151417,1.0248254876151417
1.0260959662725673,1.0260959662725673
1.0318131202309822,1.0318131202309822
1.032448359559695,1.032448359559695
1.0375302741893973,1.0375302741893973
1.0368950348606845,1.0368950348606845
1.0426121888190993,1.0426121888190993
1.0419769494903866,1.0419769494903866
1.045788385462663,1.045788385462663
1.0394359921755354,1.0394359921755354
1.0330835988884077,1.0330835988884077
1.0146616583557375,1.0146616583557375
1.0032273504389078,1.0032273504389078
0.9962397178230672,0.9962397178230672
1.0089445043973226,1.0089445043973226
1.0286369235874184,1.0286369235874184
1.0546817360646419,1.0546817360646419
1.0667512833101844,1.0667512833101844
1.06802176196761,1.06802176196761
1.0546817360646419,1.0546817360646419
1.0464236247913759,1.0464236247913759
1.0483293427775142,1.0483293427775142
1.071197958611174,1.071197958611174
1.1048656430329507,1.1048656430329507
1.1461561993992806,1.1461561993992806
1.18045912314977,1.18045912314977
1.2065039356269935,1.2065039356269935
1.216667764886398,1.216667764886398
1.2160325255576852,1.2160325255576852
1.2020572603260042,1.2020572603260042
1.1785534051636317,1.1785534051636317
1.1442504814131422,1.1442504814131422
1.1055008823616634,1.1055008823616634
1.0648455653240463,1.0648455653240463
1.0343540775458333,1.0343540775458333
1.0178378549993012,1.0178378549993012
1.0248254876151417,1.0248254876151417
1.048964582106227,1.048964582106227
1.0915256171299825,1.0915256171299825
1.1347218914824506,1.1347218914824506
1.177918165834919,1.177918165834919
1.2065039356269935,1.2065039356269935
1.2306430301180789,1.2306430301180789
1.2414420987061958,1.2414420987061958
1.2528764066230256,1.2528764066230256
1.2541468852804512,1.2541468852804512
1.2560526032665895,1.2560526032665895
1.2420773380349086,1.2420773380349086
1.2338192267616426,1.2338192267616426
1.2153972862289724,1.2153972862289724
1.2090448929418447,1.2090448929418447
1.2045982176408552,1.2045982176408552
1.2147620469002596,1.2147620469002596
1.227466833474515,1.227466833474515
1.2516059279656002,1.2516059279656002
1.271298347155696,1.271298347155696
1.2941669629893555,1.2941669629893555
1.3094127068784618,1.3094127068784618
1.3303756047259832,1.3303756047259832
1.3494327845873664,1.3494327845873664
1.369760443106175,1.369760443106175
1.3767480757220154,1.3767480757220154
1.3767480757220154,1.3767480757220154
1.3754775970645898,1.3754775970645898
1.4040633668566644,1.4040633668566644
1.4745749323437818,1.4745749323437818
1.5825656182249523,1.5825656182249523
1.6784867568605804,1.6784867568605804
1.7064372873239422,1.7064372873239422
1.6257618925774207,1.6257618925774207
1.4586939491259625,1.4586939491259625
1.2700278684982704,1.2700278684982704
1.1442504814131422,1.1442504814131422
1.1239228228943337,1.1239228228943337
1.1976105850250147,1.1976105850250147
1.306236510234898,1.306236510234898
1.397075734240824,1.397075734240824
1.4364605726210156,1.4364605726210156
1.4396367692645795,1.4396367692645795
1.4250262647041858,1.4250262647041858
1.4186738714170581,1.4186738714170581
1.4174033927596326,1.4174033927596326
1.4237557860467602,1.4237557860467602
1.421214828731909,1.421214828731909
1.421214828731909,1.421214828731909
1.4142271961160686,1.4142271961160686
1.4148624354447814,1.4148624354447814
1.410415760143792,1.410415760143792
1.4123214781299305,1.4123214781299305
1.40533384551409,1.40533384551409
1.4072395635002282,1.4072395635002282
1.4002519308843877,1.4002519308843877
1.4015224095418133,1.4015224095418133
1.3951700162546856,1.3951700162546856
1.39389953759726,1.39389953759726
1.3875471443101324,1.3875471443101324
1.3894528622962707,1.3894528622962707
1.3850061869952814,1.3850061869952814
1.3869119049814196,1.3869119049814196
1.383100469009143,1.383100469009143
1.383100469009143,1.383100469009143
1.3792890330368663,1.3792890330368663
1.3799242723655791,1.3799242723655791
1.3761128363933026,1.3761128363933026
1.3754775970645898,1.3754775970645898
1.371666161092313,1.371666161092313
1.3710309217636005,1.3710309217636005
1.3678547251200366,1.3678547251200366
1.3672194857913238,1.3672194857913238
1.3659490071338982,1.3659490071338982
1.3659490071338982,1.3659490071338982
1.36404328914776,1.36404328914776
1.3627728104903345,1.3627728104903345
1.358326135189345,1.358326135189345
1.3545146992170685,1.3545146992170685
1.3487975452586536,1.3487975452586536
1.3456213486150896,1.3456213486150896
1.3411746733141003,1.3411746733141003
1.3386337159992492,1.3386337159992492
1.3316460833834087,1.3316460833834087
1.325293690096281,1.325293690096281
1.3157651001655897,1.3157651001655897
1.3106831855358874,1.3106831855358874
1.3030603135913341,1.3030603135913341
1.2941669629893555,1.2941669629893555
1.271298347155696,1.271298347155696
1.2414420987061958,1.2414420987061958
1.2020572603260042,1.2020572603260042
1.1766476871774934,1.1766476871774934
1.1683895759042275,1.1683895759042275
1.1918934310665998,1.1918934310665998
1.2236553975022384,1.2236553975022384
1.2592287999101532,1.2592287999101532
1.2674869111834193,1.2674869111834193
1.2579583212527279,1.2579583212527279
1.2255611154883765,1.2255611154883765
1.196975345696302,1.196975345696302
1.1702952938903657,1.1702952938903657
1.158860985973536,1.158860985973536
1.1486971567141315,1.1486971567141315
1.1436152420844294,1.1436152420844294
1.1328161734963125,1.1328161734963125
1.1245580622230464,1.1245580622230464
1.1131237543062167,1.1131237543062167
1.1048656430329507,1.1048656430329507
1.0947018137735463,1.0947018137735463
1.087078941828993,1.087078941828993
1.0775503518983016,1.0775503518983016
1.071197958611174,1.071197958611174
1.0654808046527589,1.0654808046527589
1.059763650694344,1.059763650694344
1.0508703000923654,1.0508703000923654
1.0311778809022694,1.0311778809022694
0.9987806751379182,0.9987806751379182
0.947326289512184,0.947326289512184
0.8825318779834816,0.8825318779834816
0.8069383978666622,0.8069383978666622
0.7288039604349917,0.7288039604349917
0.6487638050171828,0.6487638050171828
0.5661826922845229,0.5661826922845229
0.46263868170434164,0.46263868170434164
0.32923842267466025,0.32923842267466025
0.15708856459350004,0.15708856459350004
-0.04174134529359648,-0.04174134529359648
-0.25009984511138456,-0.25009984511138456
-0.44067164372521506,-0.44067164372521506
-0.6083748265053859,-0.6083748265053859
-0.7455865215073438,-0.7455865215073438
-0.8732696265786103,-0.8732696265786103
-0.9990470136637385,-0.9990470136637385
-1.1368939479944091,-1.1368939479944091
-1.2849047115844843,-1.2849047115844843
-1.4379973898042615,-1.4379973898042615
-1.5828319567507727,-1.5828319567507727
-1.7124207798081776,-1.7124207798081776
-1.823587662332912,-1.823587662332912
-1.916967843653689,-1.916967843653689
-1.9944670417566468,-1.9944670417566468
-2.042745230738817,-2.042745230738817
-2.0478271453685193,-2.0478271453685193
-1.9925613237705084,-1.9925613237705084
-1.88965255251904,-1.88965255251904
-1.7721332767071778,-1.7721332767071778
-1.697810275247784,-1.697810275247784
-1.6990807539052093,-1.6990807539052093
-1.7727685160358906,-1.7727685160358906
-1.862337261384391,-1.862337261384391
-1.8991811424497314,-1.8991811424497314
-1.8375629275645928,-1.8375629275645928
-1.6844702493448158,-1.6844702493448158
-1.4830993821428682,-1.4830993821428682
-1.2893513868854736,-1.2893513868854736
-1.1292710760498559,-1.1292710760498559
-1.000317492321164,-1.000317492321164
-0.8808924985231635,-0.8808924985231635
-0.7557503507667481,-0.7557503507667481
-0.6204443737509285,-0.6204443737509285
-0.4845031574063961,-0.4845031574063961
-0.35618481300641686,-0.35618481300641686
-0.240571255180693,-0.240571255180693
-0.13512152661437346,-0.13512152661437346
-0.03856514865003264,-0.03856514865003264
0.05100359669846771,0.05100359669846771
0.1316789914449893,0.1316789914449893
0.20727247156180872,0.20727247156180872
0.2796897550350643,0.2796897550350643
0.35782419246673486,0.35782419246673486
0.4372291085558309,0.4372291085558309
0.5223511786033419,0.5223511786033419
0.6055675306647146,0.6055675306647146
0.686878164739949,0.686878164739949
0.7612011661993429,0.7612011661993429
0.8342536890013112,0.8342536890013112
0.8971423825438753,0.8971423825438753
0.9581253581003011,0.9581253581003011
1.0102149830547482,1.0102149830547482
1.0616693686804823,1.0616693686804823
1.1061361216903762,1.1061361216903762
1.158860985973536,1.158860985973536
1.2122210895854084,1.2122210895854084
1.2795564584289618,1.2795564584289618
1.3500680239160792,1.3500680239160792
1.430108179333888,1.430108179333888
1.5057016594507073,1.5057016594507073
1.5832008575536651,1.5832008575536651
1.6530771837120697,1.6530771837120697
1.7229535098704742,1.7229535098704742
1.7852069640843256,1.7852069640843256
1.8461899396407513,1.8461899396407513
1.8982795645951982,1.8982795645951982
1.9465577535773686,1.9465577535773686
1.9859425919575602,1.9859425919575602
2.0272331483238903,2.0272331483238903
2.073605619319922,2.073605619319922
2.138400030848625,2.138400030848625
2.2222516222387103,2.2222516222387103
2.3308775474485937,2.3308775474485937
2.4547492165475835,2.4547492165475835
2.5887847149059775,2.5887847149059775
2.7158325806485313,2.7158325806485313
2.8333518564603932,2.8333518564603932
2.9337196703970108,2.9337196703970108
3.0277350910465004,3.0277350910465004
3.1160333577375754,3.1160333577375754
3.213224975030629,3.213224975030629
3.3078756350088314,3.3078756350088314
3.4012558163296083,3.4012558163296083
3.4698616638305873,3.4698616638305873
3.518139852812758,3.518139852812758
3.5346560753592895,3.5346560753592895
3.544819904618694,3.544819904618694
3.5435494259612685,3.5435494259612685
3.5537132552206727,3.5537132552206727
3.5549837338780983,3.5549837338780983
3.5607008878365134,3.5607008878365134
3.545455143947407,3.545455143947407
3.528938921400875,3.528938921400875
3.490189322349396,3.490189322349396
3.4558863985989063,3.4558863985989063
3.401891055658321,3.401891055658321
3.353612866676151,3.353612866676151
3.285007019175172,3.285007019175172
3.220212607646469,3.220212607646469
3.1363610162563837,3.1363610162563837
3.0575913394960006,3.0575913394960006
2.963575918846511,2.963575918846511
2.8765481308128615,2.8765481308128615
2.7774507955336696,2.7774507955336696
2.6872468108564567,2.6872468108564567
2.5887847149059775,2.5887847149059775
2.5004864482149025,2.5004864482149025
2.4071062668941257,2.4071062668941257
2.321348957517902,2.321348957517902
2.2298744941832633,2.2298744941832633
2.146022902793178,2.146022902793178
2.060265593416954,2.060265593416954
1.9802254379991453,1.9802254379991453
1.8976443252664854,1.8976443252664854
1.8239565631358043,1.8239565631358043
1.750904040333836,1.750904040333836
1.6842039108189952,1.6842039108189952
1.619409499290293,1.619409499290293
1.555885566419016,1.555885566419016
1.492996872876452,1.492996872876452
1.43519009396359,1.43519009396359
1.3773833150507282,1.3773833150507282
1.3240232114388555,1.3240232114388555
1.2668516718547065,1.2668516718547065
1.2147620469002596,1.2147620469002596
1.163942900603238,1.163942900603238
1.1207466262507697,1.1207466262507697
1.0724684372685993,1.0724684372685993
1.0229197696290036,1.0229197696290036
0.9701949053458437,0.9701949053458437
0.9460558108547585,0.9460558108547585
0.9663834693735671,0.9663834693735671
1.0483293427775142,1.0483293427775142
1.1461561993992806,1.1461561993992806
1.2071391749557063,1.2071391749557063
1.1537790713438338,1.1537790713438338
0.9854406492349501,0.9854406492349501
0.738967789694396,0.738967789694396
0.5210806999459163,0.5210806999459163
0.3978442701756393,0.3978442701756393
0.40229094547662864,0.40229094547662864
0.4810606222370119,0.4810606222370119
0.5782522395300655,0.5782522395300655
0.6322475824706508,0.6322475824706508
0.6436818903874807,0.6436818903874807
0.623354231868672,0.623354231868672
0.6049322913360018,0.6049322913360018
0.5947684620765975,0.5947684620765975
0.5947684620765975,0.5947684620765975
0.5928627440904591,0.5928627440904591
0.5903217867756081,0.5903217867756081
0.5839693934884804,0.5839693934884804
0.5807931968449166,0.5807931968449166
0.579522718187491,0.579522718187491
0.5788874788587782,0.5788874788587782
0.5763465215439272,0.5763465215439272
0.5744408035577889,0.5744408035577889
0.5693588889280867,0.5693588889280867
0.5680884102706613,0.5680884102706613
0.5642769742983846,0.5642769742983846
0.560465538326108,0.560465538326108
0.5566541023538314,0.5566541023538314
0.5541131450389803,0.5541131450389803
0.5515721877241292,0.5515721877241292
0.552207427052842,0.552207427052842
0.5503017090667037,0.5503017090667037
0.5490312304092781,0.5490312304092781
0.5471255124231399,0.5471255124231399
0.5464902730944271,0.5464902730944271
0.5445845551082887,0.5445845551082887
0.5439493157795761,0.5439493157795761
0.5420435977934377,0.5420435977934377
0.5426788371221505,0.5426788371221505
0.5420435977934377,0.5420435977934377
0.5439493157795761,0.5439493157795761
0.5445845551082887,0.5445845551082887
0.5483959910805654,0.5483959910805654
0.5496664697379909,0.5496664697379909
0.5534779057102676,0.5534779057102676
0.5528426663815548,0.5528426663815548
0.5528426663815548,0.5528426663815548
0.5490312304092781,0.5490312304092781
0.5471255124231399,0.5471255124231399
0.5433140764508633,0.5433140764508633
0.5426788371221505,0.5426788371221505
0.5401378798072994,0.5401378798072994
0.5388674011498739,0.5388674011498739
0.53569120450631,0.53569120450631
0.53569120450631,0.53569120450631
0.5350559651775972,0.5350559651775972
0.5344207258488844,0.5344207258488844
0.5261626145756185,0.5261626145756185
0.5102816313577992,0.5102816313577992
0.4855072975380013,0.4855072975380013
0.46581487834790547,0.46581487834790547
0.4613682030469161,0.4613682030469161
0.4823311008944375,0.4823311008944375
0.5204454606172035,0.5204454606172035
0.5630064956409591,0.5630064956409591
0.5909570261043209,0.5909570261043209
0.5966741800627358,0.5966741800627358
0.5820636755023421,0.5820636755023421
0.5617360169835335,0.5617360169835335
0.5464902730944271,0.5464902730944271
0.5439493157795761,0.5439493157795761
0.5496664697379909,0.5496664697379909
0.5611007776548208,0.5611007776548208
0.5712646069142251,0.5712646069142251
0.5814284361736294,0.5814284361736294
0.5890513081181825,0.5890513081181825
0.5985798980488741,0.5985798980488741
0.60683800932214,0.60683800932214
0.6157313599241189,0.6157313599241189
0.6195427958963955,0.6195427958963955
0.6239894711973848,0.6239894711973848
0.623354231868672,0.623354231868672
0.6239894711973848,0.6239894711973848
0.6201780352251082,0.6201780352251082
0.6182723172389699,0.6182723172389699
0.6131904026092677,0.6131904026092677
0.6131904026092677,0.6131904026092677
0.6106494452944167,0.6106494452944167
0.6119199239518422,0.6119199239518422
0.6100142059657039,0.6100142059657039
0.6112846846231295,0.6112846846231295
0.6106494452944167,0.6106494452944167
0.6131904026092677,0.6131904026092677
0.6144608812666933,0.6144608812666933
0.6195427958963955,0.6195427958963955
0.6220837532112465,0.6220837532112465
0.629071385827087,0.629071385827087
0.6341533004567891,0.6341533004567891
0.6405056937439169,0.6405056937439169
0.6449523690449062,0.6449523690449062
0.6500342836746084,0.6500342836746084
0.6544809589755978,0.6544809589755978
0.662103830920151,0.662103830920151
0.6678209848785659,0.6678209848785659
0.6735381388369809,0.6735381388369809
0.6779848141379702,0.6779848141379702
0.6843372074250978,0.6843372074250978
0.6919600793696511,0.6919600793696511
0.6995829513142043,0.6995829513142043
0.7008534299716299,0.7008534299716299
0.6995829513142043,0.6995829513142043
0.7072058232587576,0.7072058232587576
0.7440497043240981,0.7440497043240981
0.8145612698112155,0.8145612698112155
0.9015890578448646,0.9015890578448646
0.9568548794428755,0.9568548794428755
0.9384329389102053,0.9384329389102053
0.8272660563854708,0.8272660563854708
0.6646447882350021,0.6646447882350021
0.5140930673300759,0.5140930673300759
0.4461224591578097,0.4461224591578097
0.4734377502924587,0.4734377502924587
0.5738055642290761,0.5738055642290761
0.6824314894389596,0.6824314894389596
0.7618364055280556,0.7618364055280556
0.7916926539775557,0.7916926539775557
0.7948688506211196,0.7948688506211196
0.7859755000191408,0.7859755000191408
0.7872459786765664,0.7872459786765664
0.7904221753201303,0.7904221753201303
0.7986802865933962,0.7986802865933962
0.7999507652508218,0.7999507652508218
0.80185648323696,0.80185648323696
0.8012212439082473,0.8012212439082473
0.8043974405518112,0.8043974405518112
0.8056679192092366,0.8056679192092366
0.8094793551815133,0.8094793551815133
0.8120203124963643,0.8120203124963643
0.8209136630983431,0.8209136630983431
0.8298070137003218,0.8298070137003218
0.84314703960329,0.84314703960329
0.8533108688626942,0.8533108688626942
0.8590280228211092,0.8590280228211092
0.8583927834923964,0.8583927834923964
0.851405150876556,0.851405150876556
0.8380651249735879,0.8380651249735879
0.8253603383993325,0.8253603383993325
0.8171022271260665,0.8171022271260665
0.8196431844409175,0.8196431844409175
0.8329832103438857,0.8329832103438857
0.8545813475201198,0.8545813475201198
0.8749090060389284,0.8749090060389284
0.8901547499280349,0.8901547499280349
0.8926957072428859,0.8926957072428859
0.8825318779834816,0.8825318779834816
0.859663262149822,0.859663262149822
0.832347971015173,0.832347971015173
0.8056679192092366,0.8056679192092366
0.791057414648843,0.791057414648843
0.7878812180052791,0.7878812180052791
0.8024917225656728,0.8024917225656728
0.8228193810844814,0.8228193810844814
0.8494994328904177,0.8494994328904177
0.8685566127518007,0.8685566127518007
0.8850728352983327,0.8850728352983327
0.8901547499280349,0.8901547499280349
0.8977776218725881,0.8977776218725881
0.900953818516152,0.900953818516152
0.9111176477755563,0.9111176477755563
0.9168348017339711,0.9168348017339711
0.9250929130072372,0.9250929130072372
0.9212814770349605,0.9212814770349605
0.9136586050904073,0.9136586050904073
0.8939661859003115,0.8939661859003115
0.8799909206686306,0.8799909206686306
0.8736385273815029,0.8736385273815029
0.8920604679141731,0.8920604679141731
0.9269986309933754,0.9269986309933754
0.9752768199755458,0.9752768199755458
1.0152968976844503,1.0152968976844503
1.0388007528468226,1.0388007528468226
1.0368950348606845,1.0368950348606845
1.021649290971578,1.021649290971578
1.0000511537953438,1.0000511537953438
0.9848054099062373,0.9848054099062373
0.9765472986329714,0.9765472986329714
0.9752768199755458,0.9752768199755458
0.9752768199755458,0.9752768199755458
0.9771825379616842,0.9771825379616842
0.9797234952765352,0.9797234952765352
0.9873463672210885,0.9873463672210885
0.9975101964804928,0.9975101964804928
1.0108502223834608,1.0108502223834608
1.0222845303002908,1.0222845303002908
1.0337188382171205,1.0337188382171205
1.0413417101616738,1.0413417101616738
1.0502350607636526,1.0502350607636526
1.0584931720369186,1.0584931720369186
1.0699274799537484,1.0699274799537484
1.0794560698844398,1.0794560698844398
1.0896198991438442,1.0896198991438442
1.0915256171299825,1.0915256171299825
1.0921608564586953,1.0921608564586953
1.081997027199291,1.081997027199291
1.0737389159260249,1.0737389159260249
1.0610341293517696,1.0610341293517696
1.0591284113656312,1.0591284113656312
1.0610341293517696,1.0610341293517696
1.0756446339121633,1.0756446339121633
1.0877141811577058,1.0877141811577058
1.1061361216903762,1.1061361216903762
1.111853275648791,1.111853275648791
1.1207466262507697,1.1207466262507697
1.1194761475933444,1.1194761475933444
1.1201113869220571,1.1201113869220571
1.114394232963642,1.114394232963642
1.112488514977504,1.112488514977504
1.106771361019089,1.106771361019089
1.1055008823616634,1.1055008823616634
1.0991484890745358,1.0991484890745358
1.0959722924309718,1.0959722924309718
1.0921608564586953,1.0921608564586953
1.0947018137735463,1.0947018137735463
1.0947018137735463,1.0947018137735463
1.0915256171299825,1.0915256171299825
1.0800913092131526,1.0800913092131526
1.0775503518983016,1.0775503518983016
1.1061361216903762,1.1061361216903762
1.1855410377794722,1.1855410377794722
1.2998841169477706,1.2998841169477706
1.402157648870526,1.402157648870526
1.426931982690324,1.426931982690324
1.336727998013111,1.336727998013111
1.149967635371557,1.149967635371557
0.9416091355537691,0.9416091355537691
0.7955040899498323,0.7955040899498323
0.7605659268706301,0.7605659268706301
0.8196431844409175,0.8196431844409175
0.9212814770349605,0.9212814770349605
1.0013216324527694,1.0013216324527694
1.0388007528468226,1.0388007528468226
1.0362597955319717,1.0362597955319717
1.0222845303002908,1.0222845303002908
1.0102149830547482,1.0102149830547482
1.0095797437260354,1.0095797437260354
1.0083092650686099,1.0083092650686099
1.0089445043973226,1.0089445043973226
1.002592111110195,1.002592111110195
1.0013216324527694,1.0013216324527694
0.99687495715178,0.99687495715178
0.9981454358092056,0.9981454358092056
0.9905225638646523,0.9905225638646523
0.988616845878514,0.988616845878514
0.9790882559478225,0.9790882559478225
0.9790882559478225,0.9790882559478225
0.9733711019894076,0.9733711019894076
0.9714653840032692,0.9714653840032692
0.9663834693735671,0.9663834693735671
0.9625720334012905,0.9625720334012905
0.9549491614567372,0.9549491614567372
0.9492320074983224,0.9492320074983224
0.9390681782389181,0.9390681782389181
0.9301748276369393,0.9301748276369393
0.9193757590488222,0.9193757590488222
0.911752887104269,0.911752887104269
0.9022242971735774,0.9022242971735774
0.8958719038864498,0.8958719038864498
0.8876137926131838,0.8876137926131838
0.8812613993260561,0.8812613993260561
0.8736385273815029,0.8736385273815029
0.867921373423088,0.867921373423088
0.8602985014785347,0.8602985014785347
0.8533108688626942,0.8533108688626942
0.8450527575894283,0.8450527575894283
0.8380651249735879,0.8380651249735879
0.829171774371609,0.829171774371609
0.8215489024270559,0.8215489024270559
0.8132907911537899,0.8132907911537899
0.8069383978666622,0.8069383978666622
0.8005860045795345,0.8005860045795345
0.7967745686072579,0.7967745686072579
0.7904221753201303,0.7904221753201303
0.7840697820330026,0.7840697820330026
0.7739059527735983,0.7739059527735983
0.7650126021716195,0.7650126021716195
0.7548487729122152,0.7548487729122152
0.7478611402963747,0.7478611402963747
0.7351563537221194,0.7351563537221194
0.7192753705043001,0.7192753705043001
0.6925953186983639,0.6925953186983639
0.6684562242072787,0.6684562242072787
0.6487638050171828,0.6487638050171828
0.6525752409894595,0.6525752409894595
0.6735381388369809,0.6735381388369809
0.7091115412448958,0.7091115412448958
0.7345211143934066,0.7345211143934066
0.7459554223102365,0.7459554223102365
0.7319801570785556,0.7319801570785556
0.708476301916183,0.708476301916183
0.6805257714528213,0.6805257714528213
0.662103830920151,0.662103830920151
0.6487638050171828,0.6487638050171828
0.6424114117300551,0.6424114117300551
0.6347885397855019,0.6347885397855019
0.6297066251557998,0.6297066251557998
0.6227189925399593,0.6227189925399593
0.6201780352251082,0.6201780352251082
0.6182723172389699,0.6182723172389699
0.6195427958963955,0.6195427958963955
0.6195427958963955,0.6195427958963955
0.6201780352251082,0.6201780352251082
0.6182723172389699,0.6182723172389699
0.6150961205954061,0.6150961205954061
0.6100142059657039,0.6100142059657039
0.6030265733498634,0.6030265733498634
0.5934979834191719,0.5934979834191719
0.5826989148310548,0.5826989148310548
0.5712646069142251,0.5712646069142251
0.560465538326108,0.560465538326108
0.5496664697379909,0.5496664697379909
0.5420435977934377,0.5420435977934377
0.5363264438350228,0.5363264438350228
0.5337854865201717,0.5337854865201717
0.5318797685340334,0.5318797685340334
0.5306092898766078,0.5306092898766078
0.5255273752469057,0.5255273752469057
0.5236216572607674,0.5236216572607674
0.5185397426310653,0.5185397426310653
0.5153635459875014,0.5153635459875014
0.5115521100152248,0.5115521100152248
0.5064701953855226,0.5064701953855226
0.5007530414271077,0.5007530414271077
0.4975768447835439,0.4975768447835439
0.491859690825129,0.491859690825129
0.48931873351027794,0.48931873351027794
0.4829663402231502,0.4829663402231502
0.4816958615657247,0.4816958615657247
0.4810606222370119,0.4810606222370119
0.4842368188805758,0.4842368188805758
0.48042538290829917,0.48042538290829917
0.4728025109637459,0.4728025109637459
0.46708535700533105,0.46708535700533105
0.4848720582092885,0.4848720582092885
0.5388674011498739,0.5388674011498739
0.6239894711973848,0.6239894711973848
0.6983124726567788,0.6983124726567788
0.7097467805736086,0.7097467805736086
0.6201780352251082,0.6201780352251082
0.448028177143948,0.448028177143948
0.2561858998726919,0.2561858998726919
0.1253265981578616,0.1253265981578616
0.10055226433806363,0.10055226433806363
0.17296954781131924,0.17296954781131924
0.2866773876509048,0.2866773876509048
0.38386900494395837,0.38386900494395837
0.4327824332548415,0.4327824332548415
0.44040530519939475,0.44040530519939475
0.43024147593999046,0.43024147593999046
0.4226186039954372,0.4226186039954372
0.4226186039954372,0.4226186039954372
0.4245243219815755,0.4245243219815755
0.4219833646667245,0.4219833646667245
0.41563097137959676,0.41563097137959676
0.40546714212019247,0.40546714212019247
0.3953033128607882,0.3953033128607882
0.38196328695782006,0.38196328695782006
0.3648118250825753,0.3648118250825753
0.34130796992020285,0.34130796992020285
0.31970983274396875,0.31970983274396875
0.3019231315400112,0.3019231315400112
0.29493549892417076,0.29493549892417076
0.29684121691030907,0.29684121691030907
0.30764028549842615,0.30764028549842615
0.3260622260310964,0.3260622260310964
0.3514717991796072,0.3514717991796072
0.3768813723281179,0.3768813723281179
0.40546714212019247,0.40546714212019247
0.42770051862513936,0.42770051862513936
0.4467576984865224,0.4467576984865224
0.4575567670746395,0.4575567670746395
0.4677205963340438,0.4677205963340438
0.4740729896211715,0.4740729896211715
0.4816958615657247,0.4816958615657247
0.4855072975380013,0.4855072975380013
0.48804825485285236,0.48804825485285236
0.4810606222370119,0.4810606222370119
0.46708535700533105,0.46708535700533105
0.44231102318553306,0.44231102318553306
0.414995732050884,0.414995732050884
0.387680440916235,0.387680440916235
0.37052897904099025,0.37052897904099025
0.3641765857538625,0.3641765857538625
0.3724346970271285,0.3724346970271285
0.39276235554593714,0.39276235554593714
0.4213481253380117,0.4213481253380117
0.45183961311622456,0.45183961311622456
0.4816958615657247,0.4816958615657247
0.5064701953855226,0.5064701953855226
0.5255273752469057,0.5255273752469057
0.5388674011498739,0.5388674011498739
0.5490312304092781,0.5490312304092781
0.5534779057102676,0.5534779057102676
0.5509369483954164,0.5509369483954164
0.5382321618211611,0.5382321618211611
0.5153635459875014,0.5153635459875014
0.4861425368667141,0.4861425368667141
0.4632739210330544,0.4632739210330544
0.4556510490885012,0.4556510490885012
0.4696263143201821,0.4696263143201821
0.4950358874686928,0.4950358874686928
0.5217159392746291,0.5217159392746291
0.5344207258488844,0.5344207258488844
0.5325150078627462,0.5325150078627462
0.5204454606172035,0.5204454606172035
0.5115521100152248,0.5115521100152248
0.5102816313577992,0.5102816313577992
0.5198102212884909,0.5198102212884909
0.5325150078627462,0.5325150078627462
0.5445845551082887,0.5445845551082887
0.5496664697379909,0.5496664697379909
0.5509369483954164,0.5509369483954164
0.5490312304092781,0.5490312304092781
0.5452197944370015,0.5452197944370015
0.5407731191360121,0.5407731191360121
0.5344207258488844,0.5344207258488844
0.5293388112191824,0.5293388112191824
0.5255273752469057,0.5255273752469057
0.524892135918193,0.524892135918193
0.5229864179320547,0.5229864179320547
0.5179045033023525,0.5179045033023525
0.4994825627696822,0.4994825627696822
0.46581487834790547,0.46581487834790547
0.4124547747360329,0.4124547747360329
0.34384892723505395,0.34384892723505395
0.2650792504746707,0.2650792504746707
0.18503909505686184,0.18503909505686184
0.10118750366677641,0.10118750366677641
0.008442561674712225,0.008442561674712225
-0.10780623547972441,-0.10780623547972441
-0.257087477727225,-0.257087477727225
-0.4400364043965023,-0.4400364043965023
-0.6395015536123115,-0.6395015536123115
-0.838331463499408,-0.838331463499408
-1.016833714867696,-1.016833714867696
-1.1711968717448986,-1.1711968717448986
-1.307773327418144,-1.307773327418144
-1.4405383471191127,-1.4405383471191127
-1.5777500421210706,-1.5777500421210706
-1.7289370023547095,-1.7289370023547095
-1.8801239625883484,-1.8801239625883484
-2.0274994868497105,-2.0274994868497105
-2.1564530705784026,-2.1564530705784026
-2.2669847137744243,-2.2669847137744243
-2.356553459122925,-2.356553459122925
-2.424524067295191,-2.424524067295191
-2.465814623661521,-2.465814623661521
-2.475978452920925,-2.475978452920925
-2.4543803157446913,-2.4543803157446913
-2.4099135627347974,-2.4099135627347974
-2.3514715444932226,-2.3514715444932226
-2.2796895003486797,-2.2796895003486797
-2.177415968425924,-2.177415968425924
-2.0319461621507,-2.0319461621507
-1.8413743635368696,-1.8413743635368696
-1.6444501716359112,-1.6444501716359112
-1.4938984507309852,-1.4938984507309852
-1.4405383471191127,-1.4405383471191127
-1.4786527068418787,-1.4786527068418787
-1.5593281015884004,-1.5593281015884004
-1.5955367433250283,-1.5955367433250283
-1.5339185284398895,-1.5339185284398895
-1.3643096276735804,-1.3643096276735804
-1.1387996659805475,-1.1387996659805475
-0.9145601829449402,-0.9145601829449402
-0.7354226922479395,-0.7354226922479395
-0.60011671523212,-0.60011671523212
-0.4946669866658004,-0.4946669866658004
-0.39493441205789576,-0.39493441205789576
-0.29837803409355496,-0.29837803409355496
-0.20690357075891627,-0.20690357075891627
-0.12940437265595853,-0.12940437265595853
-0.06270424314111785,-0.06270424314111785
-0.002991746242117607,-0.002991746242117607
0.05862646864302093,0.05862646864302093
0.12215040151429776,0.12215040151429776
0.18821529170042567,0.18821529170042567
0.2555506605439791,0.2555506605439791
0.32225079005881985,0.32225079005881985
0.39339759487464987,0.39339759487464987
0.46454439969047995,0.46454439969047995
0.5382321618211611,0.5382321618211611
0.6081084879795656,0.6081084879795656
0.6760790961518319,0.6760790961518319
0.7364268323795449,0.7364268323795449
0.7955040899498323,0.7955040899498323
0.8425118002745773,0.8425118002745773
0.8888842712706093,0.8888842712706093
0.9244576736785244,0.9244576736785244
0.9606663154151521,0.9606663154151521
0.9873463672210885,0.9873463672210885
1.0191083336567268,1.0191083336567268
1.0426121888190993,1.0426121888190993
1.0750093945834505,1.0750093945834505
1.1016894463893867,1.1016894463893867
1.139803806112153,1.139803806112153
1.1734714905339296,1.1734714905339296
1.218573482872536,1.218573482872536
1.2624049965537172,1.2624049965537172
1.3183060574804406,1.3183060574804406
1.374842357735877,1.374842357735877
1.443448205236856,1.443448205236856
1.5133245313952606,1.5133245313952606
1.5927294474843565,1.5927294474843565
1.674040081559591,1.674040081559591
1.7629735875793786,1.7629735875793786
1.8538128115853045,1.8538128115853045
1.9516396682070707,1.9516396682070707
2.049466524828837,2.049466524828837
2.151740056751593,2.151740056751593
2.252743110016923,2.252743110016923
2.353746163282253,2.353746163282253
2.44712634460303,2.44712634460303
2.5316131753218283,2.5316131753218283
2.6021247408089456,2.6021247408089456
2.664378195022797,2.664378195022797
2.724090691921797,2.724090691921797
2.7914260607653505,2.7914260607653505
2.864478583567319,2.864478583567319
2.939436824355426,2.939436824355426
2.9972436032682874,2.9972436032682874
3.031546527018777,3.031546527018777
3.0328170056762027,3.0328170056762027
3.0143950651435323,3.0143950651435323
2.9794569020643302,2.9794569020643302
2.947059696299979,2.947059696299979
2.9102158152346385,2.9102158152346385
2.8759128914841487,2.8759128914841487
2.828905181159404,2.828905181159404
2.7806269921772335,2.7806269921772335
2.717103059305957,2.717103059305957
2.656120083749531,2.656120083749531
2.5817970822901373,2.5817970822901373
2.5125559954604455,2.5125559954604455
2.4299748827277856,2.4299748827277856
2.354381402610966,2.354381402610966
2.2667183752486038,2.2667183752486038
2.187313459159508,2.187313459159508
2.097109474482295,2.097109474482295
2.0170693190644857,2.0170693190644857
1.9268653343872728,1.9268653343872728
1.8461899396407513,1.8461899396407513
1.7578916729496763,1.7578916729496763
1.6810277141754315,1.6810277141754315
1.5965408834566333,1.5965408834566333
1.5209474033398138,1.5209474033398138
1.4415424872507177,1.4415424872507177
1.369760443106175,1.369760443106175
1.2935317236606427,1.2935317236606427
1.2249258761596638,1.2249258761596638
1.1569552679873976,1.1569552679873976
1.0966075317596846,1.0966075317596846
1.0362597955319717,1.0362597955319717
0.9879816065498012,0.9879816065498012
0.9416091355537691,0.9416091355537691
0.903494775831003,0.903494775831003
0.867921373423088,0.867921373423088
0.8329832103438857,0.8329832103438857
0.7974098079359707,0.7974098079359707
0.7637421235141939,0.7637421235141939
0.7275334817775662,0.7275334817775662
0.6932305580270767,0.6932305580270767
0.6570219162904488,0.6570219162904488
0.6278009071696614,0.6278009071696614
0.6030265733498634,0.6030265733498634
0.5865103508033315,0.5865103508033315
0.5687236495993739,0.5687236495993739
0.5471255124231399,0.5471255124231399
0.5223511786033419,0.5223511786033419
0.5191749819597781,0.5191749819597781
0.5579245810112569,0.5579245810112569
0.6500342836746084,0.6500342836746084
0.758024969555779,0.758024969555779
0.826630817056758,0.826630817056758
0.7904221753201303,0.7904221753201303
0.6405056937439169,0.6405056937439169
0.41753668936573507,0.41753668936573507
0.21680106149250025,0.21680106149250025
0.10690465762519133,0.10690465762519133
0.11579800822717008,0.11579800822717008
0.20155531760339382,0.20155531760339382
0.30573456751228784,0.30573456751228784
0.3730699363558413,0.3730699363558413
0.3965737915182137,0.3965737915182137
0.387680440916235,0.387680440916235
0.3743404150132668,0.3743404150132668
0.36544706441128805,0.36544706441128805
0.36544706441128805,0.36544706441128805
0.36608230374000084,0.36608230374000084
0.36735278239742636,0.36735278239742636
0.3667175430687136,0.3667175430687136
0.36862326105485194,0.36862326105485194
0.37052897904099025,0.37052897904099025
0.3724346970271285,0.3724346970271285
0.37179945769841577,0.37179945769841577
0.3730699363558413,0.3730699363558413
0.3730699363558413,0.3730699363558413
0.3762461329994051,0.3762461329994051
0.3756108936706924,0.3756108936706924
0.371164218369703,0.371164218369703
0.36544706441128805,0.36544706441128805
0.3590946711241604,0.3590946711241604
0.35591847448059655,0.35591847448059655
0.3590946711241604,0.3590946711241604
0.36735278239742636,0.36735278239742636
0.3845042442726711,0.3845042442726711
0.40800809943504357,0.40800809943504357
0.4391348265419692,0.4391348265419692
0.4696263143201821,0.4696263143201821
0.5007530414271077,0.5007530414271077
0.5255273752469057,0.5255273752469057
0.5483959910805654,0.5483959910805654
0.5668179316132357,0.5668179316132357
0.5858751114746187,0.5858751114746187
0.6023913340211507,0.6023913340211507
0.6195427958963955,0.6195427958963955
0.6297066251557998,0.6297066251557998
0.6373294971003529,0.6373294971003529
0.6322475824706508,0.6322475824706508
0.6214485138825337,0.6214485138825337
0.6011208553637252,0.6011208553637252
0.5826989148310548,0.5826989148310548
0.5649122136270973,0.5649122136270973
0.5566541023538314,0.5566541023538314
0.5560188630251186,0.5560188630251186
0.5661826922845229,0.5661826922845229
0.5814284361736294,0.5814284361736294
0.6036618126785762,0.6036618126785762
0.6271656678409486,0.6271656678409486
0.6493990443458956,0.6493990443458956
0.6601981129340126,0.6601981129340126
0.6551161983043106,0.6551161983043106
0.6341533004567891,0.6341533004567891
0.6074732486508528,0.6074732486508528
0.5896865474468953,0.5896865474468953
0.5934979834191719,0.5934979834191719
0.620813274553821,0.620813274553821
0.6627390702488638,0.6627390702488638
0.7008534299716299,0.7008534299716299
0.7268982424488534,0.7268982424488534
0.7383325503656832,0.7383325503656832
0.7427792256666726,0.7427792256666726
0.7459554223102365,0.7459554223102365
0.7542135335835024,0.7542135335835024
0.7618364055280556,0.7618364055280556
0.7675535594864705,0.7675535594864705
0.7656478415003323,0.7656478415003323
0.7618364055280556,0.7618364055280556
0.7548487729122152,0.7548487729122152
0.7504020976112258,0.7504020976112258
0.7427792256666726,0.7427792256666726
0.7376973110369704,0.7376973110369704
0.728168721106279,0.728168721106279
0.7199106098330129,0.7199106098330129
0.7097467805736086,0.7097467805736086
0.703394387286481,0.703394387286481
0.6951362760132149,0.6951362760132149
0.6906896007122256,0.6906896007122256
0.6849724467538106,0.6849724467538106
0.6843372074250978,0.6843372074250978
0.6792552927953958,0.6792552927953958
0.681161010781534,0.681161010781534
0.681161010781534,0.681161010781534
0.686878164739949,0.686878164739949
0.6906896007122256,0.6906896007122256
0.6989477119854915,0.6989477119854915
0.7027591479577682,0.7027591479577682
0.7072058232587576,0.7072058232587576
0.705935344601332,0.705935344601332
0.7046648659439065,0.7046648659439065
0.6983124726567788,0.6983124726567788
0.6945010366845022,0.6945010366845022
0.6887838827260873,0.6887838827260873
0.6824314894389596,0.6824314894389596
0.6754438568231191,0.6754438568231191
0.6678209848785659,0.6678209848785659
0.6589276342765872,0.6589276342765872
0.6519400016607467,0.6519400016607467
0.6449523690449062,0.6449523690449062
0.6392352150864913,0.6392352150864913
0.6335180611280764,0.6335180611280764
0.631612343141938,0.631612343141938
0.6328828217993636,0.6328828217993636
0.6322475824706508,0.6322475824706508
0.6239894711973848,0.6239894711973848
0.6131904026092677,0.6131904026092677
0.6150961205954061,0.6150961205954061
0.6506695230033211,0.6506695230033211
0.7243572851340023,0.7243572851340023
0.8145612698112155,0.8145612698112155
0.867921373423088,0.867921373423088
0.8361594069874495,0.8361594069874495
0.703394387286481,0.703394387286481
0.5159987853162142,0.5159987853162142
0.34638988454990505,0.34638988454990505
0.2657144898033834,0.2657144898033834
0.2879478663083303,0.2879478663083303
0.3845042442726711,0.3845042442726711
0.48804825485285236,0.48804825485285236
0.5585598203399696,0.5585598203399696
0.5782522395300655,0.5782522395300655
0.5706293675855123,0.5706293675855123
0.5534779057102676,0.5534779057102676
0.5471255124231399,0.5471255124231399
0.5439493157795761,0.5439493157795761
0.5433140764508633,0.5433140764508633
0.5363264438350228,0.5363264438350228
0.5293388112191824,0.5293388112191824
0.5210806999459163,0.5210806999459163
0.5166340246449269,0.5166340246449269
0.5115521100152248,0.5115521100152248
0.5077406740429482,0.5077406740429482
0.500117802098395,0.500117802098395
0.4963063661261184,0.4963063661261184
0.48995397283899067,0.48995397283899067
0.4848720582092885,0.4848720582092885
0.47915490425087365,0.47915490425087365
0.4715320323063204,0.4715320323063204
0.46517963901919274,0.46517963901919274
0.4600977243894906,0.4600977243894906
0.45374533110236287,0.45374533110236287
0.448028177143948,0.448028177143948
0.44104054452810754,0.44104054452810754
0.4340529119122671,0.4340529119122671
0.42643003996771384,0.42643003996771384
0.4207128860092989,0.4207128860092989
0.414995732050884,0.414995732050884
0.4105490567498946,0.4105490567498946
0.40610238144890526,0.40610238144890526
0.40229094547662864,0.40229094547662864
0.3965737915182137,0.3965737915182137
0.39149187688851156,0.39149187688851156
0.3857747229300967,0.3857747229300967
0.38196328695782006,0.38196328695782006
0.3762461329994051,0.3762461329994051
0.3730699363558413,0.3730699363558413
0.36798802172613915,0.36798802172613915
0.3635413464251498,0.3635413464251498
0.35782419246673486,0.35782419246673486
0.354647995823171,0.354647995823171
0.3489308418647561,0.3489308418647561
0.34384892723505395,0.34384892723505395
0.33559081596178797,0.33559081596178797
0.32923842267466025,0.32923842267466025
0.32161555073010706,0.32161555073010706
0.31780411475783044,0.31780411475783044
0.3127222001281283,0.3127222001281283
0.3044640888548623,0.3044640888548623
0.28731262697961757,0.28731262697961757
0.2644440111459579,0.2644440111459579
0.242210634641011,0.242210634641011
0.23458776269645779,0.23458776269645779
0.24475159195586207,0.24475159195586207
0.2746078404053622,0.2746078404053622
0.30764028549842615,0.30764028549842615
0.33114414066079856,0.33114414066079856
0.33241461931822414,0.33241461931822414
0.3158983967716921,0.3158983967716921
0.2898535842944686,0.2898535842944686
0.266984968460809,0.266984968460809
0.2530097032291281,0.2530097032291281
0.2485630279281387,0.2485630279281387
0.2479277885994259,0.2479277885994259
0.2479277885994259,0.2479277885994259
0.24475159195586207,0.24475159195586207
0.2403049166548727,0.2403049166548727
0.23522300202517055,0.23522300202517055
0.22950584806675564,0.22950584806675564
0.2244239334370535,0.2244239334370535
0.2199772581360641,0.2199772581360641
0.21680106149250025,0.21680106149250025
0.21489534350636197,0.21489534350636197
0.21235438619151087,0.21235438619151087
0.2098134288766598,0.2098134288766598
0.2060019929043832,0.2060019929043832
0.20155531760339382,0.20155531760339382
0.19647340297369167,0.19647340297369167
0.1939324456588406,0.1939324456588406
0.19075624901527677,0.19075624901527677
0.18948577035785122,0.18948577035785122
0.1875800523717129,0.1875800523717129
0.18694481304300015,0.18694481304300015
0.1837686163994363,0.1837686163994363
0.18249813774201076,0.18249813774201076
0.181862898413298,0.181862898413298
0.181862898413298,0.181862898413298
0.1799571804271597,0.1799571804271597
0.18059241975587245,0.18059241975587245
0.17741622311230862,0.17741622311230862
0.17614574445488307,0.17614574445488307
0.17424002646874479,0.17424002646874479
0.17106382982518092,0.17106382982518092
0.1678876331816171,0.1678876331816171
0.16661715452419157,0.16661715452419157
0.16534667586676602,0.16534667586676602
0.16471143653805326,0.16471143653805326
0.1615352398944894,0.1615352398944894
0.15835904325092556,0.15835904325092556
0.15645332526478725,0.15645332526478725
0.1577238039222128,0.1577238039222128
0.15899428257963832,0.15899428257963832
0.15518284660736173,0.15518284660736173
0.14628949600538296,0.14628949600538296
0.14628949600538296,0.14628949600538296
0.17678098378359586,0.17678098378359586
0.25110398524298977,0.25110398524298977
0.3514717991796072,0.3514717991796072
0.431511954597416,0.431511954597416
0.4340529119122671,0.4340529119122671
0.33304985864693687,0.33304985864693687
0.15645332526478725,0.15645332526478725
-0.023319404760926195,-0.023319404760926195
-0.12940437265595853,-0.12940437265595853
-0.12749865466982022,-0.12749865466982022
-0.04237658462230925,-0.04237658462230925
0.06879029790242523,0.06879029790242523
0.15264188929251066,0.15264188929251066
0.18821529170042567,0.18821529170042567
0.18694481304300015,0.18694481304300015
0.17487526579745755,0.17487526579745755
0.16915811183904264,0.16915811183904264
0.17296954781131924,0.17296954781131924
0.17868670176973417,0.17868670176973417
0.18249813774201076,0.18249813774201076
0.18249813774201076,0.18249813774201076
0.18249813774201076,0.18249813774201076
0.18249813774201076,0.18249813774201076
0.18440385572814907,0.18440385572814907
0.18313337707072352,0.18313337707072352
0.1837686163994363,0.1837686163994363
0.18122765908458524,0.18122765908458524
0.181862898413298,0.181862898413298
0.18249813774201076,0.18249813774201076
0.1837686163994363,0.1837686163994363
0.18821529170042567,0.18821529170042567
0.19266196700141505,0.19266196700141505
0.19901436028854275,0.19901436028854275
0.20536675357567044,0.20536675357567044
0.20917818954794704,0.20917818954794704
0.21044866820537259,0.21044866820537259
0.2117191468627981,0.2117191468627981
0.21362486484893642,0.21362486484893642
0.2161658221637875,0.2161658221637875
0.22061249746477687,0.22061249746477687
0.2237886941083407,0.2237886941083407
0.22696489075190457,0.22696489075190457
0.22950584806675564,0.22950584806675564
0.23268204471031947,0.23268204471031947
0.23776395934002162,0.23776395934002162
0.24348111329843652,0.24348111329843652
0.24919826725685146,0.24919826725685146
0.25110398524298977,0.25110398524298977
0.24665730994200039,0.24665730994200039
0.23268204471031947,0.23268204471031947
0.21298962552022366,0.21298962552022366
0.18885053102913846,0.18885053102913846
0.1716990691538937,0.1716990691538937
0.16090000056577664,0.16090000056577664
0.16598191519547878,0.16598191519547878
0.17932194109844693,0.17932194109844693
0.20536675357567044,0.20536675357567044
0.23141156605289392,0.23141156605289392
0.26190305383110685,0.26190305383110685
0.28159547302120264,0.28159547302120264
0.29302978093803245,0.29302978093803245
0.277784037048926,0.277784037048926
0.24665730994200039,0.24665730994200039
0.18948577035785122,0.18948577035785122
0.1316789914449893,0.1316789914449893
0.069425537231138,0.069425537231138
0.01924163026282929,0.01924163026282929
-0.039835627307458175,-0.039835627307458175
-0.11161767145200102,-0.11161767145200102
-0.22214931464802273,-0.22214931464802273
-0.36634864226582114,-0.36634864226582114
-0.5448508936341091,-0.5448508936341091
-0.7316112562756629,-0.7316112562756629
-0.912654464958802,-0.912654464958802
-1.0682881004934301,-1.0682881004934301
-1.1991474022082604,-1.1991474022082604
-1.3096790454042824,-1.3096790454042824
-1.417669731285453,-1.417669731285453
-1.535189007097315,-1.535189007097315
-1.670494984113135,-1.670494984113135
-1.8191409870319226,-1.8191409870319226
-1.9728689045804126,-1.9728689045804126
-2.1221501468279134,-2.1221501468279134
-2.260632320487297,-2.260632320487297
-2.3864097075724247,-2.3864097075724247
-2.4994823080832975,-2.4994823080832975
-2.5954034467189255,-2.5954034467189255
-2.662738815562479,-2.662738815562479
-2.6913245853545535,-2.6913245853545535
-2.671632166164458,-2.671632166164458
-2.607472993964468,-2.607472993964468
-2.5083756586852766,-2.5083756586852766
-2.3933973401882653,-2.3933973401882653
-2.273972346390265,-2.273972346390265
-2.157723549235828,-2.157723549235828
-2.0471919060398065,-2.0471919060398065
-1.9398364594873487,-1.9398364594873487
-1.835021970249742,-1.835021970249742
-1.7308427203408479,-1.7308427203408479
-1.6279339490893794,-1.6279339490893794
-1.521848981194347,-1.521848981194347
-1.4157640132993148,-1.4157640132993148
-1.3071380880894312,-1.3071380880894312
-1.1940654875785583,-1.1940654875785583
-1.074005254451845,-1.074005254451845
-0.9507688246815681,-0.9507688246815681
-0.8160980869944612,-0.8160980869944612
-0.6833330672934925,-0.6833330672934925
-0.5416746969905453,-0.5416746969905453
-0.4101801559470022,-0.4101801559470022
-0.28249705087573573,-0.28249705087573573
-0.1764120829807034,-0.1764120829807034
-0.07985570501636259,-0.07985570501636259
-0.0004507889272665335,-0.0004507889272665335
0.07895412716182952,0.07895412716182952
0.14692473533409572,0.14692473533409572
0.2079077108905215,0.2079077108905215
0.2555506605439791,0.2555506605439791
0.3127222001281283,0.3127222001281283
0.3997499881617776,0.3997499881617776
0.5458550337657143,0.5458550337657143
0.7364268323795449,0.7364268323795449
0.9250929130072372,0.9250929130072372
1.0381655135181098,1.0381655135181098
1.0311778809022694,1.0311778809022694
0.9168348017339711,0.9168348017339711
0.7675535594864705,0.7675535594864705
0.6722676601795553,0.6722676601795553
0.6830667287676724,0.6830667287676724
0.7916926539775557,0.7916926539775557
0.9371624602527797,0.9371624602527797
1.0642103259953335,1.0642103259953335
1.136627609468589,1.136627609468589
1.172201011876504,1.172201011876504
1.1868115164368978,1.1868115164368978
1.2141268075715468,1.2141268075715468
1.2477944919933235,1.2477944919933235
1.2960726809754939,1.2960726809754939
1.339268955327962,1.339268955327962
1.3932642982685473,1.3932642982685473
1.4453539232229944,1.4453539232229944
1.5139597707239734,1.5139597707239734
1.580659900238814,1.580659900238814
1.662605773642761,1.662605773642761
1.7381992537595805,1.7381992537595805
1.8315794350803576,1.8315794350803576
1.9173367444565812,1.9173367444565812
2.019610276379337,2.019610276379337
2.112990457700114,2.112990457700114
2.2152639896228696,2.2152639896228696
2.3086441709436465,2.3086441709436465
2.4083767455515512,2.4083767455515512
2.4954045335852006,2.4954045335852006
2.5862437575911263,2.5862437575911263
2.6637429556940844,2.6637429556940844
2.740606914468329,2.740606914468329
2.804130847339606,2.804130847339606
2.865113822896032,2.865113822896032
2.911486293892064,2.911486293892064
2.9508711322722556,2.9508711322722556
2.976915944749479,2.976915944749479
2.9959731246108623,2.9959731246108623
3.0023255178979897,3.0023255178979897
2.9997845605831386,2.9997845605831386
2.985174056022745,2.985174056022745
2.9623054401890854,2.9623054401890854
2.9286377557673084,2.9286377557673084
2.8873471994009785,2.8873471994009785
2.8358928137752444,2.8358928137752444
2.7774507955336696,2.7774507955336696
2.710750666018829,2.710750666018829
2.639603861202999,2.639603861202999
2.5614694237713285,2.5614694237713285
2.4795235503673814,2.4795235503673814
2.3912252836763064,2.3912252836763064
2.3003860596703807,2.3003860596703807
2.2057353996921782,2.2057353996921782
2.1142609363575393,2.1142609363575393
2.0183397977219113,2.0183397977219113
1.9224186590862835,1.9224186590862835
1.8150632125338255,1.8150632125338255
1.7032610906803782,1.7032610906803782
1.5851065755398035,1.5851065755398035
1.4841035222744732,1.4841035222744732
1.399616691555675,1.399616691555675
1.3487975452586536,1.3487975452586536
1.3049660315774725,1.3049660315774725
1.2674869111834193,1.2674869111834193
1.2045982176408552,1.2045982176408552
1.1321809341675997,1.1321809341675997
1.0394359921755354,1.0394359921755354
0.9574901187715883,0.9574901187715883
0.8780852026824922,0.8780852026824922
0.8196431844409175,0.8196431844409175
0.7624716448567684,0.7624716448567684
0.7160991738607363,0.7160991738607363
0.6652800275637148,0.6652800275637148
0.6220837532112465,0.6220837532112465
0.5750760428865016,0.5750760428865016
0.5363264438350228,0.5363264438350228
0.4950358874686928,0.4950358874686928
0.4594624850607778,0.4594624850607778
0.4207128860092989,0.4207128860092989
0.387680440916235,0.387680440916235
0.3527422778370327,0.3527422778370327
0.3228860293875326,0.3228860293875326
0.2923945416093197,0.2923945416093197
0.2650792504746707,0.2650792504746707
0.23966967732615993,0.23966967732615993
0.2180715401499258,0.2180715401499258
0.1958381636449789,0.1958381636449789
0.17678098378359586,0.17678098378359586
0.1577238039222128,0.1577238039222128
0.13993710271825527,0.13993710271825527
0.1234208801717233,0.1234208801717233
0.11008085426875516,0.11008085426875516
0.09674082836578703,0.09674082836578703
0.08784747776380827,0.08784747776380827
0.08085984514796783,0.08085984514796783
0.07577793051826567,0.07577793051826567
0.07006077655985077,0.07006077655985077
0.06688457991628692,0.06688457991628692
0.06180266528658477,0.06180266528658477
0.059896947300446465,0.059896947300446465
0.0592617079717337,0.0592617079717337
0.05735598998559539,0.05735598998559539
0.05608551132816986,0.05608551132816986
0.053544554013318785,0.053544554013318785
0.05227407535589325,0.05227407535589325
0.05163883602718048,0.05163883602718048
0.04973311804104217,0.04973311804104217
0.0471921607261911,0.0471921607261911
0.044651203411340025,0.044651203411340025
0.04592168206876556,0.04592168206876556
0.04655692139747833,0.04655692139747833
0.04338072475391449,0.04338072475391449
0.0351226134806485,0.0351226134806485
0.03385213482322296,0.03385213482322296
0.061167425957872,0.061167425957872
0.1335847094311276,0.1335847094311276
0.2403049166548727,0.2403049166548727
0.338131773276639,0.338131773276639
0.3648118250825753,0.3648118250825753
0.28413643033605374,0.28413643033605374
0.1113513329261807,0.1113513329261807
-0.08493761964606475,-0.08493761964606475
-0.22214931464802273,-0.22214931464802273
-0.2513703237688101,-0.2513703237688101
-0.18403495492525662,-0.18403495492525662
-0.07413855105794767,-0.07413855105794767
0.01860639093411652,0.01860639093411652
0.06497886193014861,0.06497886193014861
0.07196649454598907,0.07196649454598907
0.06307314394401031,0.06307314394401031
0.0592617079717337,0.0592617079717337
0.06370838327272307,0.06370838327272307
0.0713312552172763,0.0713312552172763
0.07641316984697845,0.07641316984697845
0.07768364850440398,0.07768364850440398
0.07895412716182952,0.07895412716182952
0.08276556313410612,0.08276556313410612
0.08911795642123381,0.08911795642123381
0.09483511037964873,0.09483511037964873
0.09991702500935087,0.09991702500935087
0.10245798232420195,0.10245798232420195
0.10690465762519133,0.10690465762519133
0.11071609359746794,0.11071609359746794
0.11389229024103177,0.11389229024103177
0.11770372621330838,0.11770372621330838
0.12087992285687223,0.12087992285687223
0.12469135882914884,0.12469135882914884
0.12977327345885098,0.12977327345885098
0.13294947010241484,0.13294947010241484
0.13676090607469144,0.13676090607469144
0.14120758137568082,0.14120758137568082
0.14692473533409572,0.14692473533409572
0.15264188929251066,0.15264188929251066
0.15899428257963832,0.15899428257963832
0.16534667586676602,0.16534667586676602
0.1716990691538937,0.1716990691538937
0.17805146244102138,0.17805146244102138
0.1837686163994363,0.1837686163994363
0.18821529170042567,0.18821529170042567
0.19139148834398953,0.19139148834398953
0.19456768498755336,0.19456768498755336
0.20155531760339382,0.20155531760339382
0.21235438619151087,0.21235438619151087
0.2282353694093301,0.2282353694093301
0.2460220706132876,0.2460220706132876
0.26126781450239406,0.26126781450239406
0.2701611651043728,0.2701611651043728
0.26952592577566004,0.26952592577566004
0.25745637853011744,0.25745637853011744
0.23776395934002162,0.23776395934002162
0.2161658221637875,0.2161658221637875
0.20219055693210658,0.20219055693210658
0.20028483894596827,0.20028483894596827
0.2117191468627981,0.2117191468627981
0.2301410873954684,0.2301410873954684
0.24538683128457484,0.24538683128457484
0.24983350658556422,0.24983350658556422
0.24538683128457484,0.24538683128457484
0.24284587396972376,0.24284587396972376
0.25745637853011744,0.25745637853011744
0.2917593022806069,0.2917593022806069
0.3387670126053518,0.3387670126053518
0.3775166116568307,0.3775166116568307
0.3953033128607882,0.3953033128607882
0.3851394836013839,0.3851394836013839
0.35845943179544765,0.35845943179544765
0.3279679440172347,0.3279679440172347
0.31145172147070277,0.31145172147070277
0.3063698068410006,0.3063698068410006
0.3139926787855538,0.3139926787855538
0.32161555073010706,0.32161555073010706
0.32923842267466025,0.32923842267466025
0.3305089013320858,0.3305089013320858
0.32923842267466025,0.32923842267466025
0.32352126871624537,0.32352126871624537
0.3146279181142666,0.3146279181142666
0.2987469348964474,0.2987469348964474
0.277784037048926,0.277784037048926
0.2517392245717025,0.2517392245717025
0.22887060873804285,0.22887060873804285
0.21553058283507473,0.21553058283507473
0.21870677947863856,0.21870677947863856
0.2403049166548727,0.2403049166548727
0.2790545157063516,0.2790545157063516
0.3254269867023837,0.3254269867023837
0.3724346970271285,0.3724346970271285
0.4092785780924691,0.4092785780924691
0.4353233905696926,0.4353233905696926
0.4512043737875118,0.4512043737875118
0.4600977243894906,0.4600977243894906
0.46517963901919274,0.46517963901919274
0.46835583566275657,0.46835583566275657
0.46708535700533105,0.46708535700533105
0.4620034423756289,0.4620034423756289
0.45056913445879904,0.45056913445879904
0.43977006587068196,0.43977006587068196
0.4327824332548415,0.4327824332548415
0.44040530519939475,0.44040530519939475
0.4600977243894906,0.4600977243894906
0.48931873351027794,0.48931873351027794
0.5185397426310653,0.5185397426310653
0.5388674011498739,0.5388674011498739
0.5471255124231399,0.5471255124231399
0.5477607517518526,0.5477607517518526
0.5420435977934377,0.5420435977934377
0.5382321618211611,0.5382321618211611
0.5299740505478951,0.5299740505478951
0.5255273752469057,0.5255273752469057
0.5204454606172035,0.5204454606172035
0.5204454606172035,0.5204454606172035
0.5179045033023525,0.5179045033023525
0.5223511786033419,0.5223511786033419
0.5344207258488844,0.5344207258488844
0.5763465215439272,0.5763465215439272
0.6513047623320339,0.6513047623320339
0.755484012240928,0.755484012240928
0.8463232362468539,0.8463232362468539
0.8768147240250668,0.8768147240250668
0.8107498338389388,0.8107498338389388
0.6627390702488638,0.6627390702488638
0.4874130155241396,0.4874130155241396
0.3641765857538625,0.3641765857538625
0.3349555766330752,0.3349555766330752
0.4003852274904903,0.4003852274904903
0.5115521100152248,0.5115521100152248
0.6163665992528317,0.6163665992528317
0.681161010781534,0.681161010781534
0.7078410625874704,0.7078410625874704
0.714193455874598,0.714193455874598
0.7180048918468747,0.7180048918468747
0.722451567147864,0.722451567147864
0.7268982424488534,0.7268982424488534
0.7262630031201406,0.7262630031201406
0.722451567147864,0.722451567147864
0.7160991738607363,0.7160991738607363
0.7122877378884597,0.7122877378884597
0.7097467805736086,0.7097467805736086
0.7065705839300448,0.7065705839300448
0.7021239086290554,0.7021239086290554
0.7008534299716299,0.7008534299716299
0.6983124726567788,0.6983124726567788
0.7002181906429171,0.7002181906429171
0.7002181906429171,0.7002181906429171
0.6989477119854915,0.6989477119854915
0.6970419939993533,0.6970419939993533
0.6964067546706405,0.6964067546706405
0.6945010366845022,0.6945010366845022
0.6964067546706405,0.6964067546706405
0.6945010366845022,0.6945010366845022
0.6964067546706405,0.6964067546706405
0.6957715153419277,0.6957715153419277
0.6995829513142043,0.6995829513142043
0.6989477119854915,0.6989477119854915
0.7027591479577682,0.7027591479577682
0.7021239086290554,0.7021239086290554
0.7046648659439065,0.7046648659439065
0.7021239086290554,0.7021239086290554
0.7021239086290554,0.7021239086290554
0.6983124726567788,0.6983124726567788
0.6983124726567788,0.6983124726567788
0.6957715153419277,0.6957715153419277
0.6983124726567788,0.6983124726567788
0.6970419939993533,0.6970419939993533
0.6976772333280661,0.6976772333280661
0.6957715153419277,0.6957715153419277
0.6932305580270767,0.6932305580270767
0.6894191220548,0.6894191220548
0.6862429254112362,0.6862429254112362
0.681161010781534,0.681161010781534
0.6767143354805447,0.6767143354805447
0.6722676601795553,0.6722676601795553
0.6671857455498531,0.6671857455498531
0.6627390702488638,0.6627390702488638
0.6551161983043106,0.6551161983043106
0.6449523690449062,0.6449523690449062
0.629071385827087,0.629071385827087
0.6157313599241189,0.6157313599241189
0.6106494452944167,0.6106494452944167
0.623354231868672,0.623354231868672
0.6462228477023317,0.6462228477023317
0.6722676601795553,0.6722676601795553
0.6760790961518319,0.6760790961518319
0.6500342836746084,0.6500342836746084
0.5833341541597676,0.5833341541597676
0.4969416054548311,0.4969416054548311
0.3991147488330648,0.3991147488330648
0.3139926787855538,0.3139926787855538
0.2320468053816067,0.2320468053816067
0.1513714106350851,0.1513714106350851
0.04211024609648895,0.04211024609648895
-0.09764240622032011,-0.09764240622032011
-0.27995609356088463,-0.27995609356088463
-0.4781507641192684,-0.4781507641192684
-0.6807921099786415,-0.6807921099786415
-0.8580238826895038,-0.8580238826895038
-1.0123870395667065,-1.0123870395667065
-1.1438815806102496,-1.1438815806102496
-1.2747408823250799,-1.2747408823250799
-1.4100468593408997,-1.4100468593408997
-1.560598580245826,-1.560598580245826
-1.7149617371230286,-1.7149617371230286
-1.8667839366853802,-1.8667839366853802
-2.004630871016051,-2.004630871016051
-2.124691104142764,-2.124691104142764
-2.22696463606552,-2.22696463606552
-2.3108162274556054,-2.3108162274556054
-2.3762458783130205,-2.3762458783130205
-2.418171674008063,-2.418171674008063
-2.4340526572258825,-2.4340526572258825
-2.425159306623904,-2.425159306623904
-2.3965735368318293,-2.3965735368318293
-2.3495658265070842,-2.3495658265070842
-2.289853329608084,-2.289853329608084
-2.219341764120967,-2.219341764120967
-2.1431130446754345,-2.1431130446754345
-2.0605319319427746,-2.0605319319427746
-1.9785860585388275,-1.9785860585388275
-1.8934639884913165,-1.8934639884913165
-1.80707143978638,-1.80707143978638
-1.719408412424018,-1.719408412424018
-1.6253929917745282,-1.6253929917745282
-1.5243899385091981,-1.5243899385091981
-1.415128773970602,-1.415128773970602
-1.2988799768161652,-1.2988799768161652
-1.1788197436894519,-1.1788197436894519
-1.0568537925766004,-1.0568537925766004
-0.9336173628063233,-0.9336173628063233
-0.8091104543786207,-0.8091104543786207
-0.6839683066222053,-0.6839683066222053
-0.5683547487964815,-0.5683547487964815
-0.46671645620243857,-0.46671645620243857
-0.377782950182651,-0.377782950182651
-0.2786856149034591,-0.2786856149034591
-0.15163774916090542,-0.15163774916090542
0.013524476304414373,0.013524476304414373
0.18440385572814907,0.18440385572814907
0.3133574394568411,0.3133574394568411
0.34511940589247947,0.34511940589247947
0.2790545157063516,0.2790545157063516
0.1596295219083511,0.1596295219083511
0.0713312552172763,0.0713312552172763
0.07260173387470184,0.07260173387470184
0.17868670176973417,0.17868670176973417
0.34511940589247947,0.34511940589247947
0.5147283066587887,0.5147283066587887
0.6417761724013423,0.6417761724013423
0.722451567147864,0.722451567147864
0.7732707134448855,0.7732707134448855
0.8183727057834921,0.8183727057834921
0.8685566127518007,0.8685566127518007
0.9231871950210988,0.9231871950210988
0.9765472986329714,0.9765472986329714
1.0254607269438545,1.0254607269438545
1.0737389159260249,1.0737389159260249
1.1220171049081953,1.1220171049081953
1.1734714905339296,1.1734714905339296
1.2268315941458021,1.2268315941458021
1.2840031337299513,1.2840031337299513
1.3437156306289515,1.3437156306289515
1.4135919567873558,1.4135919567873558
1.4853740009318988,1.4853740009318988
1.5673198743358459,1.5673198743358459
1.6499009870685057,1.6499009870685057
1.7381992537595805,1.7381992537595805
1.8258622811219427,1.8258622811219427
1.9192424624427196,1.9192424624427196
2.008175968462507,2.008175968462507
2.1034618677694223,2.1034618677694223
2.1936658524466357,2.1936658524466357
2.2895869910822637,2.2895869910822637
2.378520497102051,2.378520497102051
2.4719006784228283,2.4719006784228283
2.55257607316935,2.55257607316935
2.633886707244584,2.633886707244584
2.699951597430712,2.699951597430712
2.765381248288127,2.765381248288127
2.8111184799554465,2.8111184799554465
2.8555852329653404,2.8555852329653404
2.880994806113851,2.880994806113851
2.9044986612762234,2.9044986612762234
2.9095805759059257,2.9095805759059257
2.9127567725494896,2.9127567725494896
2.897511028660383,2.897511028660383
2.8797243274564255,2.8797243274564255
2.8454214037059358,2.8454214037059358
2.809212761969308,2.809212761969308
2.758393615672287,2.758393615672287
2.7043982727317015,2.7043982727317015
2.6357924252307225,2.6357924252307225
2.565280859743605,2.565280859743605
2.485875943654509,2.485875943654509
2.4071062668941257,2.4071062668941257
2.320713718189189,2.320713718189189
2.2298744941832633,2.2298744941832633
2.1263304836030823,2.1263304836030823
2.018975037050624,2.018975037050624
1.9116195904981663,1.9116195904981663
1.8207803664922404,1.8207803664922404
1.7464573650328465,1.7464573650328465
1.6892858254486973,1.6892858254486973
1.6321142858645483,1.6321142858645483
1.5654141563497075,1.5654141563497075
1.4796568469734839,1.4796568469734839
1.3818299903517175,1.3818299903517175
1.2776507404428237,1.2776507404428237
1.1791886444923445,1.1791886444923445
1.0864437025002802,1.0864437025002802
1.002592111110195,1.002592111110195
0.9219167163636733,0.9219167163636733
0.848864193561705,0.848864193561705
0.7796231067320132,0.7796231067320132
0.7192753705043001,0.7192753705043001
0.6595628736053,0.6595628736053
0.6036618126785762,0.6036618126785762
0.5426788371221505,0.5426788371221505
0.4861425368667141,0.4861425368667141
0.42960623661127767,0.42960623661127767
0.3870452015875222,0.3870452015875222
0.3502013205221816,0.3502013205221816
0.3260622260310964,0.3260622260310964
0.3019231315400112,0.3019231315400112
0.28477166966476647,0.28477166966476647
0.2625382931598196,0.2625382931598196
0.24729254927071315,0.24729254927071315
0.2320468053816067,0.2320468053816067
0.22632965142319178,0.22632965142319178
0.2218829761222024,0.2218829761222024
0.22505917276576626,0.22505917276576626
0.2244239334370535,0.2244239334370535
0.2237886941083407,0.2237886941083407
0.2161658221637875,0.2161658221637875
0.2040962749182449,0.2040962749182449
0.18249813774201076,0.18249813774201076
0.1558180859360745,0.1558180859360745
0.11897420487073393,0.11897420487073393
0.07577793051826567,0.07577793051826567
0.02622926287866974,0.02622926287866974
-0.01760225080251128,-0.01760225080251128
-0.04999945656686247,-0.04999945656686247
-0.06333948246983061,-0.06333948246983061
-0.055081371196564616,-0.055081371196564616
-0.03475371267775603,-0.03475371267775603
-0.006167942885681449,-0.006167942885681449
0.023053066235105897,0.023053066235105897
0.04592168206876556,0.04592168206876556
0.06180266528658477,0.06180266528658477
0.06879029790242523,0.06879029790242523
0.0713312552172763,0.0713312552172763
0.07260173387470184,0.07260173387470184
0.0732369732034146,0.0732369732034146
0.06815505857371246,0.06815505857371246
0.05290931468460602,0.05290931468460602
0.03448737415193573,0.03448737415193573
0.03321689549451019,0.03321689549451019
0.07387221253212738,0.07387221253212738
0.1615352398944894,0.1615352398944894
0.266984968460809,0.266984968460809
0.33241461931822414,0.33241461931822414
0.3031936101974368,0.3031936101974368
0.16852287251032985,0.16852287251032985
-0.02141368677478789,-0.02141368677478789
-0.18594067291139493,-0.18594067291139493
-0.2545465204123739,-0.2545465204123739
-0.2170674000183206,-0.2170674000183206
-0.11479386809556485,-0.11479386809556485
-0.012520336172809133,-0.012520336172809133
0.047827400054903865,0.047827400054903865
0.05799122931430816,0.05799122931430816
0.041475006767776185,0.041475006767776185
0.02368830556381867,0.02368830556381867
0.015430194290552677,0.015430194290552677
0.013524476304414373,0.013524476304414373
0.01034827966085053,0.01034827966085053
0.0014549290588717718,0.0014549290588717718
-0.011249857515383597,-0.011249857515383597
-0.024589883418351735,-0.024589883418351735
-0.0353889520064688,-0.0353889520064688
-0.043647063279734784,-0.043647063279734784
-0.04999945656686247,-0.04999945656686247
-0.05126993522428801,-0.05126993522428801
-0.05063469589557524,-0.05063469589557524
-0.043647063279734784,-0.043647063279734784
-0.03475371267775603,-0.03475371267775603
-0.02586036207577727,-0.02586036207577727
-0.01442605415894744,-0.01442605415894744
-0.006167942885681449,-0.006167942885681449
0.0001844504014462349,0.0001844504014462349
0.003995886373722846,0.003995886373722846
0.0033606470450100773,0.0033606470450100773
0.0008196897301590033,0.0008196897301590033
-0.0023565069134048387,-0.0023565069134048387
-0.004262224899543144,-0.004262224899543144
-0.006167942885681449,-0.006167942885681449
-0.008073660871819755,-0.008073660871819755
-0.009344139529245291,-0.009344139529245291
-0.010614618186670829,-0.010614618186670829
-0.011249857515383597,-0.011249857515383597
-0.011249857515383597,-0.011249857515383597
-0.011249857515383597,-0.011249857515383597
-0.011249857515383597,-0.011249857515383597
-0.010614618186670829,-0.010614618186670829
-0.008708900200532523,-0.008708900200532523
-0.006803182214394218,-0.006803182214394218
-0.004897464228255912,-0.004897464228255912
-0.002991746242117607,-0.002991746242117607
-0.001086028255979302,-0.001086028255979302
0.0008196897301590033,0.0008196897301590033
0.0020901683875845403,0.0020901683875845403
0.0020901683875845403,0.0020901683875845403
0.0008196897301590033,0.0008196897301590033
0.0001844504014462349,0.0001844504014462349
0.0001844504014462349,0.0001844504014462349
0.0020901683875845403,0.0020901683875845403
0.0020901683875845403,0.0020901683875845403
-0.004262224899543144,-0.004262224899543144
-0.020143208117362355,-0.020143208117362355
-0.043647063279734784,-0.043647063279734784
-0.06524520045596892,-0.06524520045596892
-0.07223283307180936,-0.07223283307180936
-0.05698708918270293,-0.05698708918270293
-0.023319404760926195,-0.023319404760926195
0.01415971563312714,0.01415971563312714
0.04020452811035065,0.04020452811035065
0.04528644274005279,0.04528644274005279
0.032581656165797425,0.032581656165797425
0.01415971563312714,0.01415971563312714
0.0001844504014462349,0.0001844504014462349
-0.004897464228255912,-0.004897464228255912
-0.0036269855708303757,-0.0036269855708303757
-0.0004507889272665335,-0.0004507889272665335
0.0014549290588717718,0.0014549290588717718
0.0020901683875845403,0.0020901683875845403
0.0020901683875845403,0.0020901683875845403
0.0033606470450100773,0.0033606470450100773
0.004631125702435614,0.004631125702435614
0.004631125702435614,0.004631125702435614
0.003995886373722846,0.003995886373722846
0.0014549290588717718,0.0014549290588717718
-0.001086028255979302,-0.001086028255979302
-0.0036269855708303757,-0.0036269855708303757
-0.004262224899543144,-0.004262224899543144
-0.005532703556968681,-0.005532703556968681
-0.005532703556968681,-0.005532703556968681
-0.005532703556968681,-0.005532703556968681
-0.005532703556968681,-0.005532703556968681
-0.005532703556968681,-0.005532703556968681
-0.004897464228255912,-0.004897464228255912
-0.004897464228255912,-0.004897464228255912
-0.004897464228255912,-0.004897464228255912
-0.005532703556968681,-0.005532703556968681
-0.006167942885681449,-0.006167942885681449
-0.007438421543106986,-0.007438421543106986
-0.010614618186670829,-0.010614618186670829
-0.013790814830234671,-0.013790814830234671
-0.016331772145085743,-0.016331772145085743
-0.019507968788649587,-0.019507968788649587
-0.02204892610350066,-0.02204892610350066
-0.023954644089638967,-0.023954644089638967
-0.02649560140449004,-0.02649560140449004
-0.02649560140449004,-0.02649560140449004
-0.024589883418351735,-0.024589883418351735
-0.023954644089638967,-0.023954644089638967
-0.02141368677478789,-0.02141368677478789
-0.020778447446075123,-0.020778447446075123
-0.01823749013122405,-0.01823749013122405
-0.013790814830234671,-0.013790814830234671
-0.011249857515383597,-0.011249857515383597
-0.00997937885795806,-0.00997937885795806
-0.009344139529245291,-0.009344139529245291
-0.006167942885681449,-0.006167942885681449
-0.0017212675846920704,-0.0017212675846920704
-0.0004507889272665335,-0.0004507889272665335
-0.007438421543106986,-0.007438421543106986
-0.01696701147379851,-0.01696701147379851
-0.006167942885681449,-0.006167942885681449
0.0490978787123294,0.0490978787123294
0.15645332526478725,0.15645332526478725
0.28286595167862816,0.28286595167862816
0.3648118250825753,0.3648118250825753
0.3387670126053518,0.3387670126053518
0.19075624901527677,0.19075624901527677
-0.029671798048053883,-0.029671798048053883
-0.22977218659257595,-0.22977218659257595
-0.33204571851533166,-0.33204571851533166
-0.3136237779826614,-0.3136237779826614
-0.21579692136089504,-0.21579692136089504
-0.10526527816487333,-0.10526527816487333
-0.033483234020330495,-0.033483234020330495
-0.009344139529245291,-0.009344139529245291
-0.015696532816372975,-0.015696532816372975
-0.025225122747064503,-0.025225122747064503
-0.027130840733202807,-0.027130840733202807
-0.022684165432213427,-0.022684165432213427
-0.019507968788649587,-0.019507968788649587
-0.020778447446075123,-0.020778447446075123
-0.023954644089638967,-0.023954644089638967
-0.024589883418351735,-0.024589883418351735
-0.023954644089638967,-0.023954644089638967
-0.02141368677478789,-0.02141368677478789
-0.020778447446075123,-0.020778447446075123
-0.02204892610350066,-0.02204892610350066
-0.020143208117362355,-0.020143208117362355
-0.020143208117362355,-0.020143208117362355
-0.01760225080251128,-0.01760225080251128
-0.015696532816372975,-0.015696532816372975
-0.015061293487660207,-0.015061293487660207
-0.012520336172809133,-0.012520336172809133
-0.00997937885795806,-0.00997937885795806
-0.007438421543106986,-0.007438421543106986
-0.005532703556968681,-0.005532703556968681
-0.0036269855708303757,-0.0036269855708303757
-0.0023565069134048387,-0.0023565069134048387
-0.0004507889272665335,-0.0004507889272665335
0.0008196897301590033,0.0008196897301590033
0.0020901683875845403,0.0020901683875845403
0.003995886373722846,0.003995886373722846
0.006536843688573919,0.006536843688573919
0.009713040332137761,0.009713040332137761
0.012253997646988835,0.012253997646988835
0.01415971563312714,0.01415971563312714
0.016065433619265445,0.016065433619265445
0.017971151605403753,0.017971151605403753
0.019876869591542057,0.019876869591542057
0.023053066235105897,0.023053066235105897
0.02622926287866974,0.02622926287866974
0.02940545952223358,0.02940545952223358
0.03194641683708466,0.03194641683708466
0.0351226134806485,0.0351226134806485
0.03893404945292511,0.03893404945292511
0.04274548542520172,0.04274548542520172
0.04846263938361663,0.04846263938361663
0.05481503267074432,0.05481503267074432
0.06307314394401031,0.06307314394401031
0.07196649454598907,0.07196649454598907
0.07577793051826567,0.07577793051826567
0.06879029790242523,0.06879029790242523
0.047827400054903865,0.047827400054903865
0.01733591227669098,0.01733591227669098
-0.012520336172809133,-0.012520336172809133
-0.02586036207577727,-0.02586036207577727
-0.01442605415894744,-0.01442605415894744
0.01860639093411652,0.01860639093411652
0.056720750656882625,0.056720750656882625
0.08340080246281889,0.08340080246281889
0.08848271709252103,0.08848271709252103
0.07577793051826567,0.07577793051826567
0.056720750656882625,0.056720750656882625
0.04401596408262726,0.04401596408262726
0.04401596408262726,0.04401596408262726
0.05290931468460602,0.05290931468460602
0.06370838327272307,0.06370838327272307
0.0713312552172763,0.0713312552172763
0.0732369732034146,0.0732369732034146
0.0713312552172763,0.0713312552172763
0.06879029790242523,0.06879029790242523
0.06688457991628692,0.06688457991628692
0.06688457991628692,0.06688457991628692
0.07006077655985077,0.07006077655985077
0.07641316984697845,0.07641316984697845
0.08594175977766996,0.08594175977766996
0.09864654635192534,0.09864654635192534
0.11452752956974455,0.11452752956974455
0.13294947010241484,0.13294947010241484
0.15391236794993618,0.15391236794993618
0.17296954781131924,0.17296954781131924
0.19139148834398953,0.19139148834398953
0.20536675357567044,0.20536675357567044
0.21553058283507473,0.21553058283507473
0.2199772581360641,0.2199772581360641
0.22315345477962795,0.22315345477962795
0.22251821545091519,0.22251821545091519
0.22315345477962795,0.22315345477962795
0.2237886941083407,0.2237886941083407
0.2282353694093301,0.2282353694093301
0.23268204471031947,0.23268204471031947
0.23966967732615993,0.23966967732615993
0.24665730994200039,0.24665730994200039
0.2530097032291281,0.2530097032291281
0.2561858998726919,0.2561858998726919
0.26190305383110685,0.26190305383110685
0.2663497291320962,0.2663497291320962
0.27206688309051114,0.27206688309051114
0.2765135583915005,0.2765135583915005
0.2790545157063516,0.2790545157063516
0.28413643033605374,0.28413643033605374
0.29747645623902186,0.29747645623902186
0.32098031140139427,0.32098031140139427
0.35528323515188376,0.35528323515188376
0.39403283420336266,0.39403283420336266
0.4327824332548415,0.4327824332548415
0.46645011767661826,0.46645011767661826
0.4931301694825545,0.4931301694825545
0.508375913371661,0.508375913371661
0.5102816313577992,0.5102816313577992
0.5032939987419588,0.5032939987419588
0.5064701953855226,0.5064701953855226
0.5382321618211611,0.5382321618211611
0.6100142059657039,0.6100142059657039
0.6964067546706405,0.6964067546706405
0.7504020976112258,0.7504020976112258
0.7199106098330129,0.7199106098330129
0.5954037014053103,0.5954037014053103
0.41436049272217124,0.41436049272217124
0.2580916178588302,0.2580916178588302
0.19012100968656398,0.19012100968656398
0.23268204471031947,0.23268204471031947
0.34575464522119226,0.34575464522119226
0.4728025109637459,0.4728025109637459
0.5591950596686824,0.5591950596686824
0.5954037014053103,0.5954037014053103
0.5922275047617465,0.5922275047617465
0.579522718187491,0.579522718187491
0.5680884102706613,0.5680884102706613
0.5680884102706613,0.5680884102706613
0.5712646069142251,0.5712646069142251
0.5814284361736294,0.5814284361736294
0.5928627440904591,0.5928627440904591
0.6112846846231295,0.6112846846231295
0.6284361464983742,0.6284361464983742
0.6462228477023317,0.6462228477023317
0.6576571556191616,0.6576571556191616
0.670361942193417,0.670361942193417
0.681161010781534,0.681161010781534
0.6970419939993533,0.6970419939993533
0.7103820199023214,0.7103820199023214
0.7218163278191513,0.7218163278191513
0.7300744390924172,0.7300744390924172
0.7338858750646938,0.7338858750646938
0.7345211143934066,0.7345211143934066
0.7357915930508322,0.7357915930508322
0.7364268323795449,0.7364268323795449
0.7402382683518215,0.7402382683518215
0.7453201829815237,0.7453201829815237
0.7510373369399386,0.7510373369399386
0.7529430549260769,0.7529430549260769
0.7516725762686514,0.7516725762686514
0.7453201829815237,0.7453201829815237
0.7357915930508322,0.7357915930508322
0.7230868064765767,0.7230868064765767
0.711652498559747,0.711652498559747
0.7008534299716299,0.7008534299716299
0.6932305580270767,0.6932305580270767
0.6875134040686618,0.6875134040686618
0.6881486433973745,0.6881486433973745
0.6875134040686618,0.6875134040686618
0.6906896007122256,0.6906896007122256
0.6900543613835128,0.6900543613835128
0.6906896007122256,0.6906896007122256
0.6862429254112362,0.6862429254112362
0.6849724467538106,0.6849724467538106
0.6792552927953958,0.6792552927953958
0.6767143354805447,0.6767143354805447
0.6722676601795553,0.6722676601795553
0.6741733781656936,0.6741733781656936
0.6741733781656936,0.6741733781656936
0.6773495748092574,0.6773495748092574
0.6697267028647043,0.6697267028647043
0.6557514376330233,0.6557514376330233
0.6297066251557998,0.6297066251557998
0.6081084879795656,0.6081084879795656
0.5985798980488741,0.5985798980488741
0.6163665992528317,0.6163665992528317
0.6513047623320339,0.6513047623320339
0.6945010366845022,0.6945010366845022
0.722451567147864,0.722451567147864
0.7288039604349917,0.7288039604349917
0.7129229772171725,0.7129229772171725
0.6894191220548,0.6894191220548
0.6684562242072787,0.6684562242072787
0.6595628736053,0.6595628736053
0.6576571556191616,0.6576571556191616
0.6608333522627254,0.6608333522627254
0.6614685915914382,0.6614685915914382
0.6614685915914382,0.6614685915914382
0.6595628736053,0.6595628736053
0.6595628736053,0.6595628736053
0.6589276342765872,0.6589276342765872
0.6589276342765872,0.6589276342765872
0.6576571556191616,0.6576571556191616
0.6570219162904488,0.6570219162904488
0.6551161983043106,0.6551161983043106
0.6557514376330233,0.6557514376330233
0.6551161983043106,0.6551161983043106
0.6551161983043106,0.6551161983043106
0.6532104803181722,0.6532104803181722
0.6525752409894595,0.6525752409894595
0.6487638050171828,0.6487638050171828
0.645587608373619,0.645587608373619
0.6398704544152041,0.6398704544152041
0.6360590184429274,0.6360590184429274
0.6284361464983742,0.6284361464983742
0.623354231868672,0.623354231868672
0.6163665992528317,0.6163665992528317
0.612555163280555,0.612555163280555
0.6062027699934273,0.6062027699934273
0.6036618126785762,0.6036618126785762
0.5973094193914485,0.5973094193914485
0.5928627440904591,0.5928627440904591
0.585239872145906,0.585239872145906
0.579522718187491,0.579522718187491
0.5699941282567995,0.5699941282567995
0.5655474529558101,0.5655474529558101
0.5598302989973952,0.5598302989973952
0.5566541023538314,0.5566541023538314
0.5509369483954164,0.5509369483954164
0.5464902730944271,0.5464902730944271
0.5395026404785866,0.5395026404785866
0.5337854865201717,0.5337854865201717
0.5261626145756185,0.5261626145756185
0.5191749819597781,0.5191749819597781
0.510916870686512,0.510916870686512
0.5064701953855226,0.5064701953855226
0.5032939987419588,0.5032939987419588
0.49884732344096944,0.49884732344096944
0.48677777619542684,0.48677777619542684
0.4728025109637459,0.4728025109637459
0.4696263143201821,0.4696263143201821
0.49884732344096944,0.49884732344096944
0.5649122136270973,0.5649122136270973
0.6474933263597572,0.6474933263597572
0.6976772333280661,0.6976772333280661
0.6678209848785659,0.6678209848785659
0.5426788371221505,0.5426788371221505
0.3635413464251498,0.3635413464251498
0.20092007827468106,0.20092007827468106
0.121515162185585,0.121515162185585
0.14438377801924465,0.14438377801924465
0.23712872001130886,0.23712872001130886
0.3394022519340646,0.3394022519340646
0.4073728601063308,0.4073728601063308
0.4270652792964266,0.4270652792964266
0.41626621070830955,0.41626621070830955
0.3978442701756393,0.3978442701756393
0.387680440916235,0.387680440916235
0.38386900494395837,0.38386900494395837
0.38259852628653285,0.38259852628653285
0.3756108936706924,0.3756108936706924
0.36735278239742636,0.36735278239742636
0.35655371380930934,0.35655371380930934
0.3482956025360433,0.3482956025360433
0.3387670126053518,0.3387670126053518
0.33241461931822414,0.33241461931822414
0.3241565080449581,0.3241565080449581
0.32034507207268154,0.32034507207268154
0.3152631574429794,0.3152631574429794
0.31081648214199,0.31081648214199
0.30573456751228784,0.30573456751228784
0.29747645623902186,0.29747645623902186
0.2898535842944686,0.2898535842944686
0.28350119100734095,0.28350119100734095
0.2765135583915005,0.2765135583915005
0.27079640443308556,0.27079640443308556
0.2644440111459579,0.2644440111459579
0.25872685718754296,0.25872685718754296
0.2530097032291281,0.2530097032291281
0.24665730994200039,0.24665730994200039
0.23903443799744717,0.23903443799744717
0.2301410873954684,0.2301410873954684
0.2218829761222024,0.2218829761222024
0.21489534350636197,0.21489534350636197
0.21044866820537259,0.21044866820537259
0.20727247156180872,0.20727247156180872
0.20536675357567044,0.20536675357567044
0.20282579626081937,0.20282579626081937
0.19901436028854275,0.19901436028854275
0.19456768498755336,0.19456768498755336
0.18885053102913846,0.18885053102913846
0.18313337707072352,0.18313337707072352
0.17741622311230862,0.17741622311230862
0.17296954781131924,0.17296954781131924
0.1678876331816171,0.1678876331816171
0.16280571855191495,0.16280571855191495
0.15708856459350004,0.15708856459350004
0.15200664996379787,0.15200664996379787
0.14819521399152127,0.14819521399152127
0.14692473533409572,0.14692473533409572
0.14311329936181913,0.14311329936181913
0.1354904274172659,0.1354904274172659
0.11960944419944669,0.11960944419944669
0.0992817856806381,0.0992817856806381
0.08149508447668058,0.08149508447668058
0.07768364850440398,0.07768364850440398
0.09292939239351042,0.09292939239351042
0.1234208801717233,0.1234208801717233
0.15518284660736173,0.15518284660736173
0.1755105051261703,0.1755105051261703
0.17424002646874479,0.17424002646874479
0.15645332526478725,0.15645332526478725
0.1316789914449893,0.1316789914449893
0.11262181158360624,0.11262181158360624
0.10245798232420195,0.10245798232420195
0.09991702500935087,0.09991702500935087
0.10055226433806363,0.10055226433806363
0.09991702500935087,0.09991702500935087
0.09610558903707427,0.09610558903707427
0.09038843507865935,0.09038843507865935
0.0853065204489572,0.0853065204489572
0.08149508447668058,0.08149508447668058
0.07831888783311675,0.07831888783311675
0.07641316984697845,0.07641316984697845
0.07577793051826567,0.07577793051826567
0.07577793051826567,0.07577793051826567
0.07577793051826567,0.07577793051826567
0.07577793051826567,0.07577793051826567
0.07514269118955291,0.07514269118955291
0.07387221253212738,0.07387221253212738
0.07196649454598907,0.07196649454598907
0.07069601588856353,0.07069601588856353
0.06815505857371246,0.06815505857371246
0.06624934058757415,0.06624934058757415
0.06434362260143585,0.06434362260143585
0.062437904615297544,0.062437904615297544
0.06053218662915923,0.06053218662915923
0.05862646864302093,0.05862646864302093
0.05608551132816986,0.05608551132816986
0.05481503267074432,0.05481503267074432
0.05417979334203155,0.05417979334203155
0.053544554013318785,0.053544554013318785
0.05163883602718048,0.05163883602718048
0.04973311804104217,0.04973311804104217
0.047827400054903865,0.047827400054903865
0.04528644274005279,0.04528644274005279
0.04274548542520172,0.04274548542520172
0.04211024609648895,0.04211024609648895
0.041475006767776185,0.041475006767776185
0.04274548542520172,0.04274548542520172
0.04401596408262726,0.04401596408262726
0.04338072475391449,0.04338072475391449
0.04211024609648895,0.04211024609648895
0.04083976743906342,0.04083976743906342
0.038298810124212344,0.038298810124212344
0.0351226134806485,0.0351226134806485
0.03131117750837189,0.03131117750837189
0.028134980864808045,0.028134980864808045
0.027499741536095277,0.027499741536095277
0.030040698850946353,0.030040698850946353
0.03194641683708466,0.03194641683708466
0.028134980864808045,0.028134980864808045
0.019876869591542057,0.019876869591542057
0.021147348248967593,0.021147348248967593
0.05290931468460602,0.05290931468460602
0.12215040151429776,0.12215040151429776
0.2079077108905215,0.2079077108905215
0.26317353248853237,0.26317353248853237
0.23839919866873438,0.23839919866873438
0.11833896554202115,0.11833896554202115
-0.059528046497554,-0.059528046497554
-0.22214931464802273,-0.22214931464802273
-0.3015542307371188,-0.3015542307371188
-0.2767798969173208,-0.2767798969173208
-0.17831780096684172,-0.17831780096684172
-0.06588043978468168,-0.06588043978468168
0.012253997646988835,0.012253997646988835
0.04338072475391449,0.04338072475391449
0.04274548542520172,0.04274548542520172
0.03385213482322296,0.03385213482322296
0.032581656165797425,0.032581656165797425
0.03639309213807403,0.03639309213807403
0.04211024609648895,0.04211024609648895
0.04274548542520172,0.04274548542520172
0.041475006767776185,0.041475006767776185
0.03893404945292511,0.03893404945292511
0.03893404945292511,0.03893404945292511
0.038298810124212344,0.038298810124212344
0.03893404945292511,0.03893404945292511
0.038298810124212344,0.038298810124212344
0.03956928878163788,0.03956928878163788
0.041475006767776185,0.041475006767776185
0.0471921607261911,0.0471921607261911
0.0490978787123294,0.0490978787123294
0.05545027199945709,0.05545027199945709
0.05735598998559539,0.05735598998559539
0.06053218662915923,0.06053218662915923
0.05417979334203155,0.05417979334203155
0.03639309213807403,0.03639309213807403
-0.0023565069134048387,-0.0023565069134048387
-0.05635184985399016,-0.05635184985399016
-0.12495769735496916,-0.12495769735496916
-0.19610450217079922,-0.19610450217079922
-0.2691570249727676,-0.2691570249727676
-0.34411526576087426,-0.34411526576087426
-0.4343192504380874,-0.4343192504380874
-0.5480270902776729,-0.5480270902776729
-0.6954026145390352,-0.6954026145390352
-0.8675524726201954,-0.8675524726201954
-1.052407117275611,-1.052407117275611
-1.2270979326716223,-1.2270979326716223
-1.3840020468636762,-1.3840020468636762
-1.521848981194347,-1.521848981194347
-1.6558844795527412,-1.6558844795527412
-1.793731413883412,-1.793731413883412
-1.9480945707606145,-1.9480945707606145
-2.110715838911083,-2.110715838911083
-2.2777837823625413,-2.2777837823625413
-2.4302412212536058,-2.4302412212536058
-2.5655471982694253,-2.5655471982694253
-2.6735378841505963,-2.6735378841505963
-2.757389475540682,-2.757389475540682
-2.81202005780998,-2.81202005780998
-2.8425115455881924,-2.8425115455881924
-2.8456877422317564,-2.8456877422317564
-2.8285362803565115,-2.8285362803565115
-2.788516202647607,-2.788516202647607
-2.7319799023921707,-2.7319799023921707
-2.6525749863030748,-2.6525749863030748
-2.5579243263248723,-2.5579243263248723
-2.446757443800138,-2.446757443800138
-2.336861039932829,-2.336861039932829
-2.2314113113665095,-2.2314113113665095
-2.141207326689296,-2.141207326689296
-2.0554500173130723,-2.0554500173130723
-1.971598425922987,-1.971598425922987
-1.8737715693012207,-1.8737715693012207
-1.7651456440913373,-1.7651456440913373
-1.6393682570062091,-1.6393682570062091
-1.5085089552913789,-1.5085089552913789
-1.3700267816319953,-1.3700267816319953
-1.23345032595875,-1.23345032595875
-1.093697673641941,-1.093697673641941
-0.9609326539409724,-0.9609326539409724
-0.8307085915548548,-0.8307085915548548
-0.7125540764142799,-0.7125540764142799
-0.6045633905331094,-0.6045633905331094
-0.5130889271984707,-0.5130889271984707
-0.43050781446581077,-0.43050781446581077
-0.3555495736777041,-0.3555495736777041
-0.2793208542321719,-0.2793208542321719
-0.19673974149951198,-0.19673974149951198
-0.10335956017873503,-0.10335956017873503
-0.004262224899543144,-0.004262224899543144
0.09483511037964873,0.09483511037964873
0.18630957371428739,0.18630957371428739
0.2638087718172451,0.2638087718172451
0.3260622260310964,0.3260622260310964
0.3749756543419796,0.3749756543419796
0.41817192869444786,0.41817192869444786
0.4613682030469161,0.4613682030469161
0.5147283066587887,0.5147283066587887
0.57698176087264,0.57698176087264
0.6487638050171828,0.6487638050171828
0.7173696525181619,0.7173696525181619
0.7808935853894386,0.7808935853894386
0.826630817056758,0.826630817056758
0.8622042194646731,0.8622042194646731
0.8838023566409072,0.8838023566409072
0.9047652544884286,0.9047652544884286
0.9161995624052583,0.9161995624052583
0.9333510242805031,0.9333510242805031
0.9435148535399074,0.9435148535399074
0.9593958367577267,0.9593958367577267
0.9784530166191097,0.9784530166191097
1.013391179698312,1.013391179698312
1.0610341293517696,1.0610341293517696
1.1302752161814613,1.1302752161814613
1.2077744142844191,1.2077744142844191
1.2960726809754939,1.2960726809754939
1.3843709476665687,1.3843709476665687
1.4796568469734839,1.4796568469734839
1.5755779856091119,1.5755779856091119
1.6727696029021655,1.6727696029021655
1.7604326302645275,1.7604326302645275
1.8417432643397618,1.8417432643397618
1.92623009505856,1.92623009505856
2.0367617382545817,2.0367617382545817
2.183502023187231,2.183502023187231
2.3562871205971043,2.3562871205971043
2.508109320159456,2.508109320159456
2.5925961508782542,2.5925961508782542
2.5824323216188496,2.5824323216188496
2.5068388415020304,2.5068388415020304
2.4267986860842217,2.4267986860842217
2.409011984880264,2.409011984880264
2.475076875066392,2.475076875066392
2.604030458795084,2.604030458795084
2.7361602391673396,2.7361602391673396
2.829540420488117,2.829540420488117
2.8632081049098934,2.8632081049098934
2.856220472294053,2.856220472294053
2.8244585058584146,2.8244585058584146
2.7939670180802016,2.7939670180802016
2.7564878976861484,2.7564878976861484
2.7183735379633824,2.7183735379633824
2.66501343435151,2.66501343435151
2.6091123734247863,2.6091123734247863
2.5398712865950945,2.5398712865950945
2.4738063964089663,2.4738063964089663
2.3937662409911575,2.3937662409911575
2.3181727608743383,2.3181727608743383
2.2286040155258378,2.2286040155258378
2.148563860108029,2.148563860108029
2.0577246361021033,2.0577246361021033
1.9745082840407304,1.9745082840407304
1.8811281027199536,1.8811281027199536
1.7915593573714532,1.7915593573714532
1.6956382187358252,1.6956382187358252
1.6092456700308886,1.6092456700308886
1.5190416853536755,1.5190416853536755
1.4402720085932923,1.4402720085932923
1.3576908958606322,1.3576908958606322
1.2840031337299513,1.2840031337299513
1.2071391749557063,1.2071391749557063
1.1372628487973018,1.1372628487973018
1.0648455653240463,1.0648455653240463
1.0000511537953438,1.0000511537953438
0.9365272209240669,0.9365272209240669
0.8799909206686306,0.8799909206686306
0.8234546204131942,0.8234546204131942
0.7726354741161727,0.7726354741161727
0.7230868064765767,0.7230868064765767
0.6792552927953958,0.6792552927953958
0.6360590184429274,0.6360590184429274
0.5985798980488741,0.5985798980488741
0.5617360169835335,0.5617360169835335
0.527433093233044,0.527433093233044
0.4937654088112673,0.4937654088112673
0.4620034423756289,0.4620034423756289
0.42960623661127767,0.42960623661127767
0.3997499881617776,0.3997499881617776
0.36925850038356467,0.36925850038356467
0.34321368790634116,0.34321368790634116
0.31780411475783044,0.31780411475783044
0.29747645623902186,0.29747645623902186
0.2765135583915005,0.2765135583915005
0.2561858998726919,0.2561858998726919
0.22950584806675564,0.22950584806675564
0.20219055693210658,0.20219055693210658
0.1755105051261703,0.1755105051261703
0.1634409578806277,0.1634409578806277
0.16471143653805326,0.16471143653805326
0.18122765908458524,0.18122765908458524
0.19710864230240444,0.19710864230240444
0.20536675357567044,0.20536675357567044
0.19456768498755336,0.19456768498755336
0.17233430848260647,0.17233430848260647
0.1437485386905319,0.1437485386905319
0.12215040151429776,0.12215040151429776
0.10817513628261687,0.10817513628261687
0.10372846098162748,0.10372846098162748
0.10182274299548917,0.10182274299548917
0.10118750366677641,0.10118750366677641
0.0992817856806381,0.0992817856806381
0.09801130702321256,0.09801130702321256
0.09801130702321256,0.09801130702321256
0.0992817856806381,0.0992817856806381
0.10118750366677641,0.10118750366677641
0.10309322165291471,0.10309322165291471
0.10372846098162748,0.10372846098162748
0.10436370031034024,0.10436370031034024
0.10372846098162748,0.10372846098162748
0.10309322165291471,0.10309322165291471
0.10245798232420195,0.10245798232420195
0.10245798232420195,0.10245798232420195
0.10372846098162748,0.10372846098162748
0.10626941829647855,0.10626941829647855
0.10881037561132963,0.10881037561132963
0.11071609359746794,0.11071609359746794
0.11198657225489347,0.11198657225489347
0.11262181158360624,0.11262181158360624
0.11198657225489347,0.11198657225489347
0.11262181158360624,0.11262181158360624
0.11198657225489347,0.11198657225489347
0.11198657225489347,0.11198657225489347
0.11198657225489347,0.11198657225489347
0.11262181158360624,0.11262181158360624
0.11198657225489347,0.11198657225489347
0.11198657225489347,0.11198657225489347
0.11198657225489347,0.11198657225489347
0.11198657225489347,0.11198657225489347
0.1113513329261807,0.1113513329261807
0.11198657225489347,0.11198657225489347
0.11071609359746794,0.11071609359746794
0.11262181158360624,0.11262181158360624
0.11389229024103177,0.11389229024103177
0.11389229024103177,0.11389229024103177
0.11516276889845731,0.11516276889845731
0.11643324755588284,0.11643324755588284
0.11833896554202115,0.11833896554202115
0.12087992285687223,0.12087992285687223
0.12278564084301054,0.12278564084301054
0.1253265981578616,0.1253265981578616
0.12977327345885098,0.12977327345885098
0.13676090607469144,0.13676090607469144
0.14247806003310637,0.14247806003310637
0.14247806003310637,0.14247806003310637
0.13676090607469144,0.13676090607469144
0.1393018633895425,0.1393018633895425
0.17106382982518092,0.17106382982518092
0.24348111329843652,0.24348111329843652
0.338131773276639,0.338131773276639
0.4111842960786074,0.4111842960786074
0.4092785780924691,0.4092785780924691
0.31081648214199,0.31081648214199
0.1437485386905319,0.1437485386905319
-0.02141368677478789,-0.02141368677478789
-0.11352338943813932,-0.11352338943813932
-0.10399479950744779,-0.10399479950744779
-0.01760225080251128,-0.01760225080251128
0.09165891373608488,0.09165891373608488
0.17296954781131924,0.17296954781131924
0.2079077108905215,0.2079077108905215
0.20917818954794704,0.20917818954794704
0.20092007827468106,0.20092007827468106
0.19710864230240444,0.19710864230240444
0.20219055693210658,0.20219055693210658
0.20854295021923427,0.20854295021923427
0.21298962552022366,0.21298962552022366
0.21426010417764918,0.21426010417764918
0.2161658221637875,0.2161658221637875
0.21743630082121304,0.21743630082121304
0.21934201880735132,0.21934201880735132
0.21870677947863856,0.21870677947863856
0.22061249746477687,0.22061249746477687
0.22061249746477687,0.22061249746477687
0.22569441209447902,0.22569441209447902
0.22950584806675564,0.22950584806675564
0.2320468053816067,0.2320468053816067
0.233952523367745,0.233952523367745
0.233952523367745,0.233952523367745
0.23331728403903224,0.23331728403903224
0.23458776269645779,0.23458776269645779
0.233952523367745,0.233952523367745
0.233952523367745,0.233952523367745
0.233952523367745,0.233952523367745
0.233952523367745,0.233952523367745
0.233952523367745,0.233952523367745
0.23458776269645779,0.23458776269645779
0.23712872001130886,0.23712872001130886
0.24094015598358545,0.24094015598358545
0.24538683128457484,0.24538683128457484
0.250468745914277,0.250468745914277
0.2542801818865536,0.2542801818865536
0.2561858998726919,0.2561858998726919
0.25682113920140465,0.25682113920140465
0.25682113920140465,0.25682113920140465
0.2555506605439791,0.2555506605439791
0.2555506605439791,0.2555506605439791
0.2549154212152664,0.2549154212152664
0.2549154212152664,0.2549154212152664
0.2549154212152664,0.2549154212152664
0.2555506605439791,0.2555506605439791
0.2555506605439791,0.2555506605439791
0.2549154212152664,0.2549154212152664
0.2536449425578408,0.2536449425578408
0.2542801818865536,0.2542801818865536
0.2549154212152664,0.2549154212152664
0.25682113920140465,0.25682113920140465
0.2549154212152664,0.2549154212152664
0.25110398524298977,0.25110398524298977
0.24475159195586207,0.24475159195586207
0.24538683128457484,0.24538683128457484
0.25872685718754296,0.25872685718754296
0.28731262697961757,0.28731262697961757
0.32098031140139427,0.32098031140139427
0.34575464522119226,0.34575464522119226
0.34321368790634116,0.34321368790634116
0.31018124281327725,0.31018124281327725
0.2517392245717025,0.2517392245717025
0.18630957371428739,0.18630957371428739
0.12977327345885098,0.12977327345885098
0.09419987105093595,0.09419987105093595
0.08213032380539335,0.08213032380539335
0.09419987105093595,0.09419987105093595
0.12659707681528715,0.12659707681528715
0.17741622311230862,0.17741622311230862
0.23776395934002162,0.23776395934002162
0.3000174135538729,0.3000174135538729
0.3514717991796072,0.3514717991796072
0.3845042442726711,0.3845042442726711
0.39403283420336266,0.39403283420336266
0.3845042442726711,0.3845042442726711
0.3635413464251498,0.3635413464251498
0.3387670126053518,0.3387670126053518
0.3133574394568411,0.3133574394568411
0.2898535842944686,0.2898535842944686
0.266984968460809,0.266984968460809
0.2441163526271493,0.2441163526271493
0.22124773679348964,0.22124773679348964
0.20346103558953213,0.20346103558953213
0.19647340297369167,0.19647340297369167
0.20663723223309596,0.20663723223309596
0.233952523367745,0.233952523367745
0.27524307973407497,0.27524307973407497
0.3184393540865432,0.3184393540865432
0.35655371380930934,0.35655371380930934
0.38005756897168175,0.38005756897168175
0.3883156802449477,0.3883156802449477
0.3832337656152456,0.3832337656152456
0.37052897904099025,0.37052897904099025
0.3508365598508944,0.3508365598508944
0.3279679440172347,0.3279679440172347
0.3012878922112985,0.3012878922112985
0.2758783190627877,0.2758783190627877
0.2517392245717025,0.2517392245717025
0.2441163526271493,0.2441163526271493
0.2485630279281387,0.2485630279281387
0.26889068644694725,0.26889068644694725
0.2987469348964474,0.2987469348964474
0.33114414066079856,0.33114414066079856
0.3603651497815859,0.3603651497815859
0.3851394836013839,0.3851394836013839
0.40229094547662864,0.40229094547662864
0.4130900140647457,0.4130900140647457
0.41753668936573507,0.41753668936573507
0.4219833646667245,0.4219833646667245
0.42643003996771384,0.42643003996771384
0.42960623661127767,0.42960623661127767
0.42325384332415,0.42325384332415
0.4130900140647457,0.4130900140647457
0.4105490567498946,0.4105490567498946
0.4391348265419692,0.4391348265419692
0.510916870686512,0.510916870686512
0.6112846846231295,0.6112846846231295
0.6900543613835128,0.6900543613835128
0.6906896007122256,0.6906896007122256
0.585239872145906,0.585239872145906
0.4003852274904903,0.4003852274904903
0.20854295021923427,0.20854295021923427
0.08848271709252103,0.08848271709252103
0.07514269118955291,0.07514269118955291
0.1475599746628085,0.1475599746628085
0.24919826725685146,0.24919826725685146
0.3260622260310964,0.3260622260310964
0.35591847448059655,0.35591847448059655
0.3508365598508944,0.3508365598508944
0.33241461931822414,0.33241461931822414
0.32034507207268154,0.32034507207268154
0.3139926787855538,0.3139926787855538
0.31018124281327725,0.31018124281327725
0.3031936101974368,0.3031936101974368
0.29557073825288355,0.29557073825288355
0.28731262697961757,0.28731262697961757
0.2822307123499154,0.2822307123499154
0.2765135583915005,0.2765135583915005
0.27206688309051114,0.27206688309051114
0.26317353248853237,0.26317353248853237
0.25745637853011744,0.25745637853011744
0.24919826725685146,0.24919826725685146
0.24348111329843652,0.24348111329843652
0.23712872001130886,0.23712872001130886
0.22887060873804285,0.22887060873804285
0.22315345477962795,0.22315345477962795
0.21870677947863856,0.21870677947863856
0.21298962552022366,0.21298962552022366
0.20854295021923427,0.20854295021923427
0.20155531760339382,0.20155531760339382
0.19520292431626612,0.19520292431626612
0.18885053102913846,0.18885053102913846
0.18503909505686184,0.18503909505686184
0.18122765908458524,0.18122765908458524
0.17932194109844693,0.17932194109844693
0.17741622311230862,0.17741622311230862
0.1755105051261703,0.1755105051261703
0.17233430848260647,0.17233430848260647
0.1678876331816171,0.1678876331816171
0.1634409578806277,0.1634409578806277
0.1596295219083511,0.1596295219083511
0.1558180859360745,0.1558180859360745
0.15327712862122342,0.15327712862122342
0.15073617130637235,0.15073617130637235
0.1475599746628085,0.1475599746628085
0.1456542566766702,0.1456542566766702
0.1437485386905319,0.1437485386905319
0.14120758137568082,0.14120758137568082
0.13803138473211699,0.13803138473211699
0.13485518808855312,0.13485518808855312
0.1316789914449893,0.1316789914449893
0.12850279480142546,0.12850279480142546
0.1272323161439999,0.1272323161439999
0.1253265981578616,0.1253265981578616
0.11960944419944669,0.11960944419944669
0.10626941829647855,0.10626941829647855
0.08657699910638274,0.08657699910638274
0.06688457991628692,0.06688457991628692
0.05862646864302093,0.05862646864302093
0.06751981924499968,0.06751981924499968
0.09292939239351042,0.09292939239351042
0.12215040151429776,0.12215040151429776
0.14184282070439358,0.14184282070439358
0.14184282070439358,0.14184282070439358
0.12405611950043607,0.12405611950043607
0.0973760676944998,0.0973760676944998
0.07387221253212738,0.07387221253212738
0.059896947300446465,0.059896947300446465
0.05417979334203155,0.05417979334203155
0.053544554013318785,0.053544554013318785
0.05227407535589325,0.05227407535589325
0.0490978787123294,0.0490978787123294
0.04592168206876556,0.04592168206876556
0.04338072475391449,0.04338072475391449
0.04020452811035065,0.04020452811035065
0.0370283314667868,0.0370283314667868
0.03321689549451019,0.03321689549451019
0.028134980864808045,0.028134980864808045
0.02368830556381867,0.02368830556381867
0.021147348248967593,0.021147348248967593
0.01860639093411652,0.01860639093411652
0.016700672947978213,0.016700672947978213
0.014794954961839909,0.014794954961839909
0.012253997646988835,0.012253997646988835
0.009713040332137761,0.009713040332137761
0.006536843688573919,0.006536843688573919
0.0033606470450100773,0.0033606470450100773
0.0014549290588717718,0.0014549290588717718
0.0001844504014462349,0.0001844504014462349
0.0001844504014462349,0.0001844504014462349
0.0008196897301590033,0.0008196897301590033
0.0014549290588717718,0.0014549290588717718
0.0008196897301590033,0.0008196897301590033
0.0001844504014462349,0.0001844504014462349
-0.0017212675846920704,-0.0017212675846920704
-0.004897464228255912,-0.004897464228255912
-0.007438421543106986,-0.007438421543106986
-0.008073660871819755,-0.008073660871819755
-0.008708900200532523,-0.008708900200532523
-0.009344139529245291,-0.009344139529245291
-0.008708900200532523,-0.008708900200532523
-0.010614618186670829,-0.010614618186670829
-0.010614618186670829,-0.010614618186670829
-0.011249857515383597,-0.011249857515383597
-0.015696532816372975,-0.015696532816372975
-0.01887272945993682,-0.01887272945993682
-0.023319404760926195,-0.023319404760926195
-0.025225122747064503,-0.025225122747064503
-0.027130840733202807,-0.027130840733202807
-0.03030703737676665,-0.03030703737676665
-0.033483234020330495,-0.033483234020330495
-0.03475371267775603,-0.03475371267775603
-0.03284799469161773,-0.03284799469161773
-0.03094227670547942,-0.03094227670547942
-0.03475371267775603,-0.03475371267775603
-0.043647063279734784,-0.043647063279734784
-0.043011823951022016,-0.043011823951022016
-0.008073660871819755,-0.008073660871819755
0.07641316984697845,0.07641316984697845
0.19456768498755336,0.19456768498755336
0.29493549892417076,0.29493549892417076
0.3133574394568411,0.3133574394568411
0.21489534350636197,0.21489534350636197
0.024958784221244205,0.024958784221244205
-0.17895304029555448,-0.17895304029555448
-0.3117180599965231,-0.3117180599965231
-0.33014000052919334,-0.33014000052919334
-0.2539112810836611,-0.2539112810836611
-0.14274439855892668,-0.14274439855892668
-0.05635184985399016,-0.05635184985399016
-0.019507968788649587,-0.019507968788649587
-0.020778447446075123,-0.020778447446075123
-0.0353889520064688,-0.0353889520064688
-0.043647063279734784,-0.043647063279734784
-0.043647063279734784,-0.043647063279734784
-0.04110610596488371,-0.04110610596488371
-0.04237658462230925,-0.04237658462230925
-0.0474584992520114,-0.0474584992520114
-0.052540413881713544,-0.052540413881713544
-0.055081371196564616,-0.055081371196564616
-0.055081371196564616,-0.055081371196564616
-0.05444613186785185,-0.05444613186785185
-0.052540413881713544,-0.052540413881713544
-0.05126993522428801,-0.05126993522428801
-0.0493642172381497,-0.0493642172381497
-0.048728977909436935,-0.048728977909436935
-0.051905174553000775,-0.051905174553000775
-0.05317565321042631,-0.05317565321042631
-0.057622328511415695,-0.057622328511415695
-0.05889280716884123,-0.05889280716884123
-0.05889280716884123,-0.05889280716884123
-0.05825756784012846,-0.05825756784012846
-0.05889280716884123,-0.05889280716884123
-0.05889280716884123,-0.05889280716884123
-0.05889280716884123,-0.05889280716884123
-0.05889280716884123,-0.05889280716884123
-0.05825756784012846,-0.05825756784012846
-0.05825756784012846,-0.05825756784012846
-0.05825756784012846,-0.05825756784012846
-0.05825756784012846,-0.05825756784012846
-0.05889280716884123,-0.05889280716884123
-0.060798525154979535,-0.060798525154979535
-0.06333948246983061,-0.06333948246983061
-0.06588043978468168,-0.06588043978468168
-0.06715091844210722,-0.06715091844210722
-0.06842139709953275,-0.06842139709953275
-0.06842139709953275,-0.06842139709953275
-0.06778615777081999,-0.06778615777081999
-0.06778615777081999,-0.06778615777081999
-0.06715091844210722,-0.06715091844210722
-0.06651567911339445,-0.06651567911339445
-0.06651567911339445,-0.06651567911339445
-0.06778615777081999,-0.06778615777081999
-0.06905663642824553,-0.06905663642824553
-0.06969187575695829,-0.06969187575695829
-0.06905663642824553,-0.06905663642824553
-0.06778615777081999,-0.06778615777081999
-0.06969187575695829,-0.06969187575695829
-0.07922046568764982,-0.07922046568764982
-0.09573668823418181,-0.09573668823418181
-0.11288815010942656,-0.11288815010942656
-0.11987578272526701,-0.11987578272526701
-0.10844147480843717,-0.10844147480843717
-0.07922046568764982,-0.07922046568764982
-0.04237658462230925,-0.04237658462230925
-0.013790814830234671,-0.013790814830234671
-0.004262224899543144,-0.004262224899543144
-0.012520336172809133,-0.012520336172809133
-0.03094227670547942,-0.03094227670547942
-0.0474584992520114,-0.0474584992520114
-0.055081371196564616,-0.055081371196564616
-0.05444613186785185,-0.05444613186785185
-0.05063469589557524,-0.05063469589557524
-0.0474584992520114,-0.0474584992520114
-0.04682325992329863,-0.04682325992329863
-0.04618802059458586,-0.04618802059458586
-0.045552781265873095,-0.045552781265873095
-0.04237658462230925,-0.04237658462230925
-0.040470866636170943,-0.040470866636170943
-0.03920038797874541,-0.03920038797874541
-0.039835627307458175,-0.039835627307458175
-0.04110610596488371,-0.04110610596488371
-0.043647063279734784,-0.043647063279734784
-0.04618802059458586,-0.04618802059458586
-0.048728977909436935,-0.048728977909436935
-0.048728977909436935,-0.048728977909436935
-0.04618802059458586,-0.04618802059458586
-0.04110610596488371,-0.04110610596488371
-0.03475371267775603,-0.03475371267775603
-0.03284799469161773,-0.03284799469161773
-0.03792990932131987,-0.03792990932131987
-0.05063469589557524,-0.05063469589557524
-0.07032711508567106,-0.07032711508567106
-0.09192525226190519,-0.09192525226190519
-0.10717099615101164,-0.10717099615101164
-0.11098243212328825,-0.11098243212328825
-0.10335956017873503,-0.10335956017873503
-0.08684333763220305,-0.08684333763220305
-0.06651567911339445,-0.06651567911339445
-0.0474584992520114,-0.0474584992520114
-0.033483234020330495,-0.033483234020330495
-0.024589883418351735,-0.024589883418351735
-0.02141368677478789,-0.02141368677478789
-0.024589883418351735,-0.024589883418351735
-0.029671798048053883,-0.029671798048053883
-0.040470866636170943,-0.040470866636170943
-0.05889280716884123,-0.05889280716884123
-0.08366714098863921,-0.08366714098863921
-0.11733482541041594,-0.11733482541041594
-0.14973203117476713,-0.14973203117476713
-0.17387112566585233,-0.17387112566585233
-0.17958827962426724,-0.17958827962426724
-0.16370729640644802,-0.16370729640644802
-0.1262281760123947,-0.1262281760123947
-0.07223283307180936,-0.07223283307180936
-0.012520336172809133,-0.012520336172809133
0.038298810124212344,0.038298810124212344
0.06624934058757415,0.06624934058757415
0.069425537231138,0.069425537231138
0.06497886193014861,0.06497886193014861
0.08213032380539335,0.08213032380539335
0.14184282070439358,0.14184282070439358
0.23331728403903224,0.23331728403903224
0.31018124281327725,0.31018124281327725
0.31081648214199,0.31081648214199
0.2040962749182449,0.2040962749182449
0.01415971563312714,0.01415971563312714
-0.18022351895298,-0.18022351895298
-0.2990132734222677,-0.2990132734222677
-0.2990132734222677,-0.2990132734222677
-0.20690357075891627,-0.20690357075891627
-0.08303190165992644,-0.08303190165992644
0.007172083017286688,0.007172083017286688
0.04528644274005279,0.04528644274005279
0.03766357079549957,0.03766357079549957
0.023053066235105897,0.023053066235105897
0.013524476304414373,0.013524476304414373
0.017971151605403753,0.017971151605403753
0.014794954961839909,0.014794954961839909
0.0014549290588717718,0.0014549290588717718
-0.0353889520064688,-0.0353889520064688
-0.07858522635893705,-0.07858522635893705
-0.13448628728566067,-0.13448628728566067
-0.18594067291139493,-0.18594067291139493
-0.2526408024262356,-0.2526408024262356
-0.33014000052919334,-0.33014000052919334
-0.4419421223826406,-0.4419421223826406
-0.5823300140281624,-0.5823300140281624
-0.7582913080815992,-0.7582913080815992
-0.9437811920657276,-0.9437811920657276
-1.1356234693369838,-1.1356234693369838
-1.3039618914458675,-1.3039618914458675
-1.4589602876517829,-1.4589602876517829
-1.5942662646676027,-1.5942662646676027
-1.7270312843685711,-1.7270312843685711
-1.854079150111125,-1.854079150111125
-1.985573691154668,-1.985573691154668
-2.109445360253658,-2.109445360253658
-2.2288703540516583,-2.2288703540516583
-2.336225800604116,-2.336225800604116
-2.42897074259618,-2.42897074259618
-2.497576590097159,-2.497576590097159
-2.5375966678060635,-2.5375966678060635
-2.5433138217644786,-2.5433138217644786
-2.514728051972404,-2.514728051972404
-2.459462230374393,-2.459462230374393
-2.3851392289149995,-2.3851392289149995
-2.301287637524914,-2.301287637524914
-2.213624610162552,-2.213624610162552
-2.125326343471477,-2.125326343471477
-2.0332166408081256,-2.0332166408081256
-1.939201220158636,-1.939201220158636
-1.8413743635368696,-1.8413743635368696
-1.7435475069151032,-1.7435475069151032
-1.6444501716359112,-1.6444501716359112
-1.544082357699294,-1.544082357699294
-1.4399031077903999,-1.4399031077903999
-1.330006703923091,-1.330006703923091
-1.2105817101250904,-1.2105817101250904
-1.0841690837112494,-1.0841690837112494
-0.9514040640102808,-0.9514040640102808
-0.8173685656518866,-0.8173685656518866
-0.6877797425944819,-0.6877797425944819
-0.5683547487964815,-0.5683547487964815
-0.4616345415727364,-0.4616345415727364
-0.3676191209232467,-0.3676191209232467
-0.2850380081905868,-0.2850380081905868
-0.20753881008762906,-0.20753881008762906
-0.13448628728566067,-0.13448628728566067
-0.06016328582626677,-0.06016328582626677
0.013524476304414373,0.013524476304414373
0.09038843507865935,0.09038843507865935
0.16598191519547878,0.16598191519547878
0.24538683128457484,0.24538683128457484
0.3241565080449581,0.3241565080449581
0.40546714212019247,0.40546714212019247
0.4829663402231502,0.4829663402231502
0.5579245810112569,0.5579245810112569
0.6258951891835232,0.6258951891835232
0.6894191220548,0.6894191220548
0.7440497043240981,0.7440497043240981
0.7929631326349813,0.7929631326349813
0.8342536890013112,0.8342536890013112
0.8691918520805135,0.8691918520805135
0.8977776218725881,0.8977776218725881
0.9219167163636733,0.9219167163636733
0.9428796142111947,0.9428796142111947
0.9619367940725777,0.9619367940725777
0.9822644525913863,0.9822644525913863
1.0019568717814822,1.0019568717814822
1.0235550089577163,1.0235550089577163
1.045788385462663,1.045788385462663
1.073103676597312,1.073103676597312
1.1029599250468123,1.1029599250468123
1.1404390454408657,1.1404390454408657
1.1817296018071957,1.1817296018071957
1.2312782694467914,1.2312782694467914
1.2846383730586641,1.2846383730586641
1.347527066601228,1.347527066601228
1.4135919567873558,1.4135919567873558
1.4910911548903136,1.4910911548903136
1.5685903529932714,1.5685903529932714
1.657523859013059,1.657523859013059
1.745186886375421,1.745186886375421
1.841108025011049,1.841108025011049
1.931947249016975,1.931947249016975
2.032315062953592,2.032315062953592
2.123789526288231,2.123789526288231
2.2241573402248482,2.2241573402248482
2.313726085573349,2.313726085573349
2.4039300702505617,2.4039300702505617
2.4814292683535197,2.4814292683535197
2.55956370578519,2.55956370578519
2.6224523993277544,2.6224523993277544
2.686611571527744,2.686611571527744
2.7317135638663506,2.7317135638663506
2.774274598890106,2.774274598890106
2.8003194113673295,2.8003194113673295
2.8250937451871274,2.8250937451871274
2.8308108991455425,2.8308108991455425
2.826364223844553,2.826364223844553
2.798413693381191,2.798413693381191
2.7736393595613933,2.7736393595613933
2.765381248288127,2.765381248288127
2.802225129353468,2.802225129353468
2.8625728655811806,2.8625728655811806
2.9083100972485,2.9083100972485
2.8689252588683085,2.8689252588683085
2.7145621019911057,2.7145621019911057
2.45856065251986,2.45856065251986
2.179055347886242,2.179055347886242
1.9541806255219218,1.9541806255219218
1.8372965890387725,1.8372965890387725
1.8106165372328362,1.8106165372328362
1.8239565631358043,1.8239565631358043
1.8156984518625383,1.8156984518625383
1.7642440662368042,1.7642440662368042
1.674040081559591,1.674040081559591
1.5730370282942607,1.5730370282942607
1.4777511289873455,1.4777511289873455
1.3951700162546856,1.3951700162546856
1.3183060574804406,1.3183060574804406
1.243983056021047,1.243983056021047
1.1683895759042275,1.1683895759042275
1.0978780104171102,1.0978780104171102
1.0305426415735568,1.0305426415735568
0.969559666017131,0.969559666017131
0.9085766904607051,0.9085766904607051
0.8533108688626942,0.8533108688626942
0.7980450472646835,0.7980450472646835
0.7523078155973641,0.7523078155973641
0.7053001052726192,0.7053001052726192
0.6640095489062893,0.6640095489062893
0.6201780352251082,0.6201780352251082
0.5814284361736294,0.5814284361736294
0.5395026404785866,0.5395026404785866
0.5064701953855226,0.5064701953855226
0.46835583566275657,0.46835583566275657
0.4365938692271181,0.4365938692271181
0.4016557061479159,0.4016557061479159
0.37179945769841577,0.37179945769841577
0.338131773276639,0.338131773276639
0.30954600348456446,0.30954600348456446
0.2790545157063516,0.2790545157063516
0.2536449425578408,0.2536449425578408
0.2282353694093301,0.2282353694093301
0.20663723223309596,0.20663723223309596
0.18313337707072352,0.18313337707072352
0.16026476123706387,0.16026476123706387
0.13612566674597867,0.13612566674597867
0.11389229024103177,0.11389229024103177
0.09102367440737211,0.09102367440737211
0.07196649454598907,0.07196649454598907
0.05417979334203155,0.05417979334203155
0.03956928878163788,0.03956928878163788
0.02686450220738251,0.02686450220738251
0.016700672947978213,0.016700672947978213
0.005266365031148383,0.005266365031148383
-0.005532703556968681,-0.005532703556968681
-0.01760225080251128,-0.01760225080251128
-0.028401319390628343,-0.028401319390628343
-0.03792990932131987,-0.03792990932131987
-0.04618802059458586,-0.04618802059458586
-0.05698708918270293,-0.05698708918270293
-0.07477379038666045,-0.07477379038666045
-0.10081860286388396,-0.10081860286388396
-0.128133893998533,-0.128133893998533
-0.144650116545065,-0.144650116545065
-0.14083868057278837,-0.14083868057278837
-0.1141586287668521,-0.1141586287668521
-0.07540902971537321,-0.07540902971537321
-0.04174134529359648,-0.04174134529359648
-0.025225122747064503,-0.025225122747064503
-0.029671798048053883,-0.029671798048053883
-0.0474584992520114,-0.0474584992520114
-0.06524520045596892,-0.06524520045596892
-0.07604426904408598,-0.07604426904408598
-0.07794998703022428,-0.07794998703022428
-0.07604426904408598,-0.07604426904408598
-0.0735033117292349,-0.0735033117292349
-0.07286807240052214,-0.07286807240052214
-0.07286807240052214,-0.07286807240052214
-0.07286807240052214,-0.07286807240052214
-0.07096235441438382,-0.07096235441438382
-0.06842139709953275,-0.06842139709953275
-0.06651567911339445,-0.06651567911339445
-0.06588043978468168,-0.06588043978468168
-0.06524520045596892,-0.06524520045596892
-0.06715091844210722,-0.06715091844210722
-0.06842139709953275,-0.06842139709953275
-0.07096235441438382,-0.07096235441438382
-0.07286807240052214,-0.07286807240052214
-0.07413855105794767,-0.07413855105794767
-0.07477379038666045,-0.07477379038666045
-0.07413855105794767,-0.07413855105794767
-0.07413855105794767,-0.07413855105794767
-0.07477379038666045,-0.07477379038666045
-0.07413855105794767,-0.07413855105794767
-0.07413855105794767,-0.07413855105794767
-0.07413855105794767,-0.07413855105794767
-0.07413855105794767,-0.07413855105794767
-0.07477379038666045,-0.07477379038666045
-0.07604426904408598,-0.07604426904408598
-0.07794998703022428,-0.07794998703022428
-0.08112618367378813,-0.08112618367378813
-0.08366714098863921,-0.08366714098863921
-0.08684333763220305,-0.08684333763220305
-0.08811381628962858,-0.08811381628962858
-0.08938429494705412,-0.08938429494705412
-0.09129001293319243,-0.09129001293319243
-0.09129001293319243,-0.09129001293319243
