ECG,PPG
-0.37129605127962917,-0.37129605127962917
0.0683472844037771,0.0683472844037771
-0.32011805765794665,-0.32011805765794665
-0.5087455198635766,-0.5087455198635766
-0.26845265457320044,-0.26845265457320044
-0.11881794941266194,-0.11881794941266194
-0.2172746609515179,-0.2172746609515179
-0.26845265457320044,-0.26845265457320044
-0.16609666732983533,-0.16609666732983533
-0.12028017780185286,-0.12028017780185286
-0.16609666732983533,-0.16609666732983533
-0.16024775377307163,-0.16024775377307163
-0.06374068008647024,-0.06374068008647024
0.0069336920577580475,0.0069336920577580475
0.03861530715689487,0.03861530715689487
0.08150733990649547,0.08150733990649547
0.14097129440025996,0.14097129440025996
0.16972845272101492,0.16972845272101492
0.19214928802194253,0.19214928802194253
0.2345539113084795,0.2345539113084795
0.2945052752653076,0.2945052752653076
0.34178399318248104,0.34178399318248104
0.39734867197173634,0.39734867197173634
0.4514511223718008,0.4514511223718008
0.4997046592151015,0.4997046592151015
0.5192010377376473,0.5192010377376473
0.5508826528367841,0.5508826528367841
0.5966991423647665,0.5966991423647665
0.6532386400801491,0.6532386400801491
0.6946684444405589,0.6946684444405589
0.7555946273235142,0.7555946273235142
0.8204200859109788,0.8204200859109788
0.8579506145668794,0.8579506145668794
0.8345549603398245,0.8345549603398245
0.8067726209451968,0.8067726209451968
0.8004362979253694,0.8004362979253694
0.8067726209451968,0.8067726209451968
0.7799651004766964,0.7799651004766964
0.7555946273235142,0.7555946273235142
0.7516953516190051,0.7516953516190051
0.7555946273235142,0.7555946273235142
0.7000299485342589,0.7000299485342589
0.6020606464584666,0.6020606464584666
0.5021417065304197,0.5021417065304197
0.4485266655934189,0.4485266655934189
0.4031975855285001,0.4031975855285001
0.34617067835005383,0.34617067835005383
0.26184884124004354,0.26184884124004354
0.19214928802194253,0.19214928802194253
0.13609719976962353,0.13609719976962353
0.08979330077857742,0.08979330077857742
0.015707062392903627,0.015707062392903627
-0.06374068008647024,-0.06374068008647024
-0.13344023330457125,-0.13344023330457125
-0.16609666732983533,-0.16609666732983533
-0.2060642433010541,-0.2060642433010541
-0.26845265457320044,-0.26845265457320044
-0.36057304309222904,-0.36057304309222904
-0.42247404490131174,-0.42247404490131174
-0.4409956044977302,-0.4409956044977302
-0.42247404490131174,-0.42247404490131174
-0.4322222341625846,-0.4322222341625846
-0.4736520385229943,-0.4736520385229943
-0.5238552132185496,-0.5238552132185496
-0.5248300321446768,-0.5248300321446768
-0.5102077482527676,-0.5102077482527676
-0.5248300321446768,-0.5248300321446768
-0.5896554907321414,-0.5896554907321414
-0.627186019388042,-0.627186019388042
-0.6140259638853236,-0.6140259638853236
-0.5760080257663595,-0.5760080257663595
-0.5745457973771685,-0.5745457973771685
-0.5760080257663595,-0.5760080257663595
-0.5584612850960683,-0.5584612850960683
-0.5248300321446768,-0.5248300321446768
-0.5209307564401677,-0.5209307564401677
-0.5248300321446768,-0.5248300321446768
-0.5277544889230588,-0.5277544889230588
-0.5248300321446768,-0.5248300321446768
-0.5360404497951406,-0.5360404497951406
-0.5248300321446768,-0.5248300321446768
-0.494610645434731,-0.494610645434731
-0.4736520385229943,-0.4736520385229943
-0.5004595589914946,-0.5004595589914946
-0.5248300321446768,-0.5248300321446768
-0.5141070239572767,-0.5141070239572767
-0.4736520385229943,-0.4736520385229943
-0.4624416208725305,-0.4624416208725305
-0.4736520385229943,-0.4736520385229943
-0.4858372750995854,-0.4858372750995854
-0.4736520385229943,-0.4736520385229943
-0.4687779438923579,-0.4687779438923579
-0.4736520385229943,-0.4736520385229943
-0.4848624561734581,-0.4848624561734581
-0.4736520385229943,-0.4736520385229943
-0.46487866818784873,-0.46487866818784873
-0.4736520385229943,-0.4736520385229943
-0.5082581104005129,-0.5082581104005129
-0.5248300321446768,-0.5248300321446768
-0.5262922605338678,-0.5262922605338678
-0.5248300321446768,-0.5248300321446768
-0.5384774971104589,-0.5384774971104589
-0.5248300321446768,-0.5248300321446768
-0.49217359811941275,-0.49217359811941275
-0.4736520385229943,-0.4736520385229943
-0.5043588346960038,-0.5043588346960038
-0.5248300321446768,-0.5248300321446768
-0.5067958820113221,-0.5067958820113221
-0.4736520385229943,-0.4736520385229943
-0.48924914134103087,-0.48924914134103087
-0.5248300321446768,-0.5248300321446768
-0.542376772814968,-0.542376772814968
-0.5248300321446768,-0.5248300321446768
-0.5194685280509768,-0.5194685280509768
-0.5248300321446768,-0.5248300321446768
-0.5350656308690134,-0.5350656308690134
-0.5248300321446768,-0.5248300321446768
-0.5072832914743857,-0.5072832914743857
-0.4736520385229943,-0.4736520385229943
-0.45756752624189406,-0.45756752624189406
-0.4736520385229943,-0.4736520385229943
-0.5180062996617858,-0.5180062996617858
-0.5248300321446768,-0.5248300321446768
-0.4960728738239219,-0.4960728738239219
-0.4736520385229943,-0.4736520385229943
-0.5019217873806856,-0.5019217873806856
-0.5248300321446768,-0.5248300321446768
-0.5111825671788949,-0.5111825671788949
-0.4736520385229943,-0.4736520385229943
-0.46780312496623055,-0.46780312496623055
-0.4736520385229943,-0.4736520385229943
-0.47755131422750347,-0.47755131422750347
-0.4736520385229943,-0.4736520385229943
-0.4838876372473308,-0.4838876372473308
-0.4736520385229943,-0.4736520385229943
-0.44538228966530297,-0.44538228966530297
-0.42247404490131174,-0.42247404490131174
-0.44684451805449393,-0.44684451805449393
-0.4736520385229943,-0.4736520385229943
-0.46634089657703964,-0.46634089657703964
-0.42247404490131174,-0.42247404490131174
-0.4063895326202115,-0.4063895326202115
-0.42247404490131174,-0.42247404490131174
-0.44392006127611205,-0.44392006127611205
-0.42247404490131174,-0.42247404490131174
-0.3883553824868567,-0.3883553824868567
-0.37129605127962917,-0.37129605127962917
-0.38299387839315663,-0.38299387839315663
-0.37129605127962917,-0.37129605127962917
-0.340101845643556,-0.340101845643556
-0.32011805765794665,-0.32011805765794665
-0.34838780651563794,-0.34838780651563794
-0.37129605127962917,-0.37129605127962917
-0.3586234052399745,-0.3586234052399745
-0.32011805765794665,-0.32011805765794665
-0.3118320967858647,-0.3118320967858647
-0.32011805765794665,-0.32011805765794665
-0.32791660906696496,-0.32791660906696496
-0.32011805765794665,-0.32011805765794665
-0.3230425144363285,-0.3230425144363285
-0.32011805765794665,-0.32011805765794665
-0.3191432387318194,-0.3191432387318194
-0.32011805765794665,-0.32011805765794665
-0.33376552262372866,-0.33376552262372866
-0.32011805765794665,-0.32011805765794665
-0.28843644255880985,-0.28843644255880985
-0.26845265457320044,-0.26845265457320044
-0.2972098128939554,-0.2972098128939554
-0.32011805765794665,-0.32011805765794665
-0.3084202305444192,-0.3084202305444192
-0.26845265457320044,-0.26845265457320044
-0.25967928423805486,-0.25967928423805486
-0.26845265457320044,-0.26845265457320044
-0.2791756627606006,-0.2791756627606006
-0.26845265457320044,-0.26845265457320044
-0.2679652451101368,-0.2679652451101368
-0.26845265457320044,-0.26845265457320044
-0.2747889775930278,-0.2747889775930278
-0.26845265457320044,-0.26845265457320044
-0.270402292425455,-0.270402292425455
-0.26845265457320044,-0.26845265457320044
-0.2723519302777096,-0.2723519302777096
-0.26845265457320044,-0.26845265457320044
-0.2723519302777096,-0.2723519302777096
-0.26845265457320044,-0.26845265457320044
-0.2708897018885187,-0.2708897018885187
-0.26845265457320044,-0.26845265457320044
-0.2738141586669005,-0.2738141586669005
-0.26845265457320044,-0.26845265457320044
-0.2689400640362641,-0.2689400640362641
-0.26845265457320044,-0.26845265457320044
-0.2782008438344733,-0.2782008438344733
-0.26845265457320044,-0.26845265457320044
-0.2474940476614638,-0.2474940476614638
-0.2172746609515179,-0.2172746609515179
-0.21240056632088147,-0.21240056632088147
-0.2172746609515179,-0.2172746609515179
-0.22702285021279076,-0.22702285021279076
-0.2172746609515179,-0.2172746609515179
-0.21435020417313602,-0.21435020417313602
-0.2172746609515179,-0.2172746609515179
-0.2309221259172999,-0.2309221259172999
-0.2172746609515179,-0.2172746609515179
-0.19095454994608116,-0.19095454994608116
-0.16609666732983533,-0.16609666732983533
-0.1690211241082172,-0.1690211241082172
-0.16609666732983533,-0.16609666732983533
-0.16414702947758078,-0.16414702947758078
-0.16609666732983533,-0.16609666732983533
-0.18266858907399922,-0.18266858907399922
-0.16609666732983533,-0.16609666732983533
-0.13100318598925303,-0.13100318598925303
-0.11491867370815279,-0.11491867370815279
-0.1500121550487351,-0.1500121550487351
-0.16609666732983533,-0.16609666732983533
-0.1431884225658441,-0.1431884225658441
-0.11491867370815279,-0.11491867370815279
-0.14026396578746225,-0.14026396578746225
-0.16609666732983533,-0.16609666732983533
-0.15488624967937153,-0.15488624967937153
-0.11491867370815279,-0.11491867370815279
-0.11053198854058,-0.11053198854058
-0.11491867370815279,-0.11491867370815279
-0.10127120874237078,-0.10127120874237078
-0.06374068008647024,-0.06374068008647024
-0.055454719214388305,-0.055454719214388305
-0.06374068008647024,-0.06374068008647024
-0.07397627881080675,-0.07397627881080675
-0.06374068008647024,-0.06374068008647024
-0.06374068008647024,-0.06374068008647024
-0.06374068008647024,-0.06374068008647024
-0.06958959364323396,-0.06958959364323396
-0.06374068008647024,-0.06374068008647024
-0.06666513686485209,-0.06666513686485209
-0.06374068008647024,-0.06374068008647024
-0.06666513686485209,-0.06666513686485209
-0.06374068008647024,-0.06374068008647024
-0.06910218418017032,-0.06910218418017032
-0.06374068008647024,-0.06374068008647024
-0.06422808954953388,-0.06422808954953388
-0.06374068008647024,-0.06374068008647024
-0.07397627881080675,-0.07397627881080675
-0.06374068008647024,-0.06374068008647024
-0.042294663711669934,-0.042294663711669934
-0.012562686464787687,-0.012562686464787687
-0.00866341076027854,-0.00866341076027854
-0.012562686464787687,-0.012562686464787687
-0.022310875726060553,-0.022310875726060553
-0.012562686464787687,-0.012562686464787687
0.0025470068901852568,0.0025470068901852568
0.03861530715689487,0.03861530715689487
0.08345697775875005,0.08345697775875005
0.14097129440025996,0.14097129440025996
0.1629047202381239,0.1629047202381239
0.14097129440025996,0.14097129440025996
0.09369257648308657,0.09369257648308657
0.08979330077857742,0.08979330077857742
0.10441558467048671,0.10441558467048671
0.08979330077857742,0.08979330077857742
0.035690850378513,0.035690850378513
0.03861530715689487,0.03861530715689487
0.10002889950291392,0.10002889950291392
0.14097129440025996,0.14097129440025996
0.10441558467048671,0.10441558467048671
0.08979330077857742,0.08979330077857742
0.12829864836060526,0.12829864836060526
0.14097129440025996,0.14097129440025996
0.05323759104880416,0.05323759104880416
-0.012562686464787687,-0.012562686464787687
0.037153078767703934,0.037153078767703934
0.14097129440025996,0.14097129440025996
0.15071948366153284,0.15071948366153284
0.08979330077857742,0.08979330077857742
0.04202717339834037,0.04202717339834037
0.03861530715689487,0.03861530715689487
0.015219652929839985,0.015219652929839985
-0.012562686464787687,-0.012562686464787687
-0.022310875726060553,-0.022310875726060553
-0.012562686464787687,-0.012562686464787687
-0.03498352176571528,-0.03498352176571528
-0.06374068008647024,-0.06374068008647024
-0.07738814505225225,-0.07738814505225225
-0.06374068008647024,-0.06374068008647024
-0.06374068008647024,-0.06374068008647024
-0.06374068008647024,-0.06374068008647024
-0.06715254632791574,-0.06715254632791574
-0.06374068008647024,-0.06374068008647024
-0.07348886934774311,-0.07348886934774311
-0.06374068008647024,-0.06374068008647024
-0.04180725424860629,-0.04180725424860629
-0.012562686464787687,-0.012562686464787687
-0.01597455270623319,-0.01597455270623319
-0.012562686464787687,-0.012562686464787687
-0.016949371632360478,-0.016949371632360478
-0.012562686464787687,-0.012562686464787687
-0.02767237981976063,-0.02767237981976063
-0.012562686464787687,-0.012562686464787687
0.01034555829920355,0.01034555829920355
0.03861530715689487,0.03861530715689487
0.05323759104880416,0.05323759104880416
0.08979330077857742,0.08979330077857742
0.12488678211915974,0.12488678211915974
0.14097129440025996,0.14097129440025996
0.13317274299124168,0.13317274299124168
0.19214928802194253,0.19214928802194253
0.36469223794647226,0.36469223794647226
0.6020606464584666,0.6020606464584666
0.7658302260478508,0.7658302260478508
0.9607940112733081,0.9607940112733081
1.6012500457389354,1.6012500457389354
3.009375984529801,3.009375984529801
4.76843673672649,4.76843673672649
6.0313146555243895,6.0313146555243895
6.411494036714032,6.411494036714032
6.287692033095866,6.287692033095866
5.907512651906225,5.907512651906225
4.955601970542929,4.955601970542929
3.2399206605589046,3.2399206605589046
1.421395953868451,1.421395953868451
0.3261868903644444,0.3261868903644444
0.03861530715689487,0.03861530715689487
0.011320377225330837,0.011320377225330837
-0.06374068008647024,-0.06374068008647024
-0.14026396578746225,-0.14026396578746225
-0.16609666732983533,-0.16609666732983533
-0.23677103947406364,-0.23677103947406364
-0.32011805765794665,-0.32011805765794665
-0.34253889295887424,-0.34253889295887424
-0.32011805765794665,-0.32011805765794665
-0.3581359957769108,-0.3581359957769108
-0.42247404490131174,-0.42247404490131174
-0.44976897483287576,-0.44976897483287576
-0.42247404490131174,-0.42247404490131174
-0.4190621786598662,-0.4190621786598662
-0.42247404490131174,-0.42247404490131174
-0.43270964362564823,-0.43270964362564823
-0.42247404490131174,-0.42247404490131174
-0.42929777738420277,-0.42929777738420277
-0.42247404490131174,-0.42247404490131174
-0.42101181651212083,-0.42101181651212083
-0.42247404490131174,-0.42247404490131174
-0.4375837382562847,-0.4375837382562847
-0.42247404490131174,-0.42247404490131174
-0.389330201412984,-0.389330201412984
-0.37129605127962917,-0.37129605127962917
-0.4020028474526387,-0.4020028474526387
-0.42247404490131174,-0.42247404490131174
-0.4068769420832752,-0.4068769420832752
-0.37129605127962917,-0.37129605127962917
-0.368859003964311,-0.368859003964311
-0.37129605127962917,-0.37129605127962917
-0.35618635792465625,-0.35618635792465625
-0.32011805765794665,-0.32011805765794665
-0.3118320967858647,-0.3118320967858647
-0.32011805765794665,-0.32011805765794665
-0.33035365638228315,-0.33035365638228315
-0.32011805765794665,-0.32011805765794665
-0.31816841980569205,-0.31816841980569205
-0.32011805765794665,-0.32011805765794665
-0.32791660906696496,-0.32791660906696496
-0.32011805765794665,-0.32011805765794665
-0.3191432387318194,-0.3191432387318194
-0.32011805765794665,-0.32011805765794665
-0.3162187819534375,-0.3162187819534375
-0.26845265457320044,-0.26845265457320044
-0.20752647169024502,-0.20752647169024502
-0.16609666732983533,-0.16609666732983533
-0.17145817142353542,-0.17145817142353542
-0.16609666732983533,-0.16609666732983533
-0.14123878471358953,-0.14123878471358953
-0.11491867370815279,-0.11491867370815279
-0.12417945350636202,-0.12417945350636202
-0.11491867370815279,-0.11491867370815279
-0.07202664095855217,-0.07202664095855217
-0.012562686464787687,-0.012562686464787687
0.010832967762267194,0.010832967762267194
0.03861530715689487,0.03861530715689487
0.08638143453713192,0.08638143453713192
0.14097129440025996,0.14097129440025996
0.14779502688315097,0.14779502688315097
0.14097129440025996,0.14097129440025996
0.1492572552723419,0.1492572552723419
0.19214928802194253,0.19214928802194253
0.23504132077154313,0.23504132077154313
0.2945052752653076,0.2945052752653076
0.35250700136988117,0.35250700136988117
0.39734867197173634,0.39734867197173634
0.40953390854832744,0.40953390854832744
0.4485266655934189,0.4485266655934189
0.5211506755899018,0.5211506755899018
0.6020606464584666,0.6020606464584666
0.6332548520945398,0.6332548520945398
0.6532386400801491,0.6532386400801491
0.6893069403468587,0.6893069403468587
0.7555946273235142,0.7555946273235142
0.8072600304082604,0.8072600304082604
0.8579506145668794,0.8579506145668794
0.9062041514101801,0.9062041514101801
0.9607940112733081,0.9607940112733081
0.9885763506679358,0.9885763506679358
1.0119720048949907,1.0119720048949907
1.0319557928806,1.0319557928806
1.0631499985166732,1.0631499985166732
1.0694863215365005,1.0694863215365005
1.0631499985166732,1.0631499985166732
1.0499899430139548,1.0499899430139548
1.0631499985166732,1.0631499985166732
1.0719233688518188,1.0719233688518188
1.0631499985166732,1.0631499985166732
1.0119720048949907,1.0119720048949907
0.9607940112733081,0.9607940112733081
0.921313844765153,0.921313844765153
0.9096160176516256,0.9096160176516256
0.8876825918137616,0.8876825918137616
0.8579506145668794,0.8579506145668794
0.8072600304082604,0.8072600304082604
0.7555946273235142,0.7555946273235142
0.6966180822928134,0.6966180822928134
0.6532386400801491,0.6532386400801491
0.6054725126999121,0.6054725126999121
0.5508826528367841,0.5508826528367841
0.46899786304209196,0.46899786304209196
0.39734867197173634,0.39734867197173634
0.3369098985518446,0.3369098985518446
0.2945052752653076,0.2945052752653076
0.2413776437913705,0.2413776437913705
0.19214928802194253,0.19214928802194253
0.12439937265609609,0.12439937265609609
0.03861530715689487,0.03861530715689487
-0.061791042234215665,-0.061791042234215665
-0.11491867370815279,-0.11491867370815279
-0.13587728061988946,-0.13587728061988946
-0.16609666732983533,-0.16609666732983533
-0.2489562760506547,-0.2489562760506547
-0.32011805765794665,-0.32011805765794665
-0.35472412953546534,-0.35472412953546534
-0.37129605127962917,-0.37129605127962917
-0.4253985016796936,-0.4253985016796936
-0.4736520385229943,-0.4736520385229943
-0.48778691295183996,-0.48778691295183996
-0.4736520385229943,-0.4736520385229943
-0.4926610075824764,-0.4926610075824764
-0.5248300321446768,-0.5248300321446768
-0.5443264106672225,-0.5443264106672225
-0.5248300321446768,-0.5248300321446768
-0.5024091968437493,-0.5024091968437493
-0.4736520385229943,-0.4736520385229943
-0.4492815653698121,-0.4492815653698121
-0.42247404490131174,-0.42247404490131174
-0.42101181651212083,-0.42101181651212083
-0.42247404490131174,-0.42247404490131174
-0.4141880840292298,-0.4141880840292298
-0.37129605127962917,-0.37129605127962917
-0.33376552262372866,-0.33376552262372866
-0.32011805765794665,-0.32011805765794665
-0.3327907036976014,-0.3327907036976014
-0.32011805765794665,-0.32011805765794665
-0.2903860804110644,-0.2903860804110644
-0.26845265457320044,-0.26845265457320044
-0.2801504816867279,-0.2801504816867279
-0.26845265457320044,-0.26845265457320044
-0.22214875558215433,-0.22214875558215433
-0.16609666732983533,-0.16609666732983533
-0.15732329699468978,-0.15732329699468978
-0.16609666732983533,-0.16609666732983533
-0.17145817142353542,-0.17145817142353542
-0.16609666732983533,-0.16609666732983533
-0.1758448565911082,-0.1758448565911082
-0.16609666732983533,-0.16609666732983533
-0.13831432793520768,-0.13831432793520768
-0.11491867370815279,-0.11491867370815279
-0.13831432793520768,-0.13831432793520768
-0.16609666732983533,-0.16609666732983533
-0.1758448565911082,-0.1758448565911082
-0.16609666732983533,-0.16609666732983533
-0.17340780927579,-0.17340780927579
-0.16609666732983533,-0.16609666732983533
-0.14123878471358953,-0.14123878471358953
-0.11491867370815279,-0.11491867370815279
-0.13490246169376216,-0.13490246169376216
-0.16609666732983533,-0.16609666732983533
-0.18169377014787194,-0.18169377014787194
-0.16609666732983533,-0.16609666732983533
-0.16317221055145348,-0.16317221055145348
-0.16609666732983533,-0.16609666732983533
-0.17389521873885364,-0.17389521873885364
-0.16609666732983533,-0.16609666732983533
-0.16707148625596263,-0.16707148625596263
-0.16609666732983533,-0.16609666732983533
-0.17145817142353542,-0.17145817142353542
-0.16609666732983533,-0.16609666732983533
-0.1690211241082172,-0.1690211241082172
-0.16609666732983533,-0.16609666732983533
-0.16999594303434448,-0.16999594303434448
-0.16609666732983533,-0.16609666732983533
-0.16999594303434448,-0.16999594303434448
-0.16609666732983533,-0.16609666732983533
-0.16950853357128084,-0.16950853357128084
-0.16609666732983533,-0.16609666732983533
-0.17048335249740812,-0.17048335249740812
-0.16609666732983533,-0.16609666732983533
-0.16853371464515357,-0.16853371464515357
-0.16609666732983533,-0.16609666732983533
-0.17194558088659906,-0.17194558088659906
-0.16609666732983533,-0.16609666732983533
-0.166584076792899,-0.166584076792899
-0.16609666732983533,-0.16609666732983533
-0.17633226605417185,-0.17633226605417185
-0.16609666732983533,-0.16609666732983533
-0.14611287934422595,-0.14611287934422595
-0.11491867370815279,-0.11491867370815279
-0.09493488572254341,-0.09493488572254341
-0.06374068008647024,-0.06374068008647024
-0.03400870283958799,-0.03400870283958799
-0.012562686464787687,-0.012562686464787687
-0.032546474450397066,-0.032546474450397066
-0.06374068008647024,-0.06374068008647024
-0.08274964914595233,-0.08274964914595233
-0.06374068008647024,-0.06374068008647024
-0.05155544350987915,-0.05155544350987915
-0.06374068008647024,-0.06374068008647024
-0.10322084659462535,-0.10322084659462535
-0.11491867370815279,-0.11491867370815279
-0.09834675196398891,-0.09834675196398891
-0.06374068008647024,-0.06374068008647024
-0.04278207317473357,-0.04278207317473357
-0.012562686464787687,-0.012562686464787687
0.005471463668567117,0.005471463668567117
-0.012562686464787687,-0.012562686464787687
-0.09298524787028883,-0.09298524787028883
-0.16609666732983533,-0.16609666732983533
-0.17828190390642643,-0.17828190390642643
-0.11491867370815279,-0.11491867370815279
-0.048630986731497294,-0.048630986731497294
-0.012562686464787687,-0.012562686464787687
-0.027184970356696987,-0.027184970356696987
-0.06374068008647024,-0.06374068008647024
-0.12222981565410744,-0.12222981565410744
-0.16609666732983533,-0.16609666732983533
-0.18608045531544473,-0.18608045531544473
-0.16609666732983533,-0.16609666732983533
-0.15342402129018062,-0.15342402129018062
-0.16609666732983533,-0.16609666732983533
-0.20703906222718138,-0.20703906222718138
-0.2172746609515179,-0.2172746609515179
-0.1958286445767176,-0.1958286445767176
-0.16609666732983533,-0.16609666732983533
-0.18266858907399922,-0.18266858907399922
-0.2172746609515179,-0.2172746609515179
-0.2396954962524455,-0.2396954962524455
-0.2172746609515179,-0.2172746609515179
-0.18900491209382658,-0.18900491209382658
-0.16609666732983533,-0.16609666732983533
-0.16755889571902627,-0.16755889571902627
-0.16609666732983533,-0.16609666732983533
-0.17097076196047178,-0.17097076196047178
-0.16609666732983533,-0.16609666732983533
-0.1724329903496627,-0.1724329903496627
-0.16609666732983533,-0.16609666732983533
-0.17194558088659906,-0.17194558088659906
-0.16609666732983533,-0.16609666732983533
-0.17438262820191727,-0.17438262820191727
-0.16609666732983533,-0.16609666732983533
-0.17097076196047178,-0.17097076196047178
-0.16609666732983533,-0.16609666732983533
-0.15488624967937153,-0.15488624967937153
-0.11491867370815279,-0.11491867370815279
-0.0812874207567614,-0.0812874207567614
-0.06374068008647024,-0.06374068008647024
-0.06520290847566117,-0.06520290847566117
-0.012562686464787687,-0.012562686464787687
0.13317274299124168,0.13317274299124168
0.34617067835005383,0.34617067835005383
0.48362014693400124,0.48362014693400124
0.5508826528367841,0.5508826528367841
0.8267564089308062,0.8267564089308062
1.6777733314399275,1.6777733314399275
3.0347212766091105,3.0347212766091105
4.443822034326104,4.443822034326104
5.5365940505147915,5.5365940505147915
6.287692033095866,6.287692033095866
6.534808630869134,6.534808630869134
5.877780674659342,5.877780674659342
4.221075909706019,4.221075909706019
2.241218670741499,2.241218670741499
0.7619309503433416,0.7619309503433416
0.03861530715689487,0.03861530715689487
-0.22556062182359984,-0.22556062182359984
-0.26845265457320044,-0.26845265457320044
-0.19241677833527207,-0.19241677833527207
-0.11491867370815279,-0.11491867370815279
-0.180231541758681,-0.180231541758681
-0.32011805765794665,-0.32011805765794665
-0.4083391704724661,-0.4083391704724661
-0.42247404490131174,-0.42247404490131174
-0.4502563842959394,-0.4502563842959394
-0.4736520385229943,-0.4736520385229943
-0.4609793924833396,-0.4609793924833396
-0.42247404490131174,-0.42247404490131174
-0.4375837382562847,-0.4375837382562847
-0.4736520385229943,-0.4736520385229943
-0.49802251167617645,-0.49802251167617645
-0.4736520385229943,-0.4736520385229943
-0.4673157155031669,-0.4673157155031669
-0.4736520385229943,-0.4736520385229943
-0.4916861886563491,-0.4916861886563491
-0.4736520385229943,-0.4736520385229943
-0.44489488020223933,-0.44489488020223933
-0.42247404490131174,-0.42247404490131174
-0.42588591114275726,-0.42588591114275726
-0.42247404490131174,-0.42247404490131174
-0.42003699758599355,-0.42003699758599355
-0.42247404490131174,-0.42247404490131174
-0.4400207855716029,-0.4400207855716029
-0.42247404490131174,-0.42247404490131174
-0.37178346074269286,-0.37178346074269286
-0.32011805765794665,-0.32011805765794665
-0.3152439630273102,-0.3152439630273102
-0.32011805765794665,-0.32011805765794665
-0.3191432387318194,-0.3191432387318194
-0.32011805765794665,-0.32011805765794665
-0.35326190114627437,-0.35326190114627437
-0.37129605127962917,-0.37129605127962917
-0.355211538998529,-0.355211538998529
-0.32011805765794665,-0.32011805765794665
-0.3162187819534375,-0.3162187819534375
-0.32011805765794665,-0.32011805765794665
-0.3220676955102012,-0.3220676955102012
-0.32011805765794665,-0.32011805765794665
-0.33474034154985594,-0.33474034154985594
-0.32011805765794665,-0.32011805765794665
-0.27186452081464596,-0.27186452081464596
-0.2172746609515179,-0.2172746609515179
-0.21142574739475417,-0.21142574739475417
-0.2172746609515179,-0.2172746609515179
-0.2050894243749268,-0.2050894243749268
-0.16609666732983533,-0.16609666732983533
-0.1568358875316261,-0.1568358875316261
-0.16609666732983533,-0.16609666732983533
-0.166584076792899,-0.166584076792899
-0.11491867370815279,-0.11491867370815279
-0.05496730975132466,-0.05496730975132466
-0.012562686464787687,-0.012562686464787687
0.0001099595748670402,0.0001099595748670402
0.03861530715689487,0.03861530715689487
0.09369257648308657,0.09369257648308657
0.14097129440025996,0.14097129440025996
0.13950906601106905,0.13950906601106905
0.14097129440025996,0.14097129440025996
0.17314031896246043,0.17314031896246043
0.24332728164362508,0.24332728164362508
0.2984045509698168,0.2984045509698168
0.34617067835005383,0.34617067835005383
0.38906271109965446,0.38906271109965446
0.4485266655934189,0.4485266655934189
0.4967802024367196,0.4967802024367196
0.5508826528367841,0.5508826528367841
0.5991361896800848,0.5991361896800848
0.6532386400801491,0.6532386400801491
0.6951558539036224,0.6951558539036224
0.7555946273235142,0.7555946273235142
0.8272438183938698,0.8272438183938698
0.9096160176516256,0.9096160176516256
0.9661555153670082,0.9661555153670082
1.0119720048949907,1.0119720048949907
1.0382921159004275,1.0382921159004275
1.0631499985166732,1.0631499985166732
1.078259691871646,1.078259691871646
1.1143279921383558,1.1143279921383558
1.1484466545528107,1.1484466545528107
1.1655059857600383,1.1655059857600383
1.138698465291538,1.138698465291538
1.1143279921383558,1.1143279921383558
1.1055546218032102,1.1055546218032102
1.1143279921383558,1.1143279921383558
1.096293842005001,1.096293842005001
1.0631499985166732,1.0631499985166732
1.0119720048949907,1.0119720048949907
0.9607940112733081,0.9607940112733081
0.8988930094642253,0.8988930094642253
0.8579506145668794,0.8579506145668794
0.8170082196695333,0.8170082196695333
0.7555946273235142,0.7555946273235142
0.6498267738387036,0.6498267738387036
0.5508826528367841,0.5508826528367841
0.4694852725051556,0.4694852725051556
0.39734867197173634,0.39734867197173634
0.29255563741305307,0.29255563741305307
0.19214928802194253,0.19214928802194253
0.10782745091193222,0.10782745091193222
0.03861530715689487,0.03861530715689487
-0.06130363277115202,-0.06130363277115202
-0.16609666732983533,-0.16609666732983533
-0.2601666937011185,-0.2601666937011185
-0.32011805765794665,-0.32011805765794665
-0.3766575553733293,-0.3766575553733293
-0.42247404490131174,-0.42247404490131174
-0.47413944798605795,-0.47413944798605795
-0.5248300321446768,-0.5248300321446768
-0.5886806718060141,-0.5886806718060141
-0.627186019388042,-0.627186019388042
-0.6388838465015694,-0.6388838465015694
-0.627186019388042,-0.627186019388042
-0.6432705316691422,-0.6432705316691422
-0.6783640130097245,-0.6783640130097245
-0.7217434552223888,-0.7217434552223888
-0.729542006631407,-0.729542006631407
-0.7124826754241795,-0.7124826754241795
-0.6783640130097245,-0.6783640130097245
-0.6695906426745789,-0.6695906426745789
-0.6783640130097245,-0.6783640130097245
-0.6949359347538884,-0.6949359347538884
-0.6783640130097245,-0.6783640130097245
-0.6496068546889695,-0.6496068546889695
-0.627186019388042,-0.627186019388042
-0.6344971613339966,-0.6344971613339966
-0.627186019388042,-0.627186019388042
-0.5896554907321414,-0.5896554907321414
-0.5248300321446768,-0.5248300321446768
-0.48632468456264905,-0.48632468456264905
-0.4736520385229943,-0.4736520385229943
-0.4673157155031669,-0.4673157155031669
-0.42247404490131174,-0.42247404490131174
-0.36398490933367456,-0.36398490933367456
-0.32011805765794665,-0.32011805765794665
-0.3171936008795648,-0.3171936008795648
-0.32011805765794665,-0.32011805765794665
-0.3220676955102012,-0.3220676955102012
-0.32011805765794665,-0.32011805765794665
-0.3298662469192195,-0.3298662469192195
-0.32011805765794665,-0.32011805765794665
-0.2952601750417008,-0.2952601750417008
-0.26845265457320044,-0.26845265457320044
-0.270402292425455,-0.270402292425455
-0.26845265457320044,-0.26845265457320044
-0.2645533788686913,-0.2645533788686913
-0.26845265457320044,-0.26845265457320044
-0.3040335453768464,-0.3040335453768464
-0.32011805765794665,-0.32011805765794665
-0.3025713169876555,-0.3025713169876555
-0.26845265457320044,-0.26845265457320044
-0.2665030167209459,-0.2665030167209459
-0.26845265457320044,-0.26845265457320044
-0.26747783564707317,-0.26747783564707317
-0.26845265457320044,-0.26845265457320044
-0.3011090885984645,-0.3011090885984645
-0.32011805765794665,-0.32011805765794665
-0.305983183229101,-0.305983183229101
-0.26845265457320044,-0.26845265457320044
-0.2616289220903094,-0.2616289220903094
-0.26845265457320044,-0.26845265457320044
-0.27625120598221875,-0.27625120598221875
-0.26845265457320044,-0.26845265457320044
-0.27186452081464596,-0.27186452081464596
-0.26845265457320044,-0.26845265457320044
-0.2689400640362641,-0.2689400640362641
-0.26845265457320044,-0.26845265457320044
-0.2811253006128552,-0.2811253006128552
-0.26845265457320044,-0.26845265457320044
-0.24018290571550913,-0.24018290571550913
-0.2172746609515179,-0.2172746609515179
-0.2396954962524455,-0.2396954962524455
-0.26845265457320044,-0.26845265457320044
-0.28210011953898245,-0.28210011953898245
-0.26845265457320044,-0.26845265457320044
-0.26699042618400953,-0.26699042618400953
-0.26845265457320044,-0.26845265457320044
-0.27430156812996415,-0.27430156812996415
-0.26845265457320044,-0.26845265457320044
-0.27332674920383687,-0.27332674920383687
-0.26845265457320044,-0.26845265457320044
-0.25480518960741844,-0.25480518960741844
-0.2172746609515179,-0.2172746609515179
-0.18754268370463564,-0.18754268370463564
-0.16609666732983533,-0.16609666732983533
-0.16755889571902627,-0.16755889571902627
-0.16609666732983533,-0.16609666732983533
-0.16999594303434448,-0.16999594303434448
-0.16609666732983533,-0.16609666732983533
-0.17048335249740812,-0.17048335249740812
-0.16609666732983533,-0.16609666732983533
-0.1680463051820899,-0.1680463051820899
-0.16609666732983533,-0.16609666732983533
-0.1724329903496627,-0.1724329903496627
-0.16609666732983533,-0.16609666732983533
-0.16463443894064442,-0.16463443894064442
-0.16609666732983533,-0.16609666732983533
-0.180231541758681,-0.180231541758681
-0.16609666732983533,-0.16609666732983533
-0.12320463458023473,-0.12320463458023473
-0.06374068008647024,-0.06374068008647024
-0.04375689210086086,-0.04375689210086086
-0.06374068008647024,-0.06374068008647024
-0.1183305399495983,-0.1183305399495983
-0.16609666732983533,-0.16609666732983533
-0.20655165276411774,-0.20655165276411774
-0.2172746609515179,-0.2172746609515179
-0.20703906222718138,-0.20703906222718138
-0.16609666732983533,-0.16609666732983533
-0.13149059545231667,-0.13149059545231667
-0.11491867370815279,-0.11491867370815279
-0.13685209954601674,-0.13685209954601674
-0.16609666732983533,-0.16609666732983533
-0.1982656918920358,-0.1982656918920358
-0.2172746609515179,-0.2172746609515179
-0.24505700034614555,-0.24505700034614555
-0.26845265457320044,-0.26845265457320044
-0.29915945074621,-0.29915945074621
-0.32011805765794665,-0.32011805765794665
-0.3357151604759832,-0.3357151604759832
-0.32011805765794665,-0.32011805765794665
-0.2933105371894463,-0.2933105371894463
-0.26845265457320044,-0.26845265457320044
-0.2708897018885187,-0.2708897018885187
-0.26845265457320044,-0.26845265457320044
-0.2679652451101368,-0.2679652451101368
-0.26845265457320044,-0.26845265457320044
-0.28404975739123706,-0.28404975739123706
-0.26845265457320044,-0.26845265457320044
-0.23677103947406364,-0.23677103947406364
-0.2172746609515179,-0.2172746609515179
-0.24846886658759107,-0.24846886658759107
-0.26845265457320044,-0.26845265457320044
-0.2587044653119276,-0.2587044653119276
-0.2172746609515179,-0.2172746609515179
-0.21581243256232696,-0.21581243256232696
-0.2172746609515179,-0.2172746609515179
-0.2104509284686269,-0.2104509284686269
-0.16609666732983533,-0.16609666732983533
-0.13587728061988946,-0.13587728061988946
-0.11491867370815279,-0.11491867370815279
-0.09883416142705256,-0.09883416142705256
-0.06374068008647024,-0.06374068008647024
-0.039857616396351714,-0.039857616396351714
-0.012562686464787687,-0.012562686464787687
0.04885090588123137,0.04885090588123137
0.19214928802194253,0.19214928802194253
0.3622551906311541,0.3622551906311541
0.4997046592151015,0.4997046592151015
0.6366667183359852,0.6366667183359852
1.0119720048949907,1.0119720048949907
1.861526699014921,1.861526699014921
3.214087959016531,3.214087959016531
4.74162921625799,4.74162921625799
5.980136661902708,5.980136661902708
6.541632363352025,6.541632363352025
6.287692033095866,6.287692033095866
5.251946924085624,5.251946924085624
3.675177311074738,3.675177311074738
1.958521182164586,1.958521182164586
0.6020606464584666,0.6020606464584666
-0.11638090209734372,-0.11638090209734372
-0.26845265457320044,-0.26845265457320044
-0.19875310135509944,-0.19875310135509944
-0.16609666732983533,-0.16609666732983533
-0.23725844893712728,-0.23725844893712728
-0.32011805765794665,-0.32011805765794665
-0.38006942161477475,-0.38006942161477475
-0.42247404490131174,-0.42247404490131174
-0.4687779438923579,-0.4687779438923579
-0.4736520385229943,-0.4736520385229943
-0.44733192751755757,-0.44733192751755757
-0.42247404490131174,-0.42247404490131174
-0.4487941559067485,-0.4487941559067485
-0.4736520385229943,-0.4736520385229943
-0.48437504671039444,-0.48437504671039444
-0.4736520385229943,-0.4736520385229943
-0.48876173187796723,-0.48876173187796723
-0.4736520385229943,-0.4736520385229943
-0.44245783288692114,-0.44245783288692114
-0.42247404490131174,-0.42247404490131174
-0.45610529785270315,-0.45610529785270315
-0.4736520385229943,-0.4736520385229943
-0.44976897483287576,-0.44976897483287576
-0.42247404490131174,-0.42247404490131174
-0.4502563842959394,-0.4502563842959394
-0.4736520385229943,-0.4736520385229943
-0.4570801167788304,-0.4570801167788304
-0.42247404490131174,-0.42247404490131174
-0.42588591114275726,-0.42588591114275726
-0.42247404490131174,-0.42247404490131174
-0.39420429604362045,-0.39420429604362045
-0.37129605127962917,-0.37129605127962917
-0.4024902569157024,-0.4024902569157024
-0.42247404490131174,-0.42247404490131174
-0.3868931540976658,-0.3868931540976658
-0.32011805765794665,-0.32011805765794665
-0.3040335453768464,-0.3040335453768464
-0.32011805765794665,-0.32011805765794665
-0.33181588477147406,-0.33181588477147406
-0.32011805765794665,-0.32011805765794665
-0.3230425144363285,-0.3230425144363285
-0.32011805765794665,-0.32011805765794665
-0.30208390752459185,-0.30208390752459185
-0.26845265457320044,-0.26845265457320044
-0.26406596940562765,-0.26406596940562765
-0.26845265457320044,-0.26845265457320044
-0.2616289220903094,-0.2616289220903094
-0.2172746609515179,-0.2172746609515179
-0.18071895122174464,-0.18071895122174464
-0.16609666732983533,-0.16609666732983533
-0.17876931336949006,-0.17876931336949006
-0.16609666732983533,-0.16609666732983533
-0.12564168189555294,-0.12564168189555294
-0.06374068008647024,-0.06374068008647024
-0.03010942713507885,-0.03010942713507885
-0.012562686464787687,-0.012562686464787687
-0.0018396782773875333,-0.0018396782773875333
0.03861530715689487,0.03861530715689487
0.0873562534632592,0.0873562534632592
0.14097129440025996,0.14097129440025996
0.16972845272101492,0.16972845272101492
0.19214928802194253,0.19214928802194253
0.20628416245078818,0.20628416245078818
0.24332728164362508,0.24332728164362508
0.2881689522454803,0.2881689522454803
0.34617067835005383,0.34617067835005383
0.3924745773410999,0.3924745773410999
0.4485266655934189,0.4485266655934189
0.4977550213628469,0.4977550213628469
0.5508826528367841,0.5508826528367841
0.593287276123321,0.593287276123321
0.6532386400801491,0.6532386400801491
0.7083159094063408,0.7083159094063408
0.7555946273235142,0.7555946273235142
0.788738470811842,0.788738470811842
0.8579506145668794,0.8579506145668794
0.9437346800660805,0.9437346800660805
1.0119720048949907,1.0119720048949907
1.0300061550283455,1.0300061550283455
1.0631499985166732,1.0631499985166732
1.1187146773059284,1.1187146773059284
1.1655059857600383,1.1655059857600383
1.1601444816663382,1.1601444816663382
1.1655059857600383,1.1655059857600383
1.197187600859175,1.197187600859175
1.2166839793817208,1.2166839793817208
1.1669682141492292,1.1669682141492292
1.1143279921383558,1.1143279921383558
1.103117574487892,1.103117574487892
1.1143279921383558,1.1143279921383558
1.074360416167137,1.074360416167137
1.0119720048949907,1.0119720048949907
0.955432507179608,0.955432507179608
0.9096160176516256,0.9096160176516256
0.8306556846353154,0.8306556846353154
0.7555946273235142,0.7555946273235142
0.7005173579973225,0.7005173579973225
0.6532386400801491,0.6532386400801491
0.5581937947827387,0.5581937947827387
0.4485266655934189,0.4485266655934189
0.35396922975907213,0.35396922975907213
0.2945052752653076,0.2945052752653076
0.22383090312107934,0.22383090312107934
0.14097129440025996,0.14097129440025996
0.03666566930464029,0.03666566930464029
-0.06374068008647024,-0.06374068008647024
-0.159760344310008,-0.159760344310008
-0.2172746609515179,-0.2172746609515179
-0.26406596940562765,-0.26406596940562765
-0.32011805765794665,-0.32011805765794665
-0.4073643515463388,-0.4073643515463388
-0.4736520385229943,-0.4736520385229943
-0.5082581104005129,-0.5082581104005129
-0.5248300321446768,-0.5248300321446768
-0.5745457973771685,-0.5745457973771685
-0.627186019388042,-0.627186019388042
-0.6525313114673514,-0.6525313114673514
-0.627186019388042,-0.627186019388042
-0.6115889165700054,-0.6115889165700054
-0.627186019388042,-0.627186019388042
-0.6700780521376426,-0.6700780521376426
-0.6783640130097245,-0.6783640130097245
-0.6574054060979878,-0.6574054060979878
-0.627186019388042,-0.627186019388042
-0.6281608383141692,-0.6281608383141692
-0.627186019388042,-0.627186019388042
-0.6125637354961326,-0.6125637354961326
-0.5760080257663595,-0.5760080257663595
-0.5516375526131773,-0.5516375526131773
-0.5248300321446768,-0.5248300321446768
-0.49997214952843105,-0.49997214952843105
-0.4736520385229943,-0.4736520385229943
-0.4736520385229943,-0.4736520385229943
-0.4736520385229943,-0.4736520385229943
-0.4624416208725305,-0.4624416208725305
-0.42247404490131174,-0.42247404490131174
-0.37617014591026565,-0.37617014591026565
-0.32011805765794665,-0.32011805765794665
-0.28210011953898245,-0.28210011953898245
-0.26845265457320044,-0.26845265457320044
-0.2811253006128552,-0.2811253006128552
-0.26845265457320044,-0.26845265457320044
-0.23872067732631821,-0.23872067732631821
-0.2172746609515179,-0.2172746609515179
-0.2284850786019817,-0.2284850786019817
-0.2172746609515179,-0.2172746609515179
-0.18413081746319016,-0.18413081746319016
-0.16609666732983533,-0.16609666732983533
-0.19972792028122674,-0.19972792028122674
-0.2172746609515179,-0.2172746609515179
-0.1948538256505903,-0.1948538256505903
-0.16609666732983533,-0.16609666732983533
-0.18997973101995386,-0.18997973101995386
-0.2172746609515179,-0.2172746609515179
-0.2206865271929634,-0.2206865271929634
-0.2172746609515179,-0.2172746609515179
-0.25188073282903656,-0.25188073282903656
-0.26845265457320044,-0.26845265457320044
-0.2465192287353365,-0.2465192287353365
-0.2172746609515179,-0.2172746609515179
-0.2421325435677637,-0.2421325435677637
-0.26845265457320044,-0.26845265457320044
-0.25626741799660935,-0.25626741799660935
-0.2172746609515179,-0.2172746609515179
-0.22799766913891806,-0.22799766913891806
-0.26845265457320044,-0.26845265457320044
-0.2933105371894463,-0.2933105371894463
-0.26845265457320044,-0.26845265457320044
-0.25383037068129116,-0.25383037068129116
-0.26845265457320044,-0.26845265457320044
-0.2937979466525099,-0.2937979466525099
-0.26845265457320044,-0.26845265457320044
-0.22702285021279076,-0.22702285021279076
-0.2172746609515179,-0.2172746609515179
-0.25967928423805486,-0.25967928423805486
-0.26845265457320044,-0.26845265457320044
-0.22214875558215433,-0.22214875558215433
-0.16609666732983533,-0.16609666732983533
-0.17876931336949006,-0.17876931336949006
-0.2172746609515179,-0.2172746609515179
-0.23433399215874542,-0.23433399215874542
-0.2172746609515179,-0.2172746609515179
-0.2187368893407088,-0.2187368893407088
-0.2172746609515179,-0.2172746609515179
-0.20021532974429038,-0.20021532974429038
-0.16609666732983533,-0.16609666732983533
-0.16073516323613526,-0.16073516323613526
-0.16609666732983533,-0.16609666732983533
-0.17389521873885364,-0.17389521873885364
-0.16609666732983533,-0.16609666732983533
-0.15586106860549884,-0.15586106860549884
-0.11491867370815279,-0.11491867370815279
-0.07348886934774311,-0.07348886934774311
-0.06374068008647024,-0.06374068008647024
-0.10224602766849807,-0.10224602766849807
-0.11491867370815279,-0.11491867370815279
-0.08859856270271604,-0.08859856270271604
-0.06374068008647024,-0.06374068008647024
-0.1061453033730072,-0.1061453033730072
-0.16609666732983533,-0.16609666732983533
-0.19241677833527207,-0.19241677833527207
-0.16609666732983533,-0.16609666732983533
-0.1407513752505259,-0.1407513752505259
-0.11491867370815279,-0.11491867370815279
-0.08859856270271604,-0.08859856270271604
-0.06374068008647024,-0.06374068008647024
-0.09444747625947977,-0.09444747625947977
-0.16609666732983533,-0.16609666732983533
-0.2309221259172999,-0.2309221259172999
-0.2172746609515179,-0.2172746609515179
-0.1587855253838807,-0.1587855253838807
-0.11491867370815279,-0.11491867370815279
-0.13490246169376216,-0.13490246169376216
-0.16609666732983533,-0.16609666732983533
-0.1777944944433628,-0.1777944944433628
-0.16609666732983533,-0.16609666732983533
-0.1836434080001265,-0.1836434080001265
-0.2172746609515179,-0.2172746609515179
-0.2533429612182275,-0.2533429612182275
-0.26845265457320044,-0.26845265457320044
-0.29428535611557355,-0.29428535611557355
-0.32011805765794665,-0.32011805765794665
-0.3376647983282378,-0.3376647983282378
-0.32011805765794665,-0.32011805765794665
-0.2937979466525099,-0.2937979466525099
-0.26845265457320044,-0.26845265457320044
-0.2679652451101368,-0.2679652451101368
-0.26845265457320044,-0.26845265457320044
-0.2738141586669005,-0.2738141586669005
-0.26845265457320044,-0.26845265457320044
-0.2713771113515823,-0.2713771113515823
-0.26845265457320044,-0.26845265457320044
-0.27283933974077323,-0.27283933974077323
-0.26845265457320044,-0.26845265457320044
-0.2738141586669005,-0.2738141586669005
-0.26845265457320044,-0.26845265457320044
-0.2611415126272458,-0.2611415126272458
-0.2172746609515179,-0.2172746609515179
-0.18510563638931743,-0.18510563638931743
-0.16609666732983533,-0.16609666732983533
-0.17974413229561736,-0.17974413229561736
-0.16609666732983533,-0.16609666732983533
-0.1553736591424352,-0.1553736591424352
-0.16609666732983533,-0.16609666732983533
-0.1958286445767176,-0.1958286445767176
-0.16609666732983533,-0.16609666732983533
-0.10029638981624349,-0.10029638981624349
-0.06374068008647024,-0.06374068008647024
-0.061791042234215665,-0.061791042234215665
0.03861530715689487,0.03861530715689487
0.25405028983102523,0.25405028983102523
0.4485266655934189,0.4485266655934189
0.5284618175358564,0.5284618175358564
0.7555946273235142,0.7555946273235142
1.5261889884271345,1.5261889884271345
2.9581979909081184,2.9581979909081184
4.628062811364161,4.628062811364161
5.928958668281025,5.928958668281025
6.4802187710060055,6.4802187710060055
6.287692033095866,6.287692033095866
5.451784803941718,5.451784803941718
4.085088669511262,4.085088669511262
2.4103497544245833,2.4103497544245833
0.9096160176516256,0.9096160176516256
-0.0023270877404511768,-0.0023270877404511768
-0.26845265457320044,-0.26845265457320044
-0.2172746609515179,-0.2172746609515179
-0.16609666732983533,-0.16609666732983533
-0.24115772464163643,-0.24115772464163643
-0.37129605127962917,-0.37129605127962917
-0.48340022778426717,-0.48340022778426717
-0.5248300321446768,-0.5248300321446768
-0.5277544889230588,-0.5277544889230588
-0.5248300321446768,-0.5248300321446768
-0.5516375526131773,-0.5516375526131773
-0.5760080257663595,-0.5760080257663595
-0.6042777746240507,-0.6042777746240507
-0.627186019388042,-0.627186019388042
-0.6535061303934787,-0.6535061303934787
-0.627186019388042,-0.627186019388042
-0.591605128584396,-0.591605128584396
-0.5760080257663595,-0.5760080257663595
-0.6159756017375781,-0.6159756017375781
-0.627186019388042,-0.627186019388042
-0.6013533178456688,-0.6013533178456688
-0.5760080257663595,-0.5760080257663595
-0.6057400030132416,-0.6057400030132416
-0.627186019388042,-0.627186019388042
-0.5940421758997142,-0.5940421758997142
-0.5248300321446768,-0.5248300321446768
-0.5053336536221311,-0.5053336536221311
-0.5248300321446768,-0.5248300321446768
-0.5418893633519044,-0.5418893633519044
-0.5248300321446768,-0.5248300321446768
-0.5175188901987222,-0.5175188901987222
-0.5248300321446768,-0.5248300321446768
-0.5389649065735225,-0.5389649065735225
-0.5248300321446768,-0.5248300321446768
-0.49997214952843105,-0.49997214952843105
-0.4736520385229943,-0.4736520385229943
-0.47072758174461243,-0.47072758174461243
-0.4736520385229943,-0.4736520385229943
-0.48193799939507626,-0.48193799939507626
-0.4736520385229943,-0.4736520385229943
-0.4570801167788304,-0.4570801167788304
-0.42247404490131174,-0.42247404490131174
-0.40785176100940246,-0.40785176100940246
-0.42247404490131174,-0.42247404490131174
-0.4502563842959394,-0.4502563842959394
-0.42247404490131174,-0.42247404490131174
-0.3600856336291654,-0.3600856336291654
-0.32011805765794665,-0.32011805765794665
-0.3342529320867923,-0.3342529320867923
-0.32011805765794665,-0.32011805765794665
-0.2616289220903094,-0.2616289220903094
-0.2172746609515179,-0.2172746609515179
-0.24798145712452743,-0.24798145712452743
-0.26845265457320044,-0.26845265457320044
-0.22945989752810897,-0.22945989752810897
-0.16609666732983533,-0.16609666732983533
-0.1621973916253262,-0.1621973916253262
-0.16609666732983533,-0.16609666732983533
-0.13051577652618937,-0.13051577652618937
-0.06374068008647024,-0.06374068008647024
-0.035470931228778924,-0.035470931228778924
-0.012562686464787687,-0.012562686464787687
0.03130416521094021,0.03130416521094021
0.08979330077857742,0.08979330077857742
0.11172672661644137,0.11172672661644137
0.14097129440025996,0.14097129440025996
0.20384711513546996,0.20384711513546996
0.2945052752653076,0.2945052752653076
0.35201959190681753,0.35201959190681753
0.39734867197173634,0.39734867197173634
0.4421903425735916,0.4421903425735916
0.4997046592151015,0.4997046592151015
0.5416218730385748,0.5416218730385748
0.6020606464584666,0.6020606464584666
0.6771217037702677,0.6771217037702677
0.7555946273235142,0.7555946273235142
0.8038481641668149,0.8038481641668149
0.8579506145668794,0.8579506145668794
0.9140027028191984,0.9140027028191984
0.9607940112733081,0.9607940112733081
0.9749288857021537,0.9749288857021537
1.0119720048949907,1.0119720048949907
1.0699737309995643,1.0699737309995643
1.1143279921383558,1.1143279921383558
1.093369385226619,1.093369385226619
1.0631499985166732,1.0631499985166732
1.0563262660337822,1.0563262660337822
1.0631499985166732,1.0631499985166732
1.0217201941562635,1.0217201941562635
0.9607940112733081,0.9607940112733081
0.9169271595975802,0.9169271595975802
0.9096160176516256,0.9096160176516256
0.8769595836263614,0.8769595836263614
0.8067726209451968,0.8067726209451968
0.7146522324261682,0.7146522324261682
0.6532386400801491,0.6532386400801491
0.6059599221629757,0.6059599221629757
0.5508826528367841,0.5508826528367841
0.453888169687119,0.453888169687119
0.34617067835005383,0.34617067835005383
0.23650354916073407,0.23650354916073407
0.14097129440025996,0.14097129440025996
0.03374121252625843,0.03374121252625843
-0.06374068008647024,-0.06374068008647024
-0.15196179290098968,-0.15196179290098968
-0.2172746609515179,-0.2172746609515179
-0.2933105371894463,-0.2933105371894463
-0.37129605127962917,-0.37129605127962917
-0.4570801167788304,-0.4570801167788304
-0.5248300321446768,-0.5248300321446768
-0.5857562150276323,-0.5857562150276323
-0.627186019388042,-0.627186019388042
-0.6764143751574699,-0.6764143751574699
-0.729542006631407,-0.729542006631407
-0.7933926462927443,-0.7933926462927443
-0.8318979938747721,-0.8318979938747721
-0.8596803332693999,-0.8596803332693999
-0.8830759874964547,-0.8830759874964547
-0.9220687445415462,-0.9220687445415462
-0.9347413905812009,-0.9347413905812009
-0.918169468837037,-0.918169468837037
-0.8830759874964547,-0.8830759874964547
-0.8767396644766273,-0.8767396644766273
-0.8830759874964547,-0.8830759874964547
-0.8937989956838549,-0.8937989956838549
-0.8830759874964547,-0.8830759874964547
-0.8669914752153545,-0.8669914752153545
-0.8318979938747721,-0.8318979938747721
-0.800703788238699,-0.800703788238699
-0.7807200002530896,-0.7807200002530896
-0.7885185516621079,-0.7885185516621079
-0.7807200002530896,-0.7807200002530896
-0.7436768810602528,-0.7436768810602528
-0.6783640130097245,-0.6783640130097245
-0.6379090275754421,-0.6379090275754421
-0.627186019388042,-0.627186019388042
-0.6374216181123785,-0.6374216181123785
-0.627186019388042,-0.627186019388042
-0.605252593550178,-0.605252593550178
-0.5760080257663595,-0.5760080257663595
-0.5569990567068773,-0.5569990567068773
-0.5248300321446768,-0.5248300321446768
-0.4941232359716673,-0.4941232359716673
-0.4736520385229943,-0.4736520385229943
-0.479500952079758,-0.479500952079758
-0.4736520385229943,-0.4736520385229943
-0.4512312032220667,-0.4512312032220667
-0.42247404490131174,-0.42247404490131174
-0.4205244070490572,-0.4205244070490572
-0.42247404490131174,-0.42247404490131174
-0.42393627329050265,-0.42393627329050265
-0.42247404490131174,-0.42247404490131174
-0.4331970530887119,-0.4331970530887119
-0.42247404490131174,-0.42247404490131174
-0.3951791149697477,-0.3951791149697477
-0.37129605127962917,-0.37129605127962917
-0.3781197837625202,-0.3781197837625202
-0.37129605127962917,-0.37129605127962917
-0.3435137118850015,-0.3435137118850015
-0.32011805765794665,-0.32011805765794665
-0.3435137118850015,-0.3435137118850015
-0.37129605127962917,-0.37129605127962917
-0.3790946026886475,-0.3790946026886475
-0.37129605127962917,-0.37129605127962917
-0.38055683107783844,-0.38055683107783844
-0.37129605127962917,-0.37129605127962917
-0.3420514834958106,-0.3420514834958106
-0.32011805765794665,-0.32011805765794665
-0.34595075920031976,-0.34595075920031976
-0.37129605127962917,-0.37129605127962917
-0.37568273644720196,-0.37568273644720196
-0.37129605127962917,-0.37129605127962917
-0.38640574463460214,-0.38640574463460214
-0.37129605127962917,-0.37129605127962917
-0.33181588477147406,-0.33181588477147406
-0.32011805765794665,-0.32011805765794665
-0.3781197837625202,-0.3781197837625202
-0.42247404490131174,-0.42247404490131174
-0.4073643515463388,-0.4073643515463388
-0.37129605127962917,-0.37129605127962917
-0.3917672487283022,-0.3917672487283022
-0.42247404490131174,-0.42247404490131174
-0.4141880840292298,-0.4141880840292298
-0.37129605127962917,-0.37129605127962917
-0.3634974998706109,-0.3634974998706109
-0.37129605127962917,-0.37129605127962917
-0.3610604525552927,-0.3610604525552927
-0.32011805765794665,-0.32011805765794665
-0.30647059269216465,-0.30647059269216465
-0.32011805765794665,-0.32011805765794665
-0.33815220779130145,-0.33815220779130145
-0.32011805765794665,-0.32011805765794665
-0.29136089933719167,-0.29136089933719167
-0.26845265457320044,-0.26845265457320044
-0.27186452081464596,-0.27186452081464596
-0.26845265457320044,-0.26845265457320044
-0.25383037068129116,-0.25383037068129116
-0.2172746609515179,-0.2172746609515179
-0.18997973101995386,-0.18997973101995386
-0.16609666732983533,-0.16609666732983533
-0.16268480108838984,-0.16268480108838984
-0.16609666732983533,-0.16609666732983533
-0.1777944944433628,-0.1777944944433628
-0.16609666732983533,-0.16609666732983533
-0.15634847806856247,-0.15634847806856247
-0.16609666732983533,-0.16609666732983533
-0.20655165276411774,-0.20655165276411774
-0.2172746609515179,-0.2172746609515179
-0.1948538256505903,-0.1948538256505903
-0.16609666732983533,-0.16609666732983533
-0.17048335249740812,-0.17048335249740812
-0.16609666732983533,-0.16609666732983533
-0.1543988402163079,-0.1543988402163079
-0.16609666732983533,-0.16609666732983533
-0.2309221259172999,-0.2309221259172999
-0.26845265457320044,-0.26845265457320044
-0.23725844893712728,-0.23725844893712728
-0.16609666732983533,-0.16609666732983533
-0.14562546988116232,-0.14562546988116232
-0.16609666732983533,-0.16609666732983533
-0.19875310135509944,-0.19875310135509944
-0.2172746609515179,-0.2172746609515179
-0.2489562760506547,-0.2489562760506547
-0.26845265457320044,-0.26845265457320044
-0.27430156812996415,-0.27430156812996415
-0.26845265457320044,-0.26845265457320044
-0.29233571826331894,-0.29233571826331894
-0.32011805765794665,-0.32011805765794665
-0.33474034154985594,-0.33474034154985594
-0.32011805765794665,-0.32011805765794665
-0.3147565535642466,-0.3147565535642466
-0.32011805765794665,-0.32011805765794665
-0.33230329423453775,-0.33230329423453775
-0.32011805765794665,-0.32011805765794665
-0.31231950624892835,-0.31231950624892835
-0.32011805765794665,-0.32011805765794665
-0.34058925510661964,-0.34058925510661964
-0.32011805765794665,-0.32011805765794665
-0.2816127100759188,-0.2816127100759188
-0.26845265457320044,-0.26845265457320044
-0.30939504947054647,-0.30939504947054647
-0.32011805765794665,-0.32011805765794665
-0.2811253006128552,-0.2811253006128552
-0.2172746609515179,-0.2172746609515179
-0.21386279471007238,-0.21386279471007238
-0.2172746609515179,-0.2172746609515179
-0.2050894243749268,-0.2050894243749268
-0.16609666732983533,-0.16609666732983533
-0.16463443894064442,-0.16463443894064442
-0.16609666732983533,-0.16609666732983533
-0.14806251719648053,-0.14806251719648053
-0.11491867370815279,-0.11491867370815279
-0.11881794941266194,-0.11881794941266194
-0.11491867370815279,-0.11491867370815279
-0.05253026243600644,-0.05253026243600644
0.08979330077857742,0.08979330077857742
0.26184884124004354,0.26184884124004354
0.4485266655934189,0.4485266655934189
0.6459274981341945,0.6459274981341945
1.0119720048949907,1.0119720048949907
1.8581148327734756,1.8581148327734756
3.3681093493446426,3.3681093493446426
5.10279962838815,5.10279962838815
6.287692033095866,6.287692033095866
6.571364340598906,6.571364340598906
6.287692033095866,6.287692033095866
5.666732377152784,5.666732377152784
4.495000027947786,4.495000027947786
2.7164428972285513,2.7164428972285513
1.0119720048949907,1.0119720048949907
0.09661703326146842,0.09661703326146842
-0.06374068008647024,-0.06374068008647024
-0.05837917599277016,-0.05837917599277016
-0.16609666732983533,-0.16609666732983533
-0.28356234792817336,-0.28356234792817336
-0.32011805765794665,-0.32011805765794665
-0.38006942161477475,-0.38006942161477475
-0.4736520385229943,-0.4736520385229943
-0.5311663551645042,-0.5311663551645042
-0.5248300321446768,-0.5248300321446768
-0.5394523160365862,-0.5394523160365862
-0.5760080257663595,-0.5760080257663595
-0.6018407273087325,-0.6018407273087325
-0.5760080257663595,-0.5760080257663595
-0.5487130958347953,-0.5487130958347953
-0.5248300321446768,-0.5248300321446768
-0.5462760485194772,-0.5462760485194772
-0.5760080257663595,-0.5760080257663595
-0.6033029556979235,-0.6033029556979235
-0.5760080257663595,-0.5760080257663595
-0.5379900876473952,-0.5379900876473952
-0.5248300321446768,-0.5248300321446768
-0.5574864661699409,-0.5574864661699409
-0.5760080257663595,-0.5760080257663595
-0.5608983324113864,-0.5608983324113864
-0.5248300321446768,-0.5248300321446768
-0.5189811185879132,-0.5189811185879132
-0.5248300321446768,-0.5248300321446768
-0.5306789457014406,-0.5306789457014406
-0.5248300321446768,-0.5248300321446768
-0.5306789457014406,-0.5306789457014406
-0.5248300321446768,-0.5248300321446768
-0.5058210630851948,-0.5058210630851948
-0.4736520385229943,-0.4736520385229943
-0.4668283060401033,-0.4668283060401033
-0.4736520385229943,-0.4736520385229943
-0.4838876372473308,-0.4838876372473308
-0.4736520385229943,-0.4736520385229943
-0.4717024006707397,-0.4717024006707397
-0.4736520385229943,-0.4736520385229943
-0.4692653533554215,-0.4692653533554215
-0.42247404490131174,-0.42247404490131174
-0.37617014591026565,-0.37617014591026565
-0.37129605127962917,-0.37129605127962917
-0.41467549349229343,-0.41467549349229343
-0.42247404490131174,-0.42247404490131174
-0.3766575553733293,-0.3766575553733293
-0.32011805765794665,-0.32011805765794665
-0.3176810103426284,-0.3176810103426284
-0.32011805765794665,-0.32011805765794665
-0.28551198578042797,-0.28551198578042797
-0.2172746609515179,-0.2172746609515179
-0.18218117961093558,-0.18218117961093558
-0.16609666732983533,-0.16609666732983533
-0.1509869739748624,-0.1509869739748624
-0.11491867370815279,-0.11491867370815279
-0.09103561001803427,-0.09103561001803427
-0.06374068008647024,-0.06374068008647024
-0.04034502585941536,-0.04034502585941536
-0.012562686464787687,-0.012562686464787687
0.0001099595748670402,0.0001099595748670402
0.03861530715689487,0.03861530715689487
0.10490299413355036,0.10490299413355036
0.19214928802194253,0.19214928802194253
0.2501510141265161,0.2501510141265161
0.2945052752653076,0.2945052752653076
0.33496026069959,0.33496026069959
0.39734867197173634,0.39734867197173634
0.4499888939826098,0.4499888939826098
0.4997046592151015,0.4997046592151015
0.5391848257232565,0.5391848257232565
0.6020606464584666,0.6020606464584666
0.6741972469918858,0.6741972469918858
0.7555946273235142,0.7555946273235142
0.8116467155758332,0.8116467155758332
0.8579506145668794,0.8579506145668794
0.8984056000011618,0.8984056000011618
0.9607940112733081,0.9607940112733081
1.0173335089886908,1.0173335089886908
1.0631499985166732,1.0631499985166732
1.0821589675761554,1.0821589675761554
1.1143279921383558,1.1143279921383558
1.1596570722032746,1.1596570722032746
1.2166839793817208,1.2166839793817208
1.2347181295150758,1.2347181295150758
1.2166839793817208,1.2166839793817208
1.1776912223366294,1.1776912223366294
1.1655059857600383,1.1655059857600383
1.1513711113311926,1.1513711113311926
1.1143279921383558,1.1143279921383558
1.047065486235573,1.047065486235573
1.0119720048949907,1.0119720048949907
0.997837130466145,0.997837130466145
0.9607940112733081,0.9607940112733081
0.8569757956407521,0.8569757956407521
0.7555946273235142,0.7555946273235142
0.6936936255144315,0.6936936255144315
0.6532386400801491,0.6532386400801491
0.5625804799503115,0.5625804799503115
0.4485266655934189,0.4485266655934189
0.3505573635176266,0.3505573635176266
0.2945052752653076,0.2945052752653076
0.22724276936252485,0.22724276936252485
0.14097129440025996,0.14097129440025996
0.03325380306319479,0.03325380306319479
-0.06374068008647024,-0.06374068008647024
-0.15586106860549884,-0.15586106860549884
-0.2172746609515179,-0.2172746609515179
-0.2694274734993277,-0.2694274734993277
-0.32011805765794665,-0.32011805765794665
-0.39859098121119324,-0.39859098121119324
-0.4736520385229943,-0.4736520385229943
-0.5384774971104589,-0.5384774971104589
-0.5760080257663595,-0.5760080257663595
-0.6101266881808144,-0.6101266881808144
-0.627186019388042,-0.627186019388042
-0.6505816736150969,-0.6505816736150969
-0.6783640130097245,-0.6783640130097245
-0.7183315889809433,-0.7183315889809433
-0.729542006631407,-0.729542006631407
-0.7271049593160889,-0.7271049593160889
-0.729542006631407,-0.729542006631407
-0.7646354879719893,-0.7646354879719893
-0.7807200002530896,-0.7807200002530896
-0.765122897435053,-0.765122897435053
-0.729542006631407,-0.729542006631407
-0.7261301403899616,-0.7261301403899616
-0.729542006631407,-0.729542006631407
-0.7193064079070706,-0.7193064079070706
-0.6783640130097245,-0.6783640130097245
-0.6486320357628422,-0.6486320357628422
-0.627186019388042,-0.627186019388042
-0.6111015071069418,-0.6111015071069418
-0.5760080257663595,-0.5760080257663595
-0.5467634579825408,-0.5467634579825408
-0.5248300321446768,-0.5248300321446768
-0.5106951577158312,-0.5106951577158312
-0.4736520385229943,-0.4736520385229943
-0.43807114771934835,-0.43807114771934835
-0.42247404490131174,-0.42247404490131174
-0.4356341004040301,-0.4356341004040301
-0.42247404490131174,-0.42247404490131174
-0.3747079175210747,-0.3747079175210747
-0.32011805765794665,-0.32011805765794665
-0.3103698683966738,-0.3103698683966738
-0.32011805765794665,-0.32011805765794665
-0.32694179014083763,-0.32694179014083763
-0.32011805765794665,-0.32011805765794665
-0.32596697121471035,-0.32596697121471035
-0.32011805765794665,-0.32011805765794665
-0.29867204128314634,-0.29867204128314634
-0.26845265457320044,-0.26845265457320044
-0.2660156072578822,-0.2660156072578822
-0.26845265457320044,-0.26845265457320044
-0.27186452081464596,-0.27186452081464596
-0.26845265457320044,-0.26845265457320044
-0.2767386154452824,-0.2767386154452824
-0.26845265457320044,-0.26845265457320044
-0.2601666937011185,-0.2601666937011185
-0.26845265457320044,-0.26845265457320044
-0.3084202305444192,-0.3084202305444192
-0.32011805765794665,-0.32011805765794665
-0.2952601750417008,-0.2952601750417008
-0.26845265457320044,-0.26845265457320044
-0.29136089933719167,-0.29136089933719167
-0.32011805765794665,-0.32011805765794665
-0.32889142799309223,-0.32889142799309223
-0.32011805765794665,-0.32011805765794665
-0.3284040185300286,-0.3284040185300286
-0.32011805765794665,-0.32011805765794665
-0.2918483088002553,-0.2918483088002553
-0.26845265457320044,-0.26845265457320044
-0.2947727655786372,-0.2947727655786372
-0.32011805765794665,-0.32011805765794665
-0.3103698683966738,-0.3103698683966738
-0.26845265457320044,-0.26845265457320044
-0.2577296463858003,-0.2577296463858003
-0.26845265457320044,-0.26845265457320044
-0.2811253006128552,-0.2811253006128552
-0.26845265457320044,-0.26845265457320044
-0.26504078833175493,-0.26504078833175493
-0.26845265457320044,-0.26845265457320044
-0.2791756627606006,-0.2791756627606006
-0.26845265457320044,-0.26845265457320044
-0.263578559942564,-0.263578559942564
-0.26845265457320044,-0.26845265457320044
-0.28551198578042797,-0.28551198578042797
-0.26845265457320044,-0.26845265457320044
-0.23725844893712728,-0.23725844893712728
-0.2172746609515179,-0.2172746609515179
-0.22945989752810897,-0.22945989752810897
-0.2172746609515179,-0.2172746609515179
-0.18510563638931743,-0.18510563638931743
-0.16609666732983533,-0.16609666732983533
-0.18510563638931743,-0.18510563638931743
-0.16609666732983533,-0.16609666732983533
-0.10370825605768899,-0.10370825605768899
-0.06374068008647024,-0.06374068008647024
-0.11296903585589822,-0.11296903585589822
-0.16609666732983533,-0.16609666732983533
-0.1587855253838807,-0.1587855253838807
-0.11491867370815279,-0.11491867370815279
-0.12612909135861658,-0.12612909135861658
-0.16609666732983533,-0.16609666732983533
-0.18608045531544473,-0.18608045531544473
-0.16609666732983533,-0.16609666732983533
-0.14952474558567147,-0.14952474558567147
-0.11491867370815279,-0.11491867370815279
-0.06081622330808838,-0.06081622330808838
-0.012562686464787687,-0.012562686464787687
-0.039857616396351714,-0.039857616396351714
-0.11491867370815279,-0.11491867370815279
-0.17730708498029915,-0.17730708498029915
-0.16609666732983533,-0.16609666732983533
-0.11638090209734372,-0.11638090209734372
-0.06374068008647024,-0.06374068008647024
-0.052042852972942796,-0.052042852972942796
-0.06374068008647024,-0.06374068008647024
-0.09347265733335249,-0.09347265733335249
-0.11491867370815279,-0.11491867370815279
-0.14270101310278047,-0.14270101310278047
-0.16609666732983533,-0.16609666732983533
-0.19680346350284486,-0.19680346350284486
-0.2172746609515179,-0.2172746609515179
-0.24603181927227286,-0.24603181927227286
-0.26845265457320044,-0.26845265457320044
-0.28551198578042797,-0.28551198578042797
-0.26845265457320044,-0.26845265457320044
-0.24018290571550913,-0.24018290571550913
-0.2172746609515179,-0.2172746609515179
-0.23628363001099997,-0.23628363001099997
-0.26845265457320044,-0.26845265457320044
-0.29087348987412803,-0.29087348987412803
-0.26845265457320044,-0.26845265457320044
-0.23823326786325455,-0.23823326786325455
-0.2172746609515179,-0.2172746609515179
-0.22507321236053618,-0.22507321236053618
-0.2172746609515179,-0.2172746609515179
-0.19631605403978122,-0.19631605403978122
-0.16609666732983533,-0.16609666732983533
-0.1690211241082172,-0.1690211241082172
-0.16609666732983533,-0.16609666732983533
-0.17145817142353542,-0.17145817142353542
-0.16609666732983533,-0.16609666732983533
-0.1792567228325537,-0.1792567228325537
-0.16609666732983533,-0.16609666732983533
-0.15829811592081705,-0.15829811592081705
-0.16609666732983533,-0.16609666732983533
-0.17633226605417185,-0.17633226605417185
-0.11491867370815279,-0.11491867370815279
-0.030596836598142493,-0.030596836598142493
-0.012562686464787687,-0.012562686464787687
-0.04911839619456094,-0.04911839619456094
0.03861530715689487,0.03861530715689487
0.27988299137339834,0.27988299137339834
0.4997046592151015,0.4997046592151015
0.5684293935070752,0.5684293935070752
0.7555946273235142,0.7555946273235142
1.478910270509961,1.478910270509961
2.8558420036647534,2.8558420036647534
4.4755036494252405,4.4755036494252405
5.775424687415977,5.775424687415977
6.3944347055068045,6.3944347055068045
6.287692033095866,6.287692033095866
5.483466419040854,5.483466419040854
4.085088669511262,4.085088669511262
2.3669703122119192,2.3669703122119192
0.8579506145668794,0.8579506145668794
-0.015487143243169547,-0.015487143243169547
-0.2172746609515179,-0.2172746609515179
-0.11784313048653465,-0.11784313048653465
-0.06374068008647024,-0.06374068008647024
-0.15634847806856247,-0.15634847806856247
-0.26845265457320044,-0.26845265457320044
-0.33474034154985594,-0.33474034154985594
-0.37129605127962917,-0.37129605127962917
-0.4307600057733937,-0.4307600057733937
-0.4736520385229943,-0.4736520385229943
-0.48340022778426717,-0.48340022778426717
-0.4736520385229943,-0.4736520385229943
-0.5009469684545583,-0.5009469684545583
-0.5248300321446768,-0.5248300321446768
-0.5209307564401677,-0.5209307564401677
-0.4736520385229943,-0.4736520385229943
-0.4629290303355941,-0.4629290303355941
-0.4736520385229943,-0.4736520385229943
-0.49363582650860366,-0.49363582650860366
-0.4736520385229943,-0.4736520385229943
-0.44684451805449393,-0.44684451805449393
-0.42247404490131174,-0.42247404490131174
-0.42101181651212083,-0.42101181651212083
-0.42247404490131174,-0.42247404490131174
-0.42929777738420277,-0.42929777738420277
-0.42247404490131174,-0.42247404490131174
-0.4219866354382481,-0.4219866354382481
-0.42247404490131174,-0.42247404490131174
-0.4307600057733937,-0.4307600057733937
-0.42247404490131174,-0.42247404490131174
-0.4185747691968026,-0.4185747691968026
-0.42247404490131174,-0.42247404490131174
-0.4390459666454756,-0.4390459666454756
-0.42247404490131174,-0.42247404490131174
-0.3751953269841383,-0.3751953269841383
-0.32011805765794665,-0.32011805765794665
-0.30793282108135556,-0.30793282108135556
-0.32011805765794665,-0.32011805765794665
-0.3327907036976014,-0.3327907036976014
-0.32011805765794665,-0.32011805765794665
-0.3147565535642466,-0.3147565535642466
-0.32011805765794665,-0.32011805765794665
-0.3342529320867923,-0.3342529320867923
-0.32011805765794665,-0.32011805765794665
-0.2937979466525099,-0.2937979466525099
-0.26845265457320044,-0.26845265457320044
-0.2713771113515823,-0.2713771113515823
-0.26845265457320044,-0.26845265457320044
-0.2533429612182275,-0.2533429612182275
-0.2172746609515179,-0.2172746609515179
-0.19290418779833574,-0.19290418779833574
-0.16609666732983533,-0.16609666732983533
-0.14513806041809868,-0.14513806041809868
-0.11491867370815279,-0.11491867370815279
-0.09396006679641612,-0.09396006679641612
-0.06374068008647024,-0.06374068008647024
-0.03937020693328807,-0.03937020693328807
-0.012562686464787687,-0.012562686464787687
0.0025470068901852568,0.0025470068901852568
0.03861530715689487,0.03861530715689487
0.08638143453713192,0.08638143453713192
0.14097129440025996,0.14097129440025996
0.1672914054056967,0.1672914054056967
0.19214928802194253,0.19214928802194253
0.22724276936252485,0.22724276936252485
0.2945052752653076,0.2945052752653076
0.35250700136988117,0.35250700136988117
0.39734867197173634,0.39734867197173634
0.4304925154600641,0.4304925154600641
0.4997046592151015,0.4997046592151015
0.5811020395467299,0.5811020395467299
0.6532386400801491,0.6532386400801491
0.6932062160513679,0.6932062160513679
0.7555946273235142,0.7555946273235142
0.836504598192079,0.836504598192079
0.9096160176516256,0.9096160176516256
0.9334990813417441,0.9334990813417441
0.9607940112733081,0.9607940112733081
1.0075853197274178,1.0075853197274178
1.0631499985166732,1.0631499985166732
1.08410860542841,1.08410860542841
1.1143279921383558,1.1143279921383558
1.1645311668339111,1.1645311668339111
1.2166839793817208,1.2166839793817208
1.22058325508623,1.22058325508623
1.2166839793817208,1.2166839793817208
1.2196084361601027,1.2196084361601027
1.2166839793817208,1.2166839793817208
1.1659933952231019,1.1659933952231019
1.1143279921383558,1.1143279921383558
1.0821589675761554,1.0821589675761554
1.0631499985166732,1.0631499985166732
1.011484595431927,1.011484595431927
0.9607940112733081,0.9607940112733081
0.914490112282262,0.914490112282262
0.8579506145668794,0.8579506145668794
0.754619808397387,0.754619808397387
0.6532386400801491,0.6532386400801491
0.571353850285457,0.571353850285457
0.4997046592151015,0.4997046592151015
0.3944242151933545,0.3944242151933545
0.2945052752653076,0.2945052752653076
0.21310789493367918,0.21310789493367918
0.14097129440025996,0.14097129440025996
0.03471603145238572,0.03471603145238572
-0.06374068008647024,-0.06374068008647024
-0.13149059545231667,-0.13149059545231667
-0.16609666732983533,-0.16609666732983533
-0.23140953538036355,-0.23140953538036355
-0.32011805765794665,-0.32011805765794665
-0.41370067456616616,-0.41370067456616616
-0.4736520385229943,-0.4736520385229943
-0.5277544889230588,-0.5277544889230588
-0.5760080257663595,-0.5760080257663595
-0.6213371058312782,-0.6213371058312782
-0.627186019388042,-0.627186019388042
-0.6218245152943419,-0.6218245152943419
-0.627186019388042,-0.627186019388042
-0.6642291385808788,-0.6642291385808788
-0.6783640130097245,-0.6783640130097245
-0.661304681802497,-0.661304681802497
-0.627186019388042,-0.627186019388042
-0.6242615626096601,-0.6242615626096601
-0.627186019388042,-0.627186019388042
-0.6296230667033602,-0.6296230667033602
-0.627186019388042,-0.627186019388042
-0.6403460748907603,-0.6403460748907603
-0.627186019388042,-0.627186019388042
-0.5833191677123141,-0.5833191677123141
-0.5248300321446768,-0.5248300321446768
-0.4975351022131128,-0.4975351022131128
-0.4736520385229943,-0.4736520385229943
-0.44684451805449393,-0.44684451805449393
-0.42247404490131174,-0.42247404490131174
-0.42881036792113914,-0.42881036792113914
-0.42247404490131174,-0.42247404490131174
-0.38299387839315663,-0.38299387839315663
-0.32011805765794665,-0.32011805765794665
-0.28502457631736433,-0.28502457631736433
-0.26845265457320044,-0.26845265457320044
-0.26747783564707317,-0.26747783564707317
-0.26845265457320044,-0.26845265457320044
-0.2811253006128552,-0.2811253006128552
-0.26845265457320044,-0.26845265457320044
-0.24067031517857276,-0.24067031517857276
-0.2172746609515179,-0.2172746609515179
-0.22507321236053618,-0.22507321236053618
-0.2172746609515179,-0.2172746609515179
-0.18997973101995386,-0.18997973101995386
-0.16609666732983533,-0.16609666732983533
-0.18949232155689022,-0.18949232155689022
-0.2172746609515179,-0.2172746609515179
-0.22604803128666348,-0.22604803128666348
-0.2172746609515179,-0.2172746609515179
-0.23920808678938185,-0.23920808678938185
-0.26845265457320044,-0.26845265457320044
-0.28356234792817336,-0.28356234792817336
-0.26845265457320044,-0.26845265457320044
-0.2645533788686913,-0.2645533788686913
-0.26845265457320044,-0.26845265457320044
-0.2782008438344733,-0.2782008438344733
-0.26845265457320044,-0.26845265457320044
-0.2660156072578822,-0.2660156072578822
-0.26845265457320044,-0.26845265457320044
-0.27966307222366427,-0.27966307222366427
-0.26845265457320044,-0.26845265457320044
-0.2601666937011185,-0.2601666937011185
-0.26845265457320044,-0.26845265457320044
-0.30647059269216465,-0.30647059269216465
-0.32011805765794665,-0.32011805765794665
-0.30208390752459185,-0.30208390752459185
-0.26845265457320044,-0.26845265457320044
-0.26552819779481857,-0.26552819779481857
-0.26845265457320044,-0.26845265457320044
-0.27186452081464596,-0.27186452081464596
-0.26845265457320044,-0.26845265457320044
-0.27966307222366427,-0.27966307222366427
-0.26845265457320044,-0.26845265457320044
-0.24067031517857276,-0.24067031517857276
-0.2172746609515179,-0.2172746609515179
-0.24067031517857276,-0.24067031517857276
-0.26845265457320044,-0.26845265457320044
-0.27966307222366427,-0.27966307222366427
-0.26845265457320044,-0.26845265457320044
-0.2713771113515823,-0.2713771113515823
-0.26845265457320044,-0.26845265457320044
-0.26747783564707317,-0.26747783564707317
-0.26845265457320044,-0.26845265457320044
-0.28551198578042797,-0.28551198578042797
-0.26845265457320044,-0.26845265457320044
-0.2187368893407088,-0.2187368893407088
-0.16609666732983533,-0.16609666732983533
-0.16365962001451712,-0.16365962001451712
-0.16609666732983533,-0.16609666732983533
-0.13441505223069852,-0.13441505223069852
-0.06374068008647024,-0.06374068008647024
-0.03400870283958799,-0.03400870283958799
-0.06374068008647024,-0.06374068008647024
-0.11735572102347101,-0.11735572102347101
-0.11491867370815279,-0.11491867370815279
-0.07885037344144319,-0.07885037344144319
-0.06374068008647024,-0.06374068008647024
-0.11345644531896186,-0.11345644531896186
-0.16609666732983533,-0.16609666732983533
-0.18510563638931743,-0.18510563638931743
-0.16609666732983533,-0.16609666732983533
-0.14952474558567147,-0.14952474558567147
-0.11491867370815279,-0.11491867370815279
-0.07690073558918861,-0.07690073558918861
-0.06374068008647024,-0.06374068008647024
-0.11345644531896186,-0.11345644531896186
-0.16609666732983533,-0.16609666732983533
-0.18510563638931743,-0.18510563638931743
-0.16609666732983533,-0.16609666732983533
-0.1500121550487351,-0.1500121550487351
-0.11491867370815279,-0.11491867370815279
-0.07592591666306132,-0.07592591666306132
-0.06374068008647024,-0.06374068008647024
-0.11540608317121644,-0.11540608317121644
-0.16609666732983533,-0.16609666732983533
-0.1792567228325537,-0.1792567228325537
-0.16609666732983533,-0.16609666732983533
-0.20167755813348132,-0.20167755813348132
-0.26845265457320044,-0.26845265457320044
-0.3240173333624558,-0.3240173333624558
-0.32011805765794665,-0.32011805765794665
-0.2937979466525099,-0.2937979466525099
-0.26845265457320044,-0.26845265457320044
-0.26845265457320044,-0.26845265457320044
-0.26845265457320044,-0.26845265457320044
-0.27332674920383687,-0.27332674920383687
-0.26845265457320044,-0.26845265457320044
-0.27186452081464596,-0.27186452081464596
-0.26845265457320044,-0.26845265457320044
-0.2713771113515823,-0.2713771113515823
-0.26845265457320044,-0.26845265457320044
-0.27625120598221875,-0.27625120598221875
-0.26845265457320044,-0.26845265457320044
-0.25285555175516383,-0.25285555175516383
-0.2172746609515179,-0.2172746609515179
-0.19436641618752665,-0.19436641618752665
-0.16609666732983533,-0.16609666732983533
-0.16365962001451712,-0.16365962001451712
-0.16609666732983533,-0.16609666732983533
-0.18413081746319016,-0.18413081746319016
-0.16609666732983533,-0.16609666732983533
-0.15391143075324426,-0.15391143075324426
-0.16609666732983533,-0.16609666732983533
-0.19534123511365395,-0.19534123511365395
-0.16609666732983533,-0.16609666732983533
-0.11540608317121644,-0.11540608317121644
-0.11491867370815279,-0.11491867370815279
-0.15293661182711699,-0.15293661182711699
-0.06374068008647024,-0.06374068008647024
0.17460254735165137,0.17460254735165137
0.39734867197173634,0.39734867197173634
0.4685104535790283,0.4685104535790283
0.6020606464584666,0.6020606464584666
1.1464970167005561,1.1464970167005561
2.241218670741499,2.241218670741499
3.6327726877882007,3.6327726877882007
4.955601970542929,4.955601970542929
5.904100785664779,5.904100785664779
6.287692033095866,6.287692033095866
5.915311203315243,5.915311203315243
4.750889996056199,4.750889996056199
3.0454442847965106,3.0454442847965106
1.3702179602467686,1.3702179602467686
0.23162945453009764,0.23162945453009764
-0.2172746609515179,-0.2172746609515179
-0.2396954962524455,-0.2396954962524455
-0.16609666732983533,-0.16609666732983533
-0.18510563638931743,-0.18510563638931743
-0.26845265457320044,-0.26845265457320044
-0.3625226809444836,-0.3625226809444836
-0.42247404490131174,-0.42247404490131174
-0.4629290303355941,-0.4629290303355941
-0.4736520385229943,-0.4736520385229943
-0.47706390476443983,-0.47706390476443983
-0.4736520385229943,-0.4736520385229943
-0.4824254088581399,-0.4824254088581399
-0.4736520385229943,-0.4736520385229943
-0.4692653533554215,-0.4692653533554215
-0.4736520385229943,-0.4736520385229943
-0.5145944334203404,-0.5145944334203404
-0.5248300321446768,-0.5248300321446768
-0.5082581104005129,-0.5082581104005129
-0.4736520385229943,-0.4736520385229943
-0.4751142669121852,-0.4751142669121852
-0.4736520385229943,-0.4736520385229943
-0.45415566000044855,-0.45415566000044855
-0.42247404490131174,-0.42247404490131174
-0.41954958812292986,-0.41954958812292986
-0.42247404490131174,-0.42247404490131174
-0.42393627329050265,-0.42393627329050265
-0.42247404490131174,-0.42247404490131174
-0.44830674644368484,-0.44830674644368484
-0.4736520385229943,-0.4736520385229943
-0.48437504671039444,-0.48437504671039444
-0.4736520385229943,-0.4736520385229943
-0.4751142669121852,-0.4751142669121852
-0.4736520385229943,-0.4736520385229943
-0.4600045735572123,-0.4600045735572123
-0.42247404490131174,-0.42247404490131174
-0.40785176100940246,-0.40785176100940246
-0.42247404490131174,-0.42247404490131174
-0.44684451805449393,-0.44684451805449393
-0.42247404490131174,-0.42247404490131174
-0.38055683107783844,-0.38055683107783844
-0.37129605127962917,-0.37129605127962917
-0.4132132651031025,-0.4132132651031025
-0.42247404490131174,-0.42247404490131174
-0.3766575553733293,-0.3766575553733293
-0.32011805765794665,-0.32011805765794665
-0.3176810103426284,-0.3176810103426284
-0.32011805765794665,-0.32011805765794665
-0.2981846318200827,-0.2981846318200827
-0.26845265457320044,-0.26845265457320044
-0.2782008438344733,-0.2782008438344733
-0.26845265457320044,-0.26845265457320044
-0.22019911772989975,-0.22019911772989975
-0.16609666732983533,-0.16609666732983533
-0.1680463051820899,-0.1680463051820899
-0.16609666732983533,-0.16609666732983533
-0.12564168189555294,-0.12564168189555294
-0.06374068008647024,-0.06374068008647024
-0.040832435322479,-0.040832435322479
-0.012562686464787687,-0.012562686464787687
0.03764048823076758,0.03764048823076758
0.08979330077857742,0.08979330077857742
0.1019785373551685,0.1019785373551685
0.14097129440025996,0.14097129440025996
0.21944421795350655,0.21944421795350655
0.2945052752653076,0.2945052752653076
0.3120520159355988,0.3120520159355988
0.34617067835005383,0.34617067835005383
0.4226939640510458,0.4226939640510458
0.4997046592151015,0.4997046592151015
0.5157891714962017,0.5157891714962017
0.5508826528367841,0.5508826528367841
0.6454400886711308,0.6454400886711308
0.7555946273235142,0.7555946273235142
0.7911755181271602,0.7911755181271602
0.8067726209451968,0.8067726209451968
0.8647743470497703,0.8647743470497703
0.9607940112733081,0.9607940112733081
1.004660862949036,1.004660862949036
1.0119720048949907,1.0119720048949907
1.034880249658982,1.034880249658982
1.1143279921383558,1.1143279921383558
1.185002364282584,1.185002364282584
1.2166839793817208,1.2166839793817208
1.2088854279727026,1.2088854279727026
1.2166839793817208,1.2166839793817208
1.2264321686429938,1.2264321686429938
1.2166839793817208,1.2166839793817208
1.1625815289816563,1.1625815289816563
1.1143279921383558,1.1143279921383558
1.0836211959653461,1.0836211959653461
1.0631499985166732,1.0631499985166732
1.0124594143580543,1.0124594143580543
0.9607940112733081,0.9607940112733081
0.9101034271146892,0.9101034271146892
0.8579506145668794,0.8579506145668794
0.7770406436983145,0.7770406436983145
0.7044166337018317,0.7044166337018317
0.6356918994098579,0.6356918994098579
0.5508826528367841,0.5508826528367841
0.41733245995734575,0.41733245995734575
0.2945052752653076,0.2945052752653076
0.20677157191385181,0.20677157191385181
0.14097129440025996,0.14097129440025996
0.040564945009149436,0.040564945009149436
-0.06374068008647024,-0.06374068008647024
-0.15244920236405332,-0.15244920236405332
-0.2172746609515179,-0.2172746609515179
-0.29915945074621,-0.29915945074621
-0.37129605127962917,-0.37129605127962917
-0.43027259631033005,-0.43027259631033005
-0.4736520385229943,-0.4736520385229943
-0.5326285835536951,-0.5326285835536951
-0.5760080257663595,-0.5760080257663595
-0.606714821939369,-0.606714821939369
-0.627186019388042,-0.627186019388042
-0.6642291385808788,-0.6642291385808788
-0.6783640130097245,-0.6783640130097245
-0.6773891940835972,-0.6773891940835972
-0.6783640130097245,-0.6783640130097245
-0.7139449038133705,-0.7139449038133705
-0.729542006631407,-0.729542006631407
-0.7119952659611158,-0.7119952659611158
-0.6783640130097245,-0.6783640130097245
-0.6788514224727882,-0.6788514224727882
-0.6783640130097245,-0.6783640130097245
-0.659842453413306,-0.659842453413306
-0.627186019388042,-0.627186019388042
-0.6252363815357874,-0.6252363815357874
-0.627186019388042,-0.627186019388042
-0.6140259638853236,-0.6140259638853236
-0.5760080257663595,-0.5760080257663595
-0.5496879147609227,-0.5496879147609227
-0.5248300321446768,-0.5248300321446768
-0.5028966063068129,-0.5028966063068129
-0.4736520385229943,-0.4736520385229943
-0.4551304789265759,-0.4551304789265759
-0.42247404490131174,-0.42247404490131174
-0.37568273644720196,-0.37568273644720196
-0.32011805765794665,-0.32011805765794665
-0.30354613591378277,-0.30354613591378277
-0.32011805765794665,-0.32011805765794665
-0.34253889295887424,-0.34253889295887424
-0.32011805765794665,-0.32011805765794665
-0.28210011953898245,-0.28210011953898245
-0.26845265457320044,-0.26845265457320044
-0.30208390752459185,-0.30208390752459185
-0.32011805765794665,-0.32011805765794665
-0.3025713169876555,-0.3025713169876555
-0.26845265457320044,-0.26845265457320044
-0.2660156072578822,-0.2660156072578822
-0.26845265457320044,-0.26845265457320044
-0.26747783564707317,-0.26747783564707317
-0.26845265457320044,-0.26845265457320044
-0.3015964980615282,-0.3015964980615282
-0.32011805765794665,-0.32011805765794665
-0.3050083643029737,-0.3050083643029737
-0.26845265457320044,-0.26845265457320044
-0.263578559942564,-0.263578559942564
-0.26845265457320044,-0.26845265457320044
-0.27332674920383687,-0.27332674920383687
-0.26845265457320044,-0.26845265457320044
-0.2767386154452824,-0.2767386154452824
-0.26845265457320044,-0.26845265457320044
-0.2591918747749912,-0.2591918747749912
-0.26845265457320044,-0.26845265457320044
-0.31085727785973744,-0.31085727785973744
-0.32011805765794665,-0.32011805765794665
-0.29136089933719167,-0.29136089933719167
-0.26845265457320044,-0.26845265457320044
-0.29915945074621,-0.29915945074621
-0.32011805765794665,-0.32011805765794665
-0.30013426967233725,-0.30013426967233725
-0.26845265457320044,-0.26845265457320044
-0.2903860804110644,-0.2903860804110644
-0.32011805765794665,-0.32011805765794665
-0.312806915711992,-0.312806915711992
-0.26845265457320044,-0.26845265457320044
-0.25626741799660935,-0.25626741799660935
-0.26845265457320044,-0.26845265457320044
-0.28210011953898245,-0.28210011953898245
-0.26845265457320044,-0.26845265457320044
-0.26504078833175493,-0.26504078833175493
-0.26845265457320044,-0.26845265457320044
-0.2782008438344733,-0.2782008438344733
-0.26845265457320044,-0.26845265457320044
-0.26406596940562765,-0.26406596940562765
-0.26845265457320044,-0.26845265457320044
-0.29867204128314634,-0.29867204128314634
-0.32011805765794665,-0.32011805765794665
-0.3171936008795648,-0.3171936008795648
-0.26845265457320044,-0.26845265457320044
-0.21142574739475417,-0.21142574739475417
-0.16609666732983533,-0.16609666732983533
-0.16024775377307163,-0.16024775377307163
-0.16609666732983533,-0.16609666732983533
-0.1748700376649809,-0.1748700376649809
-0.16609666732983533,-0.16609666732983533
-0.16463443894064442,-0.16463443894064442
-0.16609666732983533,-0.16609666732983533
-0.1758448565911082,-0.1758448565911082
-0.16609666732983533,-0.16609666732983533
-0.15927293484694433,-0.15927293484694433
-0.16609666732983533,-0.16609666732983533
-0.20119014867041765,-0.20119014867041765
-0.2172746609515179,-0.2172746609515179
-0.2050894243749268,-0.2050894243749268
-0.16609666732983533,-0.16609666732983533
-0.13831432793520768,-0.13831432793520768
-0.11491867370815279,-0.11491867370815279
-0.12222981565410744,-0.12222981565410744
-0.16609666732983533,-0.16609666732983533
-0.24115772464163643,-0.24115772464163643
-0.26845265457320044,-0.26845265457320044
-0.23140953538036355,-0.23140953538036355
-0.16609666732983533,-0.16609666732983533
-0.14903733612260783,-0.14903733612260783
-0.16609666732983533,-0.16609666732983533
-0.19631605403978122,-0.19631605403978122
-0.2172746609515179,-0.2172746609515179
-0.25041850443984565,-0.25041850443984565
-0.26845265457320044,-0.26845265457320044
-0.27283933974077323,-0.27283933974077323
-0.26845265457320044,-0.26845265457320044
-0.2933105371894463,-0.2933105371894463
-0.32011805765794665,-0.32011805765794665
-0.333278113160665,-0.333278113160665
-0.32011805765794665,-0.32011805765794665
-0.3176810103426284,-0.3176810103426284
-0.32011805765794665,-0.32011805765794665
-0.32742919960390127,-0.32742919960390127
-0.32011805765794665,-0.32011805765794665
-0.319630648194883,-0.319630648194883
-0.32011805765794665,-0.32011805765794665
-0.32889142799309223,-0.32889142799309223
-0.32011805765794665,-0.32011805765794665
-0.3015964980615282,-0.3015964980615282
-0.26845265457320044,-0.26845265457320044
-0.25967928423805486,-0.25967928423805486
-0.26845265457320044,-0.26845265457320044
-0.2918483088002553,-0.2918483088002553
-0.26845265457320044,-0.26845265457320044
-0.23628363001099997,-0.23628363001099997
-0.2172746609515179,-0.2172746609515179
-0.25188073282903656,-0.25188073282903656
-0.26845265457320044,-0.26845265457320044
-0.2557800085335457,-0.2557800085335457
-0.2172746609515179,-0.2172746609515179
-0.1948538256505903,-0.1948538256505903
-0.16609666732983533,-0.16609666732983533
-0.1407513752505259,-0.1407513752505259
-0.11491867370815279,-0.11491867370815279
-0.07982519236757046,-0.07982519236757046
0.03861530715689487,0.03861530715689487
0.23942800593911592,0.23942800593911592
0.4485266655934189,0.4485266655934189
0.5937746855863847,0.5937746855863847
0.8579506145668794,0.8579506145668794
1.5988129984236172,1.5988129984236172
3.009375984529801,3.009375984529801
4.714334286326426,4.714334286326426
6.0313146555243895,6.0313146555243895
6.528472307849306,6.528472307849306
6.287692033095866,6.287692033095866
5.462020402666054,5.462020402666054
4.085088669511262,4.085088669511262
2.335776106575846,2.335776106575846
0.8067726209451968,0.8067726209451968
-0.00720118237108761,-0.00720118237108761
-0.16609666732983533,-0.16609666732983533
-0.13295282384150758,-0.13295282384150758
-0.16609666732983533,-0.16609666732983533
-0.25188073282903656,-0.25188073282903656
-0.32011805765794665,-0.32011805765794665
-0.40151543798957506,-0.40151543798957506
-0.4736520385229943,-0.4736520385229943
-0.5121573861050221,-0.5121573861050221
-0.5248300321446768,-0.5248300321446768
-0.5735709784510412,-0.5735709784510412
-0.627186019388042,-0.627186019388042
-0.6510690830781605,-0.6510690830781605
-0.627186019388042,-0.627186019388042
-0.6218245152943419,-0.6218245152943419
-0.627186019388042,-0.627186019388042
-0.6461949884475241,-0.6461949884475241
-0.627186019388042,-0.627186019388042
-0.6028155462348598,-0.6028155462348598
-0.5760080257663595,-0.5760080257663595
-0.577957663618614,-0.577957663618614
-0.5760080257663595,-0.5760080257663595
-0.5608983324113864,-0.5608983324113864
-0.5248300321446768,-0.5248300321446768
-0.5111825671788949,-0.5111825671788949
-0.5248300321446768,-0.5248300321446768
-0.5623605608005774,-0.5623605608005774
-0.5760080257663595,-0.5760080257663595
-0.5613857418744501,-0.5613857418744501
-0.5248300321446768,-0.5248300321446768
-0.5131322050311494,-0.5131322050311494
-0.5248300321446768,-0.5248300321446768
-0.5443264106672225,-0.5443264106672225
-0.5248300321446768,-0.5248300321446768
-0.4902239602671582,-0.4902239602671582
-0.4736520385229943,-0.4736520385229943
-0.5024091968437493,-0.5024091968437493
-0.5248300321446768,-0.5248300321446768
-0.5160566618095312,-0.5160566618095312
-0.4736520385229943,-0.4736520385229943
-0.44392006127611205,-0.44392006127611205
-0.42247404490131174,-0.42247404490131174
-0.4185747691968026,-0.4185747691968026
-0.42247404490131174,-0.42247404490131174
-0.438558557182412,-0.438558557182412
-0.42247404490131174,-0.42247404490131174
-0.3771449648363929,-0.3771449648363929
-0.32011805765794665,-0.32011805765794665
-0.2933105371894463,-0.2933105371894463
-0.26845265457320044,-0.26845265457320044
-0.24261995303082734,-0.24261995303082734
-0.2172746609515179,-0.2172746609515179
-0.2216613461190907,-0.2216613461190907
-0.2172746609515179,-0.2172746609515179
-0.19875310135509944,-0.19875310135509944
-0.16609666732983533,-0.16609666732983533
-0.14952474558567147,-0.14952474558567147
-0.11491867370815279,-0.11491867370815279
-0.06569031793872482,-0.06569031793872482
-0.012562686464787687,-0.012562686464787687
0.008395920446948977,0.008395920446948977
0.03861530715689487,0.03861530715689487
0.08540661561100463,0.08540661561100463
0.14097129440025996,0.14097129440025996
0.1648543580903785,0.1648543580903785
0.19214928802194253,0.19214928802194253
0.23406650184541586,0.23406650184541586
0.2945052752653076,0.2945052752653076
0.33885953640409916,0.33885953640409916
0.39734867197173634,0.39734867197173634
0.46899786304209196,0.46899786304209196
0.5508826528367841,0.5508826528367841
0.6015732369954029,0.6015732369954029
0.6532386400801491,0.6532386400801491
0.719038917593741,0.719038917593741
0.8067726209451968,0.8067726209451968
0.8676988038281522,0.8676988038281522
0.9096160176516256,0.9096160176516256
0.9451969084552715,0.9451969084552715
1.0119720048949907,1.0119720048949907
1.074360416167137,1.074360416167137
1.1143279921383558,1.1143279921383558
1.1118909448230376,1.1118909448230376
1.1143279921383558,1.1143279921383558
1.1323621422717105,1.1323621422717105
1.1655059857600383,1.1655059857600383
1.1591696627402108,1.1591696627402108
1.1143279921383558,1.1143279921383558
1.0485277146247638,1.0485277146247638
1.0119720048949907,1.0119720048949907
0.9876015317418084,0.9876015317418084
0.9607940112733081,0.9607940112733081
0.9066915608732437,0.9066915608732437
0.8579506145668794,0.8579506145668794
0.8101844871866423,0.8101844871866423
0.7555946273235142,0.7555946273235142
0.6586001441738492,0.6586001441738492
0.5508826528367841,0.5508826528367841
0.4563252170024372,0.4563252170024372
0.39734867197173634,0.39734867197173634
0.31595129164010793,0.31595129164010793
0.19214928802194253,0.19214928802194253
0.039590126083022155,0.039590126083022155
-0.06374068008647024,-0.06374068008647024
-0.11930535887572558,-0.11930535887572558
-0.16609666732983533,-0.16609666732983533
-0.2630911504795004,-0.2630911504795004
-0.37129605127962917,-0.37129605127962917
-0.4643912587247851,-0.4643912587247851
-0.5248300321446768,-0.5248300321446768
-0.5857562150276323,-0.5857562150276323
-0.627186019388042,-0.627186019388042
-0.655943177708797,-0.655943177708797
-0.6783640130097245,-0.6783640130097245
-0.731004235020598,-0.731004235020598
-0.7807200002530896,-0.7807200002530896
-0.8172757099828628,-0.8172757099828628
-0.8318979938747721,-0.8318979938747721
-0.8611425616585907,-0.8611425616585907
-0.8830759874964547,-0.8830759874964547
-0.8942864051469185,-0.8942864051469185
-0.8830759874964547,-0.8830759874964547
-0.8825885780333911,-0.8825885780333911
-0.8830759874964547,-0.8830759874964547
-0.8903871294424094,-0.8903871294424094
-0.8830759874964547,-0.8830759874964547
-0.8694285225306727,-0.8694285225306727
-0.8318979938747721,-0.8318979938747721
-0.7992415598495081,-0.7992415598495081
-0.7807200002530896,-0.7807200002530896
-0.7894933705882352,-0.7894933705882352
-0.7807200002530896,-0.7807200002530896
-0.7427020621341254,-0.7427020621341254
-0.6783640130097245,-0.6783640130097245
-0.6403460748907603,-0.6403460748907603
-0.627186019388042,-0.627186019388042
-0.61890005851596,-0.61890005851596
-0.5760080257663595,-0.5760080257663595
-0.5345782214059497,-0.5345782214059497
-0.5248300321446768,-0.5248300321446768
-0.5457886390564135,-0.5457886390564135
-0.5248300321446768,-0.5248300321446768
-0.46487866818784873,-0.46487866818784873
-0.42247404490131174,-0.42247404490131174
-0.44733192751755757,-0.44733192751755757
-0.4736520385229943,-0.4736520385229943
-0.45951716409414867,-0.45951716409414867
-0.42247404490131174,-0.42247404490131174
-0.41954958812292986,-0.41954958812292986
-0.42247404490131174,-0.42247404490131174
-0.41954958812292986,-0.41954958812292986
-0.42247404490131174,-0.42247404490131174
-0.4463571085914303,-0.4463571085914303
-0.42247404490131174,-0.42247404490131174
-0.355211538998529,-0.355211538998529
-0.32011805765794665,-0.32011805765794665
-0.37422050805801105,-0.37422050805801105
-0.42247404490131174,-0.42247404490131174
-0.4063895326202115,-0.4063895326202115
-0.37129605127962917,-0.37129605127962917
-0.396153933895875,-0.396153933895875
-0.42247404490131174,-0.42247404490131174
-0.40346507584182967,-0.40346507584182967
-0.37129605127962917,-0.37129605127962917
-0.39566652443281136,-0.39566652443281136
-0.42247404490131174,-0.42247404490131174
-0.40590212315714785,-0.40590212315714785
-0.37129605127962917,-0.37129605127962917
-0.39127983926523857,-0.39127983926523857
-0.42247404490131174,-0.42247404490131174
-0.41516290295535707,-0.41516290295535707
-0.37129605127962917,-0.37129605127962917
-0.36057304309222904,-0.36057304309222904
-0.37129605127962917,-0.37129605127962917
-0.38006942161477475,-0.38006942161477475
-0.37129605127962917,-0.37129605127962917
-0.37568273644720196,-0.37568273644720196
-0.37129605127962917,-0.37129605127962917
-0.3522870822201471,-0.3522870822201471
-0.32011805765794665,-0.32011805765794665
-0.3142691441011829,-0.3142691441011829
-0.32011805765794665,-0.32011805765794665
-0.3284040185300286,-0.3284040185300286
-0.32011805765794665,-0.32011805765794665
-0.319630648194883,-0.319630648194883
-0.32011805765794665,-0.32011805765794665
-0.326454380677774,-0.326454380677774
-0.32011805765794665,-0.32011805765794665
-0.319630648194883,-0.319630648194883
-0.32011805765794665,-0.32011805765794665
-0.32742919960390127,-0.32742919960390127
-0.32011805765794665,-0.32011805765794665
-0.31670619141650114,-0.31670619141650114
-0.32011805765794665,-0.32011805765794665
-0.3342529320867923,-0.3342529320867923
-0.32011805765794665,-0.32011805765794665
-0.29087348987412803,-0.29087348987412803
-0.26845265457320044,-0.26845265457320044
-0.2782008438344733,-0.2782008438344733
-0.26845265457320044,-0.26845265457320044
-0.22556062182359984,-0.22556062182359984
-0.16609666732983533,-0.16609666732983533
-0.15244920236405332,-0.15244920236405332
-0.16609666732983533,-0.16609666732983533
-0.180231541758681,-0.180231541758681
-0.16609666732983533,-0.16609666732983533
-0.15927293484694433,-0.15927293484694433
-0.16609666732983533,-0.16609666732983533
-0.19534123511365395,-0.19534123511365395
-0.2172746609515179,-0.2172746609515179
-0.23189694484342718,-0.23189694484342718
-0.2172746609515179,-0.2172746609515179
-0.193879006724463,-0.193879006724463
-0.16609666732983533,-0.16609666732983533
-0.159760344310008,-0.159760344310008
-0.16609666732983533,-0.16609666732983533
-0.20703906222718138,-0.20703906222718138
-0.26845265457320044,-0.26845265457320044
-0.32889142799309223,-0.32889142799309223
-0.32011805765794665,-0.32011805765794665
-0.249931094976782,-0.249931094976782
-0.16609666732983533,-0.16609666732983533
-0.14367583202890774,-0.14367583202890774
-0.16609666732983533,-0.16609666732983533
-0.2026523770596086,-0.2026523770596086
-0.2172746609515179,-0.2172746609515179
-0.2396954962524455,-0.2396954962524455
-0.26845265457320044,-0.26845265457320044
-0.305983183229101,-0.305983183229101
-0.32011805765794665,-0.32011805765794665
-0.32450474282551944,-0.32450474282551944
-0.32011805765794665,-0.32011805765794665
-0.3249921522885831,-0.3249921522885831
-0.32011805765794665,-0.32011805765794665
-0.319630648194883,-0.319630648194883
-0.32011805765794665,-0.32011805765794665
-0.3313284753084104,-0.3313284753084104
-0.32011805765794665,-0.32011805765794665
-0.29574758450476446,-0.29574758450476446
-0.26845265457320044,-0.26845265457320044
-0.2694274734993277,-0.2694274734993277
-0.26845265457320044,-0.26845265457320044
-0.2689400640362641,-0.2689400640362641
-0.26845265457320044,-0.26845265457320044
-0.2869742141696189,-0.2869742141696189
-0.26845265457320044,-0.26845265457320044
-0.24018290571550913,-0.24018290571550913
-0.2172746609515179,-0.2172746609515179
-0.23482140162180906,-0.23482140162180906
-0.2172746609515179,-0.2172746609515179
-0.1846182269262538,-0.1846182269262538
-0.16609666732983533,-0.16609666732983533
-0.18559304585238107,-0.18559304585238107
-0.16609666732983533,-0.16609666732983533
-0.10663271283607086,-0.10663271283607086
-0.06374068008647024,-0.06374068008647024
-0.08713633431352512,-0.08713633431352512
-0.06374068008647024,-0.06374068008647024
0.11513859285788687,0.11513859285788687
0.39734867197173634,0.39734867197173634
0.5489330149845294,0.5489330149845294
0.6020606464584666,0.6020606464584666
1.030493564491409,1.030493564491409
2.292396664363182,2.292396664363182
4.043171455687789,4.043171455687789
5.416691322601135,5.416691322601135
6.02595315143069,6.02595315143069
6.287692033095866,6.287692033095866
6.386148744634722,6.386148744634722
5.775424687415977,5.775424687415977
4.057306330116634,4.057306330116634
1.9336632995483403,1.9336632995483403
0.48118309961868305,0.48118309961868305
-0.012562686464787687,-0.012562686464787687
-0.09054820055497062,-0.09054820055497062
-0.16609666732983533,-0.16609666732983533
-0.24798145712452743,-0.24798145712452743
-0.26845265457320044,-0.26845265457320044
-0.32255510497326484,-0.32255510497326484
-0.42247404490131174,-0.42247404490131174
-0.5038714252329402,-0.5038714252329402
-0.5248300321446768,-0.5248300321446768
-0.5462760485194772,-0.5462760485194772
-0.5760080257663595,-0.5760080257663595
-0.6115889165700054,-0.6115889165700054
-0.627186019388042,-0.627186019388042
-0.6413208938168876,-0.6413208938168876
-0.627186019388042,-0.627186019388042
-0.6252363815357874,-0.6252363815357874
-0.627186019388042,-0.627186019388042
-0.6466823979105877,-0.6466823979105877
-0.627186019388042,-0.627186019388042
-0.5964792232150324,-0.5964792232150324
-0.5760080257663595,-0.5760080257663595
-0.6003784989195415,-0.6003784989195415
-0.627186019388042,-0.627186019388042
-0.6379090275754421,-0.6379090275754421
-0.627186019388042,-0.627186019388042
-0.6310852950925511,-0.6310852950925511
-0.627186019388042,-0.627186019388042
-0.6096392787177508,-0.6096392787177508
-0.5760080257663595,-0.5760080257663595
-0.5677220648942775,-0.5677220648942775
-0.5760080257663595,-0.5760080257663595
-0.5891680812690778,-0.5891680812690778
-0.5760080257663595,-0.5760080257663595
-0.5535871904654318,-0.5535871904654318
-0.5248300321446768,-0.5248300321446768
-0.5184937091248495,-0.5184937091248495
-0.5248300321446768,-0.5248300321446768
-0.5389649065735225,-0.5389649065735225
-0.5248300321446768,-0.5248300321446768
-0.4985099211392401,-0.4985099211392401
-0.4736520385229943,-0.4736520385229943
-0.4760890858383125,-0.4760890858383125
-0.4736520385229943,-0.4736520385229943
-0.45854234516802134,-0.45854234516802134
-0.42247404490131174,-0.42247404490131174
-0.3971287528220023,-0.3971287528220023
-0.37129605127962917,-0.37129605127962917
-0.3488752159787016,-0.3488752159787016
-0.32011805765794665,-0.32011805765794665
-0.3152439630273102,-0.3152439630273102
-0.32011805765794665,-0.32011805765794665
-0.3176810103426284,-0.3176810103426284
-0.26845265457320044,-0.26845265457320044
-0.20752647169024502,-0.20752647169024502
-0.16609666732983533,-0.16609666732983533
-0.17145817142353542,-0.17145817142353542
-0.16609666732983533,-0.16609666732983533
-0.13100318598925303,-0.13100318598925303
-0.06374068008647024,-0.06374068008647024
-0.012075277001724043,-0.012075277001724043
0.03861530715689487,0.03861530715689487
0.08686884400019555,0.08686884400019555
0.14097129440025996,0.14097129440025996
0.16777881486876034,0.16777881486876034
0.19214928802194253,0.19214928802194253
0.22626795043639755,0.22626795043639755
0.2945052752653076,0.2945052752653076
0.3685915136509814,0.3685915136509814
0.4485266655934189,0.4485266655934189
0.5055535727718652,0.5055535727718652
0.5508826528367841,0.5508826528367841
0.5850013152512391,0.5850013152512391
0.6532386400801491,0.6532386400801491
0.734148610948714,0.734148610948714
0.8067726209451968,0.8067726209451968
0.8482024253056065,0.8482024253056065
0.9096160176516256,0.9096160176516256
0.9890637601309994,0.9890637601309994
1.0631499985166732,1.0631499985166732
1.0904449284482371,1.0904449284482371
1.1143279921383558,1.1143279921383558
1.144059969385238,1.144059969385238
1.1655059857600383,1.1655059857600383
1.1382110558284744,1.1382110558284744
1.1143279921383558,1.1143279921383558
1.1255384097888195,1.1255384097888195
1.1655059857600383,1.1655059857600383
1.1606318911294018,1.1606318911294018
1.1143279921383558,1.1143279921383558
1.0509647619400821,1.0509647619400821
1.0119720048949907,1.0119720048949907
0.9671303342931354,0.9671303342931354
0.9096160176516256,0.9096160176516256
0.8267564089308062,0.8267564089308062
0.7555946273235142,0.7555946273235142
0.6961306728297497,0.6961306728297497
0.6532386400801491,0.6532386400801491
0.5879257720296209,0.5879257720296209
0.4997046592151015,0.4997046592151015
0.3876004827104635,0.3876004827104635
0.2945052752653076,0.2945052752653076
0.21359530439674282,0.21359530439674282
0.14097129440025996,0.14097129440025996
0.04251458286140401,0.04251458286140401
-0.06374068008647024,-0.06374068008647024
-0.17633226605417185,-0.17633226605417185
-0.26845265457320044,-0.26845265457320044
-0.3556989484615926,-0.3556989484615926
-0.42247404490131174,-0.42247404490131174
-0.48291281832120353,-0.48291281832120353
-0.5248300321446768,-0.5248300321446768
-0.5750332068402321,-0.5750332068402321
-0.627186019388042,-0.627186019388042
-0.6890870211971246,-0.6890870211971246
-0.729542006631407,-0.729542006631407
-0.7621984406566712,-0.7621984406566712
-0.7807200002530896,-0.7807200002530896
-0.7958296936080625,-0.7958296936080625
-0.7807200002530896,-0.7807200002530896
-0.7685347636764985,-0.7685347636764985
-0.7807200002530896,-0.7807200002530896
-0.8245868519288175,-0.8245868519288175
-0.8318979938747721,-0.8318979938747721
-0.8036282450170809,-0.8036282450170809
-0.7807200002530896,-0.7807200002530896
-0.8104519774999719,-0.8104519774999719
-0.8318979938747721,-0.8318979938747721
-0.815813481593672,-0.815813481593672
-0.7807200002530896,-0.7807200002530896
-0.7831570475684079,-0.7831570475684079
-0.7807200002530896,-0.7807200002530896
-0.7436768810602528,-0.7436768810602528
-0.6783640130097245,-0.6783640130097245
-0.6447327600583331,-0.6447327600583331
-0.627186019388042,-0.627186019388042
-0.6081770503285598,-0.6081770503285598
-0.5760080257663595,-0.5760080257663595
-0.5569990567068773,-0.5569990567068773
-0.5248300321446768,-0.5248300321446768
-0.4760890858383125,-0.4760890858383125
-0.42247404490131174,-0.42247404490131174
-0.4117510367139116,-0.4117510367139116
-0.42247404490131174,-0.42247404490131174
-0.4190621786598662,-0.4190621786598662
-0.37129605127962917,-0.37129605127962917
-0.32742919960390127,-0.32742919960390127
-0.32011805765794665,-0.32011805765794665
-0.35472412953546534,-0.35472412953546534
-0.37129605127962917,-0.37129605127962917
-0.355211538998529,-0.355211538998529
-0.32011805765794665,-0.32011805765794665
-0.312806915711992,-0.312806915711992
-0.32011805765794665,-0.32011805765794665
-0.32889142799309223,-0.32889142799309223
-0.32011805765794665,-0.32011805765794665
-0.319630648194883,-0.319630648194883
-0.32011805765794665,-0.32011805765794665
-0.3254795617516467,-0.3254795617516467
-0.32011805765794665,-0.32011805765794665
-0.32158028604713756,-0.32158028604713756
-0.32011805765794665,-0.32011805765794665
-0.3240173333624558,-0.3240173333624558
-0.32011805765794665,-0.32011805765794665
-0.32255510497326484,-0.32255510497326484
-0.32011805765794665,-0.32011805765794665
-0.32352992389939217,-0.32352992389939217
-0.32011805765794665,-0.32011805765794665
-0.3230425144363285,-0.3230425144363285
-0.32011805765794665,-0.32011805765794665
-0.3230425144363285,-0.3230425144363285
-0.32011805765794665,-0.32011805765794665
-0.3240173333624558,-0.3240173333624558
-0.32011805765794665,-0.32011805765794665
-0.3220676955102012,-0.3220676955102012
-0.32011805765794665,-0.32011805765794665
-0.3249921522885831,-0.3249921522885831
-0.32011805765794665,-0.32011805765794665
-0.3206054671210103,-0.3206054671210103
-0.32011805765794665,-0.32011805765794665
-0.32791660906696496,-0.32791660906696496
-0.32011805765794665,-0.32011805765794665
-0.3162187819534375,-0.3162187819534375
-0.32011805765794665,-0.32011805765794665
-0.33620256993904685,-0.33620256993904685
-0.32011805765794665,-0.32011805765794665
-0.2869742141696189,-0.2869742141696189
-0.26845265457320044,-0.26845265457320044
-0.29867204128314634,-0.29867204128314634
-0.32011805765794665,-0.32011805765794665
-0.3069580021552283,-0.3069580021552283
-0.26845265457320044,-0.26845265457320044
-0.26260374101643674,-0.26260374101643674
-0.26845265457320044,-0.26845265457320044
-0.26065410316418214,-0.26065410316418214
-0.2172746609515179,-0.2172746609515179
-0.1836434080001265,-0.1836434080001265
-0.16609666732983533,-0.16609666732983533
-0.16999594303434448,-0.16999594303434448
-0.16609666732983533,-0.16609666732983533
-0.16755889571902627,-0.16755889571902627
-0.16609666732983533,-0.16609666732983533
-0.1724329903496627,-0.1724329903496627
-0.16609666732983533,-0.16609666732983533
-0.16512184840370805,-0.16512184840370805
-0.16609666732983533,-0.16609666732983533
-0.1777944944433628,-0.1777944944433628
-0.16609666732983533,-0.16609666732983533
-0.1407513752505259,-0.1407513752505259
-0.11491867370815279,-0.11491867370815279
-0.13002836706312573,-0.13002836706312573
-0.16609666732983533,-0.16609666732983533
-0.20703906222718138,-0.20703906222718138
-0.2172746609515179,-0.2172746609515179
-0.20655165276411774,-0.20655165276411774
-0.16609666732983533,-0.16609666732983533
-0.13051577652618937,-0.13051577652618937
-0.11491867370815279,-0.11491867370815279
-0.1407513752505259,-0.1407513752505259
-0.16609666732983533,-0.16609666732983533
-0.17633226605417185,-0.17633226605417185
-0.16609666732983533,-0.16609666732983533
-0.180231541758681,-0.180231541758681
-0.2172746609515179,-0.2172746609515179
-0.277226024908346,-0.277226024908346
-0.32011805765794665,-0.32011805765794665
-0.340101845643556,-0.340101845643556
-0.32011805765794665,-0.32011805765794665
-0.29136089933719167,-0.29136089933719167
-0.26845265457320044,-0.26845265457320044
-0.2713771113515823,-0.2713771113515823
-0.26845265457320044,-0.26845265457320044
-0.2679652451101368,-0.2679652451101368
-0.26845265457320044,-0.26845265457320044
-0.28210011953898245,-0.28210011953898245
-0.26845265457320044,-0.26845265457320044
-0.24018290571550913,-0.24018290571550913
-0.2172746609515179,-0.2172746609515179
-0.24164513410470007,-0.24164513410470007
-0.26845265457320044,-0.26845265457320044
-0.26991488296239136,-0.26991488296239136
-0.2172746609515179,-0.2172746609515179
-0.180231541758681,-0.180231541758681
-0.16609666732983533,-0.16609666732983533
-0.18218117961093558,-0.18218117961093558
-0.16609666732983533,-0.16609666732983533
-0.15634847806856247,-0.15634847806856247
-0.16609666732983533,-0.16609666732983533
-0.19095454994608116,-0.19095454994608116
-0.16609666732983533,-0.16609666732983533
-0.12271722511717108,-0.12271722511717108
-0.11491867370815279,-0.11491867370815279
-0.14026396578746225,-0.14026396578746225
-0.06374068008647024,-0.06374068008647024
0.15510616882910563,0.15510616882910563
0.39734867197173634,0.39734867197173634
0.4909312888799559,0.4909312888799559
0.5508826528367841,0.5508826528367841
0.9359361286570623,0.9359361286570623
1.9336632995483403,1.9336632995483403
3.359823388472561,3.359823388472561
4.750889996056199,4.750889996056199
5.753491261578113,5.753491261578113
6.287692033095866,6.287692033095866
6.199470920281347,6.199470920281347
5.263157341736088,5.263157341736088
3.5567368115502727,3.5567368115502727
1.72895132506161,1.72895132506161
0.4499888939826098,0.4499888939826098
-0.11491867370815279,-0.11491867370815279
-0.2713771113515823,-0.2713771113515823
-0.26845265457320044,-0.26845265457320044
-0.21142574739475417,-0.21142574739475417
-0.16609666732983533,-0.16609666732983533
-0.23482140162180906,-0.23482140162180906
-0.37129605127962917,-0.37129605127962917
-0.4692653533554215,-0.4692653533554215
-0.4736520385229943,-0.4736520385229943
-0.46195421140946685,-0.46195421140946685
-0.4736520385229943,-0.4736520385229943
-0.5106951577158312,-0.5106951577158312
-0.5248300321446768,-0.5248300321446768
-0.5311663551645042,-0.5311663551645042
-0.5248300321446768,-0.5248300321446768
-0.5365278592582043,-0.5365278592582043
-0.5248300321446768,-0.5248300321446768
-0.5063084725482584,-0.5063084725482584
-0.4736520385229943,-0.4736520385229943
-0.47072758174461243,-0.47072758174461243
-0.4736520385229943,-0.4736520385229943
-0.479500952079758,-0.479500952079758
-0.4736520385229943,-0.4736520385229943
-0.47657649530137614,-0.47657649530137614
-0.4736520385229943,-0.4736520385229943
-0.4751142669121852,-0.4751142669121852
-0.4736520385229943,-0.4736520385229943
-0.48291281832120353,-0.48291281832120353
-0.4736520385229943,-0.4736520385229943
-0.45171861268513036,-0.45171861268513036
-0.42247404490131174,-0.42247404490131174
-0.4185747691968026,-0.4185747691968026
-0.42247404490131174,-0.42247404490131174
-0.42929777738420277,-0.42929777738420277
-0.42247404490131174,-0.42247404490131174
-0.42442368275356634,-0.42442368275356634
-0.42247404490131174,-0.42247404490131174
-0.4107762177877843,-0.4107762177877843
-0.37129605127962917,-0.37129605127962917
-0.35033744436789255,-0.35033744436789255
-0.37129605127962917,-0.37129605127962917
-0.42247404490131174,-0.42247404490131174
-0.42247404490131174,-0.42247404490131174
-0.37178346074269286,-0.37178346074269286
-0.32011805765794665,-0.32011805765794665
-0.3206054671210103,-0.3206054671210103
-0.32011805765794665,-0.32011805765794665
-0.2962349939678281,-0.2962349939678281
-0.26845265457320044,-0.26845265457320044
-0.2782008438344733,-0.2782008438344733
-0.26845265457320044,-0.26845265457320044
-0.22117393665602705,-0.22117393665602705
-0.16609666732983533,-0.16609666732983533
-0.1656092578667717,-0.1656092578667717
-0.16609666732983533,-0.16609666732983533
-0.13002836706312573,-0.13002836706312573
-0.06374068008647024,-0.06374068008647024
-0.03400870283958799,-0.03400870283958799
-0.012562686464787687,-0.012562686464787687
0.025942661117240137,0.025942661117240137
0.08979330077857742,0.08979330077857742
0.12342455372996881,0.12342455372996881
0.14097129440025996,0.14097129440025996
0.15510616882910563,0.15510616882910563
0.19214928802194253,0.19214928802194253
0.23162945453009764,0.23162945453009764
0.2945052752653076,0.2945052752653076
0.3681041041879178,0.3681041041879178
0.4485266655934189,0.4485266655934189
0.5016542970673561,0.5016542970673561
0.5508826528367841,0.5508826528367841
0.5952369139755755,0.5952369139755755
0.6532386400801491,0.6532386400801491
0.7151396418892318,0.7151396418892318
0.8067726209451968,0.8067726209451968
0.8964559621489072,0.8964559621489072
0.9607940112733081,0.9607940112733081
0.9793155708697265,0.9793155708697265
1.0119720048949907,1.0119720048949907
1.0641248174428004,1.0641248174428004
1.1143279921383558,1.1143279921383558
1.1162776299906103,1.1162776299906103
1.1143279921383558,1.1143279921383558
1.1323621422717105,1.1323621422717105
1.1655059857600383,1.1655059857600383
1.1542955681095746,1.1542955681095746
1.1143279921383558,1.1143279921383558
1.0724107783148824,1.0724107783148824
1.0631499985166732,1.0631499985166732
1.0465780767725092,1.0465780767725092
1.0119720048949907,1.0119720048949907
0.9534828693273535,0.9534828693273535
0.9096160176516256,0.9096160176516256
0.8628247091975157,0.8628247091975157
0.8067726209451968,0.8067726209451968
0.7248878311505047,0.7248878311505047
0.6532386400801491,0.6532386400801491
0.5815894490097936,0.5815894490097936
0.4997046592151015,0.4997046592151015
0.3876004827104635,0.3876004827104635
0.2945052752653076,0.2945052752653076
0.22041903687963382,0.22041903687963382
0.14097129440025996,0.14097129440025996
0.012295196151458123,0.012295196151458123
-0.11491867370815279,-0.11491867370815279
-0.20996351900556323,-0.20996351900556323
-0.26845265457320044,-0.26845265457320044
-0.3449759402741924,-0.3449759402741924
-0.42247404490131174,-0.42247404490131174
-0.48778691295183996,-0.48778691295183996
-0.5248300321446768,-0.5248300321446768
-0.5730835689879775,-0.5730835689879775
-0.627186019388042,-0.627186019388042
-0.688599611734061,-0.688599611734061
-0.729542006631407,-0.729542006631407
-0.765122897435053,-0.765122897435053
-0.7807200002530896,-0.7807200002530896
-0.7904681895143625,-0.7904681895143625
-0.7807200002530896,-0.7807200002530896
-0.7797451813269624,-0.7797451813269624
-0.7807200002530896,-0.7807200002530896
-0.7899807800512988,-0.7899807800512988
-0.7807200002530896,-0.7807200002530896
-0.7758459056224531,-0.7758459056224531
-0.7807200002530896,-0.7807200002530896
-0.7997289693125716,-0.7997289693125716
-0.7807200002530896,-0.7807200002530896
-0.7305168255575344,-0.7305168255575344
-0.6783640130097245,-0.6783640130097245
-0.6734899183790881,-0.6734899183790881
-0.6783640130097245,-0.6783640130097245
-0.6666661858961971,-0.6666661858961971
-0.627186019388042,-0.627186019388042
-0.5994036799934143,-0.5994036799934143
-0.5760080257663595,-0.5760080257663595
-0.55602423778075,-0.55602423778075
-0.5248300321446768,-0.5248300321446768
-0.5024091968437493,-0.5024091968437493
-0.4736520385229943,-0.4736520385229943
-0.44733192751755757,-0.44733192751755757
-0.42247404490131174,-0.42247404490131174
-0.42247404490131174,-0.42247404490131174
-0.42247404490131174,-0.42247404490131174
-0.41028880832472064,-0.41028880832472064
-0.37129605127962917,-0.37129605127962917
-0.3386396172543651,-0.3386396172543651
-0.32011805765794665,-0.32011805765794665
-0.3230425144363285,-0.3230425144363285
-0.32011805765794665,-0.32011805765794665
-0.3191432387318194,-0.3191432387318194
-0.32011805765794665,-0.32011805765794665
-0.3444885308111288,-0.3444885308111288
-0.37129605127962917,-0.37129605127962917
-0.3868931540976658,-0.3868931540976658
-0.37129605127962917,-0.37129605127962917
-0.3615478620183563,-0.3615478620183563
-0.37129605127962917,-0.37129605127962917
-0.39225465819136585,-0.39225465819136585
-0.37129605127962917,-0.37129605127962917
-0.33230329423453775,-0.33230329423453775
-0.32011805765794665,-0.32011805765794665
-0.3571611768507835,-0.3571611768507835
-0.37129605127962917,-0.37129605127962917
-0.34595075920031976,-0.34595075920031976
-0.32011805765794665,-0.32011805765794665
-0.34692557812644703,-0.34692557812644703
-0.37129605127962917,-0.37129605127962917
-0.35472412953546534,-0.35472412953546534
-0.32011805765794665,-0.32011805765794665
-0.3508248538309562,-0.3508248538309562
-0.42247404490131174,-0.42247404490131174
-0.46341643979865776,-0.46341643979865776
-0.42247404490131174,-0.42247404490131174
-0.3722708702057565,-0.3722708702057565
-0.37129605127962917,-0.37129605127962917
-0.4161377218814844,-0.4161377218814844
-0.42247404490131174,-0.42247404490131174
-0.39079242980217493,-0.39079242980217493
-0.37129605127962917,-0.37129605127962917
-0.40590212315714785,-0.40590212315714785
-0.42247404490131174,-0.42247404490131174
-0.382506468930093,-0.382506468930093
-0.32011805765794665,-0.32011805765794665
-0.3220676955102012,-0.3220676955102012
-0.37129605127962917,-0.37129605127962917
-0.41808735973373895,-0.41808735973373895
-0.42247404490131174,-0.42247404490131174
-0.40882657993552973,-0.40882657993552973
-0.37129605127962917,-0.37129605127962917
-0.3342529320867923,-0.3342529320867923
-0.32011805765794665,-0.32011805765794665
-0.3508248538309562,-0.3508248538309562
-0.37129605127962917,-0.37129605127962917
-0.35764858631384716,-0.35764858631384716
-0.32011805765794665,-0.32011805765794665
-0.29867204128314634,-0.29867204128314634
-0.26845265457320044,-0.26845265457320044
-0.23482140162180906,-0.23482140162180906
-0.2172746609515179,-0.2172746609515179
-0.24603181927227286,-0.24603181927227286
-0.26845265457320044,-0.26845265457320044
-0.270402292425455,-0.270402292425455
-0.26845265457320044,-0.26845265457320044
-0.3011090885984645,-0.3011090885984645
-0.32011805765794665,-0.32011805765794665
-0.3054957737660373,-0.3054957737660373
-0.26845265457320044,-0.26845265457320044
-0.249931094976782,-0.249931094976782
-0.2172746609515179,-0.2172746609515179
-0.17633226605417185,-0.17633226605417185
-0.16609666732983533,-0.16609666732983533
-0.23628363001099997,-0.23628363001099997
-0.32011805765794665,-0.32011805765794665
-0.35277449168321073,-0.35277449168321073
-0.32011805765794665,-0.32011805765794665
-0.2874616236326825,-0.2874616236326825
-0.26845265457320044,-0.26845265457320044
-0.26747783564707317,-0.26747783564707317
-0.26845265457320044,-0.26845265457320044
-0.2937979466525099,-0.2937979466525099
-0.32011805765794665,-0.32011805765794665
-0.3488752159787016,-0.3488752159787016
-0.37129605127962917,-0.37129605127962917
-0.40443989476795694,-0.40443989476795694
-0.42247404490131174,-0.42247404490131174
-0.42881036792113914,-0.42881036792113914
-0.42247404490131174,-0.42247404490131174
-0.42734813953194817,-0.42734813953194817
-0.42247404490131174,-0.42247404490131174
-0.42003699758599355,-0.42003699758599355
-0.42247404490131174,-0.42247404490131174
-0.438558557182412,-0.438558557182412
-0.42247404490131174,-0.42247404490131174
-0.3747079175210747,-0.3747079175210747
-0.32011805765794665,-0.32011805765794665
-0.31085727785973744,-0.31085727785973744
