ECG,PPG
-0.5271598472776351,-0.5271598472776351
-0.034700208269866924,-0.034700208269866924
-0.4700956372831218,-0.4700956372831218
-0.7167747812751517,-0.7167747812751517
-0.4700956372831218,-0.4700956372831218
-0.2876698950959376,-0.2876698950959376
-0.41303142728860853,-0.41303142728860853
-0.5406395819220083,-0.5406395819220083
-0.4700956372831218,-0.4700956372831218
-0.38382533555913323,-0.38382533555913323
-0.41303142728860853,-0.41303142728860853
-0.4777341535816,-0.4777341535816
-0.4700956372831218,-0.4700956372831218
-0.41437940075304586,-0.41437940075304586
-0.35596721729409525,-0.35596721729409525
-0.33754491328011854,-0.33754491328011854
-0.35596721729409525,-0.35596721729409525
-0.38023073965396703,-0.38023073965396703
-0.35596721729409525,-0.35596721729409525
-0.3123827419439552,-0.3123827419439552
-0.29890300729958197,-0.29890300729958197
-0.31957193375428755,-0.31957193375428755
-0.29890300729958197,-0.29890300729958197
-0.2400414993524856,-0.2400414993524856
-0.18432526282240963,-0.18432526282240963
-0.18567323628684695,-0.18567323628684695
-0.18432526282240963,-0.18432526282240963
-0.1452340323537273,-0.1452340323537273
-0.07019684283338307,-0.07019684283338307
-0.030656287876554958,-0.030656287876554958
-0.013132632838869777,-0.013132632838869777
0.001695075269940761,0.001695075269940761
0.043931577155643504,0.043931577155643504
0.07448564234955612,0.07448564234955612
0.1009957871501568,0.1009957871501568
0.12031674014042507,0.12031674014042507
0.15805999714467006,0.15805999714467006
0.18501946643341652,0.18501946643341652
0.21512420713918334,0.21512420713918334
0.2506208417026995,0.2506208417026995
0.3297019516163557,0.3297019516163557
0.42001617373365624,0.42001617373365624
0.5008945815998955,0.5008945815998955
0.5327966202582455,0.5327966202582455
0.5579587915944089,0.5579587915944089
0.5952527241105081,0.5952527241105081
0.6720872115834354,0.6720872115834354
0.7547629174022578,0.7547629174022578
0.843729166055121,0.843729166055121
0.9079825678599667,0.9079825678599667
0.9578575860441476,0.9578575860441476
0.9798744859632905,0.9798744859632905
1.014921796038661,1.014921796038661
1.0629995162702586,1.0629995162702586
1.1290502160276874,1.1290502160276874
1.1667934730319325,1.1667934730319325
1.1861144260222007,1.1861144260222007
1.1977968627139908,1.1977968627139908
1.2436279605048597,1.2436279605048597
1.2863137868787082,1.2863137868787082
1.300692170499373,1.300692170499373
1.2656448604240027,1.2656448604240027
1.2436279605048597,1.2436279605048597
1.2395840401115479,1.2395840401115479
1.2436279605048597,1.2436279605048597
1.2130738953109472,1.2130738953109472
1.1861144260222007,1.1861144260222007
1.1623002281504746,1.1623002281504746
1.1290502160276874,1.1290502160276874
1.0450265367444278,1.0450265367444278
0.9578575860441476,0.9578575860441476
0.88956026384599,0.88956026384599
0.843729166055121,0.843729166055121
0.7646480561414648,0.7646480561414648
0.6720872115834354,0.6720872115834354
0.5768304200965313,0.5768304200965313
0.5008945815998955,0.5008945815998955
0.41282698192332384,0.41282698192332384
0.3297019516163557,0.3297019516163557
0.2402863784753467,0.2402863784753467
0.15805999714467006,0.15805999714467006
0.06280320565776601,0.06280320565776601
-0.013132632838869777,-0.013132632838869777
-0.07783535913186122,-0.07783535913186122
-0.12726105282789635,-0.12726105282789635
-0.19196377912088777,-0.19196377912088777
-0.2413894728169229,-0.2413894728169229
-0.28093002777375103,-0.28093002777375103
-0.29890300729958197,-0.29890300729958197
-0.3294570724934946,-0.3294570724934946
-0.35596721729409525,-0.35596721729409525
-0.3892172294168825,-0.3892172294168825
-0.41303142728860853,-0.41303142728860853
-0.4485280618521247,-0.4485280618521247
-0.4700956372831218,-0.4700956372831218
-0.48222739846305773,-0.48222739846305773
-0.4700956372831218,-0.4700956372831218
-0.46784901484239294,-0.46784901484239294
-0.4700956372831218,-0.4700956372831218
-0.4808794249986204,-0.4808794249986204
-0.4700956372831218,-0.4700956372831218
-0.4647037434253725,-0.4647037434253725
-0.4700956372831218,-0.4700956372831218
-0.4907645637378274,-0.4907645637378274
-0.4700956372831218,-0.4700956372831218
-0.41482872524119163,-0.41482872524119163
-0.35596721729409525,-0.35596721729409525
-0.34743005201932553,-0.34743005201932553
-0.35596721729409525,-0.35596721729409525
-0.36315640910442765,-0.36315640910442765
-0.35596721729409525,-0.35596721729409525
-0.3636057335925734,-0.3636057335925734
-0.35596721729409525,-0.35596721729409525
-0.332602343910515,-0.332602343910515
-0.29890300729958197,-0.29890300729958197
-0.29530841139441577,-0.29530841139441577
-0.29890300729958197,-0.29890300729958197
-0.3033962521810397,-0.3033962521810397
-0.29890300729958197,-0.29890300729958197
-0.3056428746217686,-0.3056428746217686
-0.29890300729958197,-0.29890300729958197
-0.29396043792997845,-0.29396043792997845
-0.29890300729958197,-0.29890300729958197
-0.3204705827305791,-0.3204705827305791
-0.29890300729958197,-0.29890300729958197
-0.2382442013999025,-0.2382442013999025
-0.18432526282240963,-0.18432526282240963
-0.20095026888380327,-0.20095026888380327
-0.2413894728169229,-0.2413894728169229
-0.26115975029533695,-0.26115975029533695
-0.2413894728169229,-0.2413894728169229
-0.23599757895917362,-0.23599757895917362
-0.2413894728169229,-0.2413894728169229
-0.2521732605324215,-0.2521732605324215
-0.2413894728169229,-0.2413894728169229
-0.2400414993524856,-0.2400414993524856
-0.2413894728169229,-0.2413894728169229
-0.2508252870679842,-0.2508252870679842
-0.2413894728169229,-0.2413894728169229
-0.23914285037619404,-0.23914285037619404
-0.2413894728169229,-0.2413894728169229
-0.2544198829731504,-0.2544198829731504
-0.2413894728169229,-0.2413894728169229
-0.23060568510142435,-0.23060568510142435
-0.2413894728169229,-0.2413894728169229
-0.2863219216315003,-0.2863219216315003
-0.29890300729958197,-0.29890300729958197
-0.27329151147527286,-0.27329151147527286
-0.2413894728169229,-0.2413894728169229
-0.2638556972242116,-0.2638556972242116
-0.29890300729958197,-0.29890300729958197
-0.3137307154083925,-0.3137307154083925
-0.29890300729958197,-0.29890300729958197
-0.30070030525216507,-0.30070030525216507
-0.29890300729958197,-0.29890300729958197
-0.2831766502144799,-0.2831766502144799
-0.2413894728169229,-0.2413894728169229
-0.2121833810874476,-0.2121833810874476
-0.18432526282240963,-0.18432526282240963
-0.1757880975476399,-0.1757880975476399
-0.18432526282240963,-0.18432526282240963
-0.22206851982665463,-0.22206851982665463
-0.2413894728169229,-0.2413894728169229
-0.2449840687220891,-0.2449840687220891
-0.2413894728169229,-0.2413894728169229
-0.25576785643758765,-0.25576785643758765
-0.2413894728169229,-0.2413894728169229
-0.20769013620598986,-0.20769013620598986
-0.18432526282240963,-0.18432526282240963
-0.2157779769926138,-0.2157779769926138
-0.2413894728169229,-0.2413894728169229
-0.22925771163698702,-0.22925771163698702
-0.18432526282240963,-0.18432526282240963
-0.17399079959505684,-0.17399079959505684
-0.18432526282240963,-0.18432526282240963
-0.19600769951419975,-0.19600769951419975
-0.18432526282240963,-0.18432526282240963
-0.18387593833426386,-0.18387593833426386
-0.18432526282240963,-0.18432526282240963
-0.19061580565645045,-0.19061580565645045
-0.18432526282240963,-0.18432526282240963
-0.18791985872757583,-0.18791985872757583
-0.18432526282240963,-0.18432526282240963
-0.18791985872757583,-0.18791985872757583
-0.18432526282240963,-0.18432526282240963
-0.19061580565645045,-0.19061580565645045
-0.18432526282240963,-0.18432526282240963
-0.18432526282240963,-0.18432526282240963
-0.18432526282240963,-0.18432526282240963
-0.19645702400234552,-0.19645702400234552
-0.18432526282240963,-0.18432526282240963
-0.15781511802180898,-0.15781511802180898
-0.12726105282789635,-0.12726105282789635
-0.1434367344011442,-0.1434367344011442
-0.18432526282240963,-0.18432526282240963
-0.2157779769926138,-0.2157779769926138
-0.18432526282240963,-0.18432526282240963
-0.13894348951968646,-0.13894348951968646
-0.12726105282789635,-0.12726105282789635
-0.16859890573730754,-0.16859890573730754
-0.18432526282240963,-0.18432526282240963
-0.1609603894388294,-0.1609603894388294
-0.12726105282789635,-0.12726105282789635
-0.1331022711737914,-0.1331022711737914
-0.12726105282789635,-0.12726105282789635
-0.09805496109842105,-0.09805496109842105
-0.07019684283338307,-0.07019684283338307
-0.09850428558656682,-0.09850428558656682
-0.12726105282789635,-0.12726105282789635
-0.11692658960054354,-0.11692658960054354
-0.07019684283338307,-0.07019684283338307
-0.05851440614159294,-0.05851440614159294
-0.07019684283338307,-0.07019684283338307
-0.08277792850146473,-0.08277792850146473
-0.07019684283338307,-0.07019684283338307
-0.06929819385709152,-0.06929819385709152
-0.07019684283338307,-0.07019684283338307
-0.07693671015556967,-0.07693671015556967
-0.07019684283338307,-0.07019684283338307
-0.0728927897622577,-0.0728927897622577
-0.07019684283338307,-0.07019684283338307
-0.07379143873854925,-0.07379143873854925
-0.07019684283338307,-0.07019684283338307
-0.07603806117927812,-0.07603806117927812
-0.07019684283338307,-0.07019684283338307
-0.06929819385709152,-0.06929819385709152
-0.07019684283338307,-0.07019684283338307
-0.0989536100747126,-0.0989536100747126
-0.12726105282789635,-0.12726105282789635
-0.14658200581816463,-0.14658200581816463
-0.12726105282789635,-0.12726105282789635
-0.09850428558656682,-0.09850428558656682
-0.07019684283338307,-0.07019684283338307
-0.06974751834523729,-0.06974751834523729
-0.07019684283338307,-0.07019684283338307
-0.07558873669113235,-0.07558873669113235
-0.07019684283338307,-0.07019684283338307
-0.0746900877148408,-0.0746900877148408
-0.07019684283338307,-0.07019684283338307
-0.07199414078596615,-0.07199414078596615
-0.07019684283338307,-0.07019684283338307
-0.07873400810815276,-0.07873400810815276
-0.07019684283338307,-0.07019684283338307
-0.06705157141636264,-0.06705157141636264
-0.07019684283338307,-0.07019684283338307
-0.08816982235921401,-0.08816982235921401
-0.07019684283338307,-0.07019684283338307
-0.03425088378172115,-0.03425088378172115
-0.013132632838869777,-0.013132632838869777
-0.0454839959853655,-0.0454839959853655
-0.07019684283338307,-0.07019684283338307
-0.05716643267715562,-0.05716643267715562
-0.013132632838869777,-0.013132632838869777
-0.0032474940996627517,-0.0032474940996627517
-0.013132632838869777,-0.013132632838869777
-0.024815069530659897,-0.024815069530659897
-0.013132632838869777,-0.013132632838869777
-0.01223398386257823,-0.01223398386257823
-0.013132632838869777,-0.013132632838869777
-0.02032182464920216,-0.02032182464920216
-0.013132632838869777,-0.013132632838869777
-0.015379255279598646,-0.015379255279598646
-0.013132632838869777,-0.013132632838869777
-0.01807520220847329,-0.01807520220847329
-0.013132632838869777,-0.013132632838869777
-0.017176553232181743,-0.017176553232181743
-0.013132632838869777,-0.013132632838869777
-0.016277904255890194,-0.016277904255890194
-0.013132632838869777,-0.013132632838869777
-0.01897385118476484,-0.01897385118476484
-0.013132632838869777,-0.013132632838869777
-0.014031281815161325,-0.014031281815161325
-0.013132632838869777,-0.013132632838869777
-0.022119122601785255,-0.022119122601785255
-0.013132632838869777,-0.013132632838869777
-0.009538036933703586,-0.009538036933703586
-0.013132632838869777,-0.013132632838869777
-0.030656287876554958,-0.030656287876554958
-0.013132632838869777,-0.013132632838869777
0.021914677236500587,0.021914677236500587
0.043931577155643504,0.043931577155643504
0.012928187473585108,0.012928187473585108
-0.013132632838869777,-0.013132632838869777
-0.0027981696115169778,-0.0027981696115169778
0.043931577155643504,0.043931577155643504
0.05830996077630827,0.05830996077630827
0.043931577155643504,0.043931577155643504
0.02461062416537523,0.02461062416537523
0.043931577155643504,0.043931577155643504
0.057411311800016726,0.057411311800016726
0.043931577155643504,0.043931577155643504
-0.00010222268264233461,-0.00010222268264233461
-0.013132632838869777,-0.013132632838869777
-0.00998736142184936,-0.00998736142184936
-0.013132632838869777,-0.013132632838869777
-0.03784547968688734,-0.03784547968688734
-0.013132632838869777,-0.013132632838869777
0.052918066918558986,0.052918066918558986
0.1009957871501568,0.1009957871501568
0.07089104644438994,0.07089104644438994
0.043931577155643504,0.043931577155643504
0.0785295627428681,0.0785295627428681
0.15805999714467006,0.15805999714467006
0.1818741950163961,0.1818741950163961
0.15805999714467006,0.15805999714467006
0.13379647478479828,0.13379647478479828
0.15805999714467006,0.15805999714467006
0.18816473785043691,0.18816473785043691
0.21512420713918334,0.21512420713918334
0.2330971866650143,0.2330971866650143
0.2726377416218424,0.2726377416218424
0.3067864027209212,0.3067864027209212
0.3297019516163557,0.3297019516163557
0.311279647602379,0.311279647602379
0.2726377416218424,0.2726377416218424
0.21152961123401717,0.21152961123401717
0.15805999714467006,0.15805999714467006
0.11088092588936381,0.11088092588936381
0.1009957871501568,0.1009957871501568
0.11762079321155042,0.11762079321155042
0.15805999714467006,0.15805999714467006
0.1728877052534806,0.1728877052534806
0.15805999714467006,0.15805999714467006
0.10189443612644834,0.10189443612644834
0.043931577155643504,0.043931577155643504
-0.004595467564100074,-0.004595467564100074
-0.013132632838869777,-0.013132632838869777
-0.01223398386257823,-0.01223398386257823
-0.013132632838869777,-0.013132632838869777
-0.04413602252092817,-0.04413602252092817
-0.07019684283338307,-0.07019684283338307
-0.08457522645404783,-0.08457522645404783
-0.07019684283338307,-0.07019684283338307
-0.06525427346377954,-0.06525427346377954
-0.07019684283338307,-0.07019684283338307
-0.10164955700358723,-0.10164955700358723
-0.12726105282789635,-0.12726105282789635
-0.1452340323537273,-0.1452340323537273
-0.12726105282789635,-0.12726105282789635
-0.09985225905100413,-0.09985225905100413
-0.07019684283338307,-0.07019684283338307
-0.07424076322669503,-0.07424076322669503
-0.07019684283338307,-0.07019684283338307
-0.07738603464371545,-0.07738603464371545
-0.07019684283338307,-0.07019684283338307
-0.08098063054888163,-0.08098063054888163
-0.07019684283338307,-0.07019684283338307
-0.06974751834523729,-0.06974751834523729
-0.07019684283338307,-0.07019684283338307
-0.06705157141636264,-0.06705157141636264
-0.013132632838869777,-0.013132632838869777
0.039438332274185764,0.039438332274185764
0.043931577155643504,0.043931577155643504
0.019668054795771717,0.019668054795771717
0.1009957871501568,0.1009957871501568
0.27713098650330015,0.27713098650330015
0.38676616161086896,0.38676616161086896
0.3108303231142332,0.3108303231142332
0.3297019516163557,0.3297019516163557
0.9488710962812321,0.9488710962812321
2.44287501936593,2.44287501936593
4.427541283505813,4.427541283505813
6.155193940426314,6.155193940426314
7.044856426954946,7.044856426954946
7.012055739320305,7.012055739320305
6.184400032155789,6.184400032155789
4.7276900415871905,4.7276900415871905
2.9016353217627655,2.9016353217627655
1.2436279605048597,1.2436279605048597
0.2281546172954108,0.2281546172954108
-0.07019684283338307,-0.07019684283338307
-0.028858989923971862,-0.028858989923971862
-0.013132632838869777,-0.013132632838869777
-0.14388605888928999,-0.14388605888928999
-0.29890300729958197,-0.29890300729958197
-0.3919131763457572,-0.3919131763457572
-0.41303142728860853,-0.41303142728860853
-0.43504832720775144,-0.43504832720775144
-0.4700956372831218,-0.4700956372831218
-0.5136801126332619,-0.5136801126332619
-0.5271598472776351,-0.5271598472776351
-0.5325517411353844,-0.5325517411353844
-0.5271598472776351,-0.5271598472776351
-0.5361463370405506,-0.5361463370405506
-0.5271598472776351,-0.5271598472776351
-0.5334503901116759,-0.5334503901116759
-0.5271598472776351,-0.5271598472776351
-0.5347983635761132,-0.5347983635761132
-0.5271598472776351,-0.5271598472776351
-0.529406469718364,-0.529406469718364
-0.5271598472776351,-0.5271598472776351
-0.5330010656235301,-0.5330010656235301
-0.5271598472776351,-0.5271598472776351
-0.5276091717657809,-0.5276091717657809
-0.5271598472776351,-0.5271598472776351
-0.5383929594812794,-0.5383929594812794
-0.5271598472776351,-0.5271598472776351
-0.5024470004296175,-0.5024470004296175
-0.4700956372831218,-0.4700956372831218
-0.46605171688980984,-0.46605171688980984
-0.4700956372831218,-0.4700956372831218
-0.47818347806974576,-0.47818347806974576
-0.4700956372831218,-0.4700956372831218
-0.4705449617712676,-0.4705449617712676
-0.4700956372831218,-0.4700956372831218
-0.4777341535816,-0.4777341535816
-0.4700956372831218,-0.4700956372831218
-0.453919955709874,-0.453919955709874
-0.41303142728860853,-0.41303142728860853
-0.3775347927250924,-0.3775347927250924
-0.35596721729409525,-0.35596721729409525
-0.36270708461628187,-0.36270708461628187
-0.35596721729409525,-0.35596721729409525
-0.33350099288680657,-0.33350099288680657
-0.29890300729958197,-0.29890300729958197
-0.2930617889536869,-0.2930617889536869
-0.29890300729958197,-0.29890300729958197
-0.30968679501508056,-0.30968679501508056
-0.29890300729958197,-0.29890300729958197
-0.28093002777375103,-0.28093002777375103
-0.2413894728169229,-0.2413894728169229
-0.20813946069413564,-0.20813946069413564
-0.18432526282240963,-0.18432526282240963
-0.1901664811683047,-0.1901664811683047
-0.18432526282240963,-0.18432526282240963
-0.16545363432028712,-0.16545363432028712
-0.12726105282789635,-0.12726105282789635
-0.10254820597987878,-0.10254820597987878
-0.07019684283338307,-0.07019684283338307
-0.04323737354463663,-0.04323737354463663
-0.013132632838869777,-0.013132632838869777
0.002593724246232309,0.002593724246232309
0.043931577155643504,0.043931577155643504
0.10054646266201102,0.10054646266201102
0.15805999714467006,0.15805999714467006
0.16659716241943978,0.16659716241943978
0.15805999714467006,0.15805999714467006
0.16165459304983626,0.16165459304983626
0.21512420713918334,0.21512420713918334
0.2762323375270086,0.2762323375270086
0.3297019516163557,0.3297019516163557
0.3530668249999359,0.3530668249999359
0.38676616161086896,0.38676616161086896
0.4312492859373006,0.4312492859373006
0.5008945815998955,0.5008945815998955
0.5593067650588461,0.5593067650588461
0.6150230015889221,0.6150230015889221
0.6617527483560826,0.6617527483560826
0.7291514215779487,0.7291514215779487
0.7911582009420655,0.7911582009420655
0.843729166055121,0.843729166055121
0.8661953904624097,0.8661953904624097
0.9007933760496343,0.9007933760496343
0.9484217717930863,0.9484217717930863
1.014921796038661,1.014921796038661
1.054462350995489,1.054462350995489
1.071986006033174,1.071986006033174
1.064347489734696,1.064347489734696
1.071986006033174,1.071986006033174
1.0895096610708592,1.0895096610708592
1.1290502160276874,1.1290502160276874
1.1614015791741832,1.1614015791741832
1.1861144260222007,1.1861144260222007
1.169489419960807,1.169489419960807
1.1290502160276874,1.1290502160276874
1.0814218202842354,1.0814218202842354
1.071986006033174,1.071986006033174
1.0616515428058213,1.0616515428058213
1.014921796038661,1.014921796038661
0.9160704086465906,0.9160704086465906
0.843729166055121,0.843729166055121
0.8109284784204795,0.8109284784204795
0.7866649560606077,0.7866649560606077
0.7057865481943685,0.7057865481943685
0.6150230015889221,0.6150230015889221
0.5453777059263272,0.5453777059263272
0.5008945815998955,0.5008945815998955
0.42136414719809356,0.42136414719809356
0.3297019516163557,0.3297019516163557
0.2519688151671368,0.2519688151671368
0.21512420713918334,0.21512420713918334
0.16749581139573133,0.16749581139573133
0.1009957871501568,0.1009957871501568
0.007985618103981596,0.007985618103981596
-0.07019684283338307,-0.07019684283338307
-0.13894348951968646,-0.13894348951968646
-0.18432526282240963,-0.18432526282240963
-0.2413894728169229,-0.2413894728169229
-0.29890300729958197,-0.29890300729958197
-0.3519232969007833,-0.3519232969007833
-0.35596721729409525,-0.35596721729409525
-0.34563275406674243,-0.34563275406674243
-0.35596721729409525,-0.35596721729409525
-0.41842332114635783,-0.41842332114635783
-0.4700956372831218,-0.4700956372831218
-0.4871699678326612,-0.4871699678326612
-0.4700956372831218,-0.4700956372831218
-0.46964631279497604,-0.46964631279497604
-0.4700956372831218,-0.4700956372831218
-0.473690233188288,-0.473690233188288
-0.4700956372831218,-0.4700956372831218
-0.4808794249986204,-0.4808794249986204
-0.4700956372831218,-0.4700956372831218
-0.44358549248252116,-0.44358549248252116
-0.41303142728860853,-0.41303142728860853
-0.4152780497293374,-0.4152780497293374
-0.41303142728860853,-0.41303142728860853
-0.3932611498101945,-0.3932611498101945
-0.35596721729409525,-0.35596721729409525
-0.3483287009956171,-0.3483287009956171
-0.35596721729409525,-0.35596721729409525
-0.36675100500959384,-0.36675100500959384
-0.35596721729409525,-0.35596721729409525
-0.3537205948533664,-0.3537205948533664
-0.35596721729409525,-0.35596721729409525
-0.3654030315451565,-0.3654030315451565
-0.35596721729409525,-0.35596721729409525
-0.3519232969007833,-0.3519232969007833
-0.35596721729409525,-0.35596721729409525
-0.3716935743791973,-0.3716935743791973
-0.35596721729409525,-0.35596721729409525
-0.322717205171308,-0.322717205171308
-0.29890300729958197,-0.29890300729958197
-0.3236158541475995,-0.3236158541475995
-0.35596721729409525,-0.35596721729409525
-0.3707949254029058,-0.3707949254029058
-0.35596721729409525,-0.35596721729409525
-0.3532712703652206,-0.3532712703652206
-0.35596721729409525,-0.35596721729409525
-0.36315640910442765,-0.36315640910442765
-0.35596721729409525,-0.35596721729409525
-0.3573151907585326,-0.3573151907585326
-0.35596721729409525,-0.35596721729409525
-0.360460462175553,-0.360460462175553
-0.35596721729409525,-0.35596721729409525
-0.35956181319926145,-0.35956181319926145
-0.35596721729409525,-0.35596721729409525
-0.3586631642229699,-0.3586631642229699
-0.35596721729409525,-0.35596721729409525
-0.3622577601281361,-0.3622577601281361
-0.35596721729409525,-0.35596721729409525
-0.3537205948533664,-0.3537205948533664
-0.35596721729409525,-0.35596721729409525
-0.38517330902357055,-0.38517330902357055
-0.41303142728860853,-0.41303142728860853
-0.4305550823262937,-0.4305550823262937
-0.41303142728860853,-0.41303142728860853
-0.3865212824880079,-0.3865212824880079
-0.35596721729409525,-0.35596721729409525
-0.34922734997190863,-0.34922734997190863
-0.35596721729409525,-0.35596721729409525
-0.3865212824880079,-0.3865212824880079
-0.41303142728860853,-0.41303142728860853
-0.4305550823262937,-0.4305550823262937
-0.41303142728860853,-0.41303142728860853
-0.38517330902357055,-0.38517330902357055
-0.35596721729409525,-0.35596721729409525
-0.3537205948533664,-0.3537205948533664
-0.35596721729409525,-0.35596721729409525
-0.3622577601281361,-0.3622577601281361
-0.35596721729409525,-0.35596721729409525
-0.3582138397348241,-0.3582138397348241
-0.35596721729409525,-0.35596721729409525
-0.360460462175553,-0.360460462175553
-0.35596721729409525,-0.35596721729409525
-0.3591124887111157,-0.3591124887111157
-0.35596721729409525,-0.35596721729409525
-0.35956181319926145,-0.35956181319926145
-0.35596721729409525,-0.35596721729409525
-0.360460462175553,-0.360460462175553
-0.35596721729409525,-0.35596721729409525
-0.3582138397348241,-0.3582138397348241
-0.35596721729409525,-0.35596721729409525
-0.3618084356399903,-0.3618084356399903
-0.35596721729409525,-0.35596721729409525
-0.35596721729409525,-0.35596721729409525
-0.35596721729409525,-0.35596721729409525
-0.36675100500959384,-0.36675100500959384
-0.35596721729409525,-0.35596721729409525
-0.33215301942236924,-0.33215301942236924
-0.29890300729958197,-0.29890300729958197
-0.2930617889536869,-0.2930617889536869
-0.29890300729958197,-0.29890300729958197
-0.30968679501508056,-0.30968679501508056
-0.29890300729958197,-0.29890300729958197
-0.29530841139441577,-0.29530841139441577
-0.29890300729958197,-0.29890300729958197
-0.31193341745580944,-0.31193341745580944
-0.29890300729958197,-0.29890300729958197
-0.2876698950959376,-0.2876698950959376
-0.29890300729958197,-0.29890300729958197
-0.3429368071378678,-0.3429368071378678
-0.35596721729409525,-0.35596721729409525
-0.33215301942236924,-0.33215301942236924
-0.29890300729958197,-0.29890300729958197
-0.30249760320474817,-0.30249760320474817
-0.29890300729958197,-0.29890300729958197
-0.2728421869871271,-0.2728421869871271
-0.2413894728169229,-0.2413894728169229
-0.2620583992716285,-0.2620583992716285
-0.29890300729958197,-0.29890300729958197
-0.3173253113135587,-0.3173253113135587
-0.29890300729958197,-0.29890300729958197
-0.29351111344183267,-0.29351111344183267
-0.29890300729958197,-0.29890300729958197
-0.3110347684795179,-0.3110347684795179
-0.29890300729958197,-0.29890300729958197
-0.27913272982116794,-0.27913272982116794
-0.2413894728169229,-0.2413894728169229
-0.20903810967042719,-0.20903810967042719
-0.18432526282240963,-0.18432526282240963
-0.20184891786009482,-0.20184891786009482
-0.2413894728169229,-0.2413894728169229
-0.2876698950959376,-0.2876698950959376
-0.29890300729958197,-0.29890300729958197
-0.29890300729958197,-0.29890300729958197
-0.29890300729958197,-0.29890300729958197
-0.3123827419439552,-0.3123827419439552
-0.29890300729958197,-0.29890300729958197
-0.26789961761752357,-0.26789961761752357
-0.2413894728169229,-0.2413894728169229
-0.2656529951767947,-0.2656529951767947
-0.29890300729958197,-0.29890300729958197
-0.2998016562758735,-0.2998016562758735
-0.2413894728169229,-0.2413894728169229
-0.19106513014459622,-0.19106513014459622
-0.18432526282240963,-0.18432526282240963
-0.2243151422673835,-0.2243151422673835
-0.2413894728169229,-0.2413894728169229
-0.2395921748643398,-0.2395921748643398
-0.2413894728169229,-0.2413894728169229
-0.2800313787974595,-0.2800313787974595
-0.29890300729958197,-0.29890300729958197
-0.2813793522618968,-0.2813793522618968
-0.2413894728169229,-0.2413894728169229
-0.23599757895917362,-0.23599757895917362
-0.2413894728169229,-0.2413894728169229
-0.24543339321023488,-0.24543339321023488
-0.2413894728169229,-0.2413894728169229
-0.26834894210566934,-0.26834894210566934
-0.29890300729958197,-0.29890300729958197
-0.31462936438468403,-0.31462936438468403
-0.29890300729958197,-0.29890300729958197
-0.29396043792997845,-0.29396043792997845
-0.29890300729958197,-0.29890300729958197
-0.31013611950322634,-0.31013611950322634
-0.29890300729958197,-0.29890300729958197
-0.29351111344183267,-0.29351111344183267
-0.29890300729958197,-0.29890300729958197
-0.31642666233726713,-0.31642666233726713
-0.29890300729958197,-0.29890300729958197
-0.2638556972242116,-0.2638556972242116
-0.2413894728169229,-0.2413894728169229
-0.2692475910819609,-0.2692475910819609
-0.29890300729958197,-0.29890300729958197
-0.31013611950322634,-0.31013611950322634
-0.29890300729958197,-0.29890300729958197
-0.30294692769289394,-0.30294692769289394
-0.29890300729958197,-0.29890300729958197
-0.2944097624181242,-0.2944097624181242
-0.29890300729958197,-0.29890300729958197
-0.33709558879197277,-0.33709558879197277
-0.35596721729409525,-0.35596721729409525
-0.33889288674455587,-0.33889288674455587
-0.29890300729958197,-0.29890300729958197
-0.2926124644655411,-0.2926124644655411
-0.29890300729958197,-0.29890300729958197
-0.3056428746217686,-0.3056428746217686
-0.29890300729958197,-0.29890300729958197
-0.30429490115733127,-0.30429490115733127
-0.29890300729958197,-0.29890300729958197
-0.29575773588256155,-0.29575773588256155
-0.29890300729958197,-0.29890300729958197
-0.318673284777996,-0.318673284777996
-0.29890300729958197,-0.29890300729958197
-0.24228812179321446,-0.24228812179321446
-0.18432526282240963,-0.18432526282240963
-0.18028134242909766,-0.18028134242909766
-0.18432526282240963,-0.18432526282240963
-0.16725093227287022,-0.16725093227287022
-0.12726105282789635,-0.12726105282789635
-0.12097050999385552,-0.12097050999385552
-0.12726105282789635,-0.12726105282789635
-0.12007186101756397,-0.12007186101756397
-0.07019684283338307,-0.07019684283338307
-0.029308314412117637,-0.029308314412117637
-0.013132632838869777,-0.013132632838869777
-0.0230177715780768,-0.0230177715780768
-0.013132632838869777,-0.013132632838869777
-0.0036968185878085255,-0.0036968185878085255
-0.013132632838869777,-0.013132632838869777
-0.05447048574828098,-0.05447048574828098
-0.07019684283338307,-0.07019684283338307
-0.06480494897563377,-0.06480494897563377
-0.07019684283338307,-0.07019684283338307
-0.12905835078047945,-0.12905835078047945
-0.18432526282240963,-0.18432526282240963
-0.2040955403008237,-0.2040955403008237
-0.18432526282240963,-0.18432526282240963
-0.16725093227287022,-0.16725093227287022
-0.12726105282789635,-0.12726105282789635
-0.08187927952517318,-0.08187927952517318
-0.07019684283338307,-0.07019684283338307
-0.1452340323537273,-0.1452340323537273
-0.2413894728169229,-0.2413894728169229
-0.29890300729958197,-0.29890300729958197
-0.29890300729958197,-0.29890300729958197
-0.31418003989653825,-0.31418003989653825
-0.35596721729409525,-0.35596721729409525
-0.4067408844545677,-0.4067408844545677
-0.41303142728860853,-0.41303142728860853
-0.3914638518576114,-0.3914638518576114
-0.35596721729409525,-0.35596721729409525
-0.34698072753117976,-0.34698072753117976
-0.35596721729409525,-0.35596721729409525
-0.3892172294168825,-0.3892172294168825
-0.41303142728860853,-0.41303142728860853
-0.4283084598855649,-0.4283084598855649
-0.41303142728860853,-0.41303142728860853
-0.3892172294168825,-0.3892172294168825
-0.35596721729409525,-0.35596721729409525
-0.3550685683178037,-0.3550685683178037
-0.35596721729409525,-0.35596721729409525
-0.37034560091476004,-0.37034560091476004
-0.35596721729409525,-0.35596721729409525
-0.3550685683178037,-0.3550685683178037
-0.35596721729409525,-0.35596721729409525
-0.37304154784363464,-0.37304154784363464
-0.35596721729409525,-0.35596721729409525
-0.3051935501336228,-0.3051935501336228
-0.2413894728169229,-0.2413894728169229
-0.23060568510142435,-0.23060568510142435
-0.2413894728169229,-0.2413894728169229
-0.2072408117178441,-0.2072408117178441
-0.07019684283338307,-0.07019684283338307
0.0816748341598885,0.0816748341598885
0.15805999714467006,0.15805999714467006
0.20299244595924745,0.20299244595924745
0.5579587915944089,0.5579587915944089
1.622857828499893,1.622857828499893
3.470929448243461,3.470929448243461
5.5360247957614375,5.5360247957614375
7.012055739320305,7.012055739320305
7.454640360143892,7.454640360143892
7.012055739320305,7.012055739320305
5.930082371865281,5.930082371865281
4.327791247137451,4.327791247137451
2.4356858275555977,2.4356858275555977
0.843729166055121,0.843729166055121
0.0034923732225238566,0.0034923732225238566
-0.18432526282240963,-0.18432526282240963
-0.2022982423482406,-0.2022982423482406
-0.29890300729958197,-0.29890300729958197
-0.43639630067218876,-0.43639630067218876
-0.5271598472776351,-0.5271598472776351
-0.614778122466061,-0.614778122466061
-0.698352477261175,-0.698352477261175
-0.7536193893031051,-0.7536193893031051
-0.755866011743834,-0.755866011743834
-0.7545180382793967,-0.7545180382793967
-0.755866011743834,-0.755866011743834
-0.7796802096155601,-0.7796802096155601
-0.8129302217383473,-0.8129302217383473
-0.865051862363257,-0.865051862363257
-0.8699944317328606,-0.8699944317328606
-0.8497748297663007,-0.8497748297663007
-0.8129302217383473,-0.8129302217383473
-0.8156261686672219,-0.8156261686672219
-0.8129302217383473,-0.8129302217383473
-0.7954065667006621,-0.7954065667006621
-0.755866011743834,-0.755866011743834
-0.7441835750520439,-0.7441835750520439
-0.755866011743834,-0.755866011743834
-0.7738389912696649,-0.7738389912696649
-0.755866011743834,-0.755866011743834
-0.7248626220617757,-0.7248626220617757
-0.698352477261175,-0.698352477261175
-0.7001497752137581,-0.7001497752137581
-0.698352477261175,-0.698352477261175
-0.6988018017493207,-0.6988018017493207
-0.698352477261175,-0.698352477261175
-0.7109335629292566,-0.7109335629292566
-0.698352477261175,-0.698352477261175
-0.6700450345079912,-0.6700450345079912
-0.6412882672666617,-0.6412882672666617
-0.6453321876599737,-0.6453321876599737
-0.6412882672666617,-0.6412882672666617
-0.6192713673475188,-0.6192713673475188
-0.5842240572721484,-0.5842240572721484
-0.5801801368788364,-0.5801801368788364
-0.5842240572721484,-0.5842240572721484
-0.5891666266417519,-0.5891666266417519
-0.5842240572721484,-0.5842240572721484
-0.5927612225469181,-0.5927612225469181
-0.5842240572721484,-0.5842240572721484
-0.5613085083767139,-0.5613085083767139
-0.5271598472776351,-0.5271598472776351
-0.5087375432636584,-0.5087375432636584
-0.4700956372831218,-0.4700956372831218
-0.4139300762649001,-0.4139300762649001
-0.35596721729409525,-0.35596721729409525
-0.34563275406674243,-0.34563275406674243
-0.35596721729409525,-0.35596721729409525
-0.36809897847403117,-0.36809897847403117
-0.35596721729409525,-0.35596721729409525
-0.3397915357208474,-0.3397915357208474
-0.29890300729958197,-0.29890300729958197
-0.24588271769838066,-0.24588271769838066
-0.18432526282240963,-0.18432526282240963
-0.1519738996759139,-0.1519738996759139
-0.12726105282789635,-0.12726105282789635
-0.10704145086133651,-0.10704145086133651
-0.07019684283338307,-0.07019684283338307
-0.04323737354463663,-0.04323737354463663
-0.013132632838869777,-0.013132632838869777
0.009333591568418917,0.009333591568418917
0.043931577155643504,0.043931577155643504
0.06954307297995262,0.06954307297995262
0.1009957871501568,0.1009957871501568
0.12436066053373702,0.12436066053373702
0.15805999714467006,0.15805999714467006
0.18232351950454187,0.18232351950454187
0.21512420713918334,0.21512420713918334
0.2537661131197199,0.2537661131197199
0.3297019516163557,0.3297019516163557
0.4168709023166358,0.4168709023166358
0.5008945815998955,0.5008945815998955
0.5377391896278491,0.5377391896278491
0.5579587915944089,0.5579587915944089
0.5880635323001757,0.5880635323001757
0.6720872115834354,0.6720872115834354
0.7677933275584853,0.7677933275584853
0.843729166055121,0.843729166055121
0.8697899863675759,0.8697899863675759
0.9007933760496343,0.9007933760496343
0.9484217717930863,0.9484217717930863
1.014921796038661,1.014921796038661
1.0517664040666144,1.0517664040666144
1.071986006033174,1.071986006033174
1.0715366815450285,1.0715366815450285
1.071986006033174,1.071986006033174
1.0621008672939671,1.0621008672939671
1.071986006033174,1.071986006033174
1.0787258733553609,1.0787258733553609
1.071986006033174,1.071986006033174
1.0328947755644917,1.0328947755644917
1.014921796038661,1.014921796038661
1.0180670674556813,1.0180670674556813
1.014921796038661,1.014921796038661
0.9439285269116287,0.9439285269116287
0.843729166055121,0.843729166055121
0.7588068377955698,0.7588068377955698
0.7291514215779487,0.7291514215779487
0.7075838461469516,0.7075838461469516
0.6720872115834354,0.6720872115834354
0.593455426157925,0.593455426157925
0.5008945815998955,0.5008945815998955
0.40114454523153376,0.40114454523153376
0.3297019516163557,0.3297019516163557
0.2685938212285304,0.2685938212285304
0.21512420713918334,0.21512420713918334
0.13199917683221518,0.13199917683221518
0.043931577155643504,0.043931577155643504
-0.034700208269866924,-0.034700208269866924
-0.07019684283338307,-0.07019684283338307
-0.11198402023094003,-0.11198402023094003
-0.18432526282240963,-0.18432526282240963
-0.2926124644655411,-0.2926124644655411
-0.35596721729409525,-0.35596721729409525
-0.3658523560333023,-0.3658523560333023
-0.35596721729409525,-0.35596721729409525
-0.4013489905968184,-0.4013489905968184
-0.4700956372831218,-0.4700956372831218
-0.5240145758606147,-0.5240145758606147
-0.5271598472776351,-0.5271598472776351
-0.5262611983013435,-0.5262611983013435
-0.5271598472776351,-0.5271598472776351
-0.5370449860168421,-0.5370449860168421
-0.5271598472776351,-0.5271598472776351
-0.5249132248369063,-0.5249132248369063
-0.5271598472776351,-0.5271598472776351
-0.5410889064101541,-0.5410889064101541
-0.5271598472776351,-0.5271598472776351
-0.5002003779888887,-0.5002003779888887
-0.4700956372831218,-0.4700956372831218
-0.4705449617712676,-0.4705449617712676
-0.4700956372831218,-0.4700956372831218
-0.45616657815060285,-0.45616657815060285
-0.41303142728860853,-0.41303142728860853
-0.3793320906776755,-0.3793320906776755
-0.35596721729409525,-0.35596721729409525
-0.3555178928059495,-0.3555178928059495
-0.35596721729409525,-0.35596721729409525
-0.36315640910442765,-0.36315640910442765
-0.35596721729409525,-0.35596721729409525
-0.35416991934151215,-0.35416991934151215
-0.35596721729409525,-0.35596721729409525
-0.3694469519384685,-0.3694469519384685
-0.35596721729409525,-0.35596721729409525
-0.3272104500527657,-0.3272104500527657
-0.29890300729958197,-0.29890300729958197
-0.3002509807640193,-0.3002509807640193
-0.29890300729958197,-0.29890300729958197
-0.2962070603707073,-0.2962070603707073
-0.29890300729958197,-0.29890300729958197
-0.332602343910515,-0.332602343910515
-0.35596721729409525,-0.35596721729409525
-0.3622577601281361,-0.3622577601281361
-0.35596721729409525,-0.35596721729409525
-0.36630168052144807,-0.36630168052144807
-0.35596721729409525,-0.35596721729409525
-0.3263118010764742,-0.3263118010764742
-0.29890300729958197,-0.29890300729958197
-0.32136923170687065,-0.32136923170687065
-0.35596721729409525,-0.35596721729409525
-0.3721428988673431,-0.3721428988673431
-0.35596721729409525,-0.35596721729409525
-0.35237262138892905,-0.35237262138892905
-0.35596721729409525,-0.35596721729409525
-0.3640550580807192,-0.3640550580807192
-0.35596721729409525,-0.35596721729409525
-0.3568658662703868,-0.3568658662703868
-0.35596721729409525,-0.35596721729409525
-0.3618084356399903,-0.3618084356399903
-0.35596721729409525,-0.35596721729409525
-0.3582138397348241,-0.3582138397348241
-0.35596721729409525,-0.35596721729409525
-0.3609097866636988,-0.3609097866636988
-0.35596721729409525,-0.35596721729409525
-0.35776451524667835,-0.35776451524667835
-0.35596721729409525,-0.35596721729409525
-0.3618084356399903,-0.3618084356399903
-0.35596721729409525,-0.35596721729409525
-0.35596721729409525,-0.35596721729409525
-0.35596721729409525,-0.35596721729409525
-0.36675100500959384,-0.36675100500959384
-0.35596721729409525,-0.35596721729409525
-0.33170369493422347,-0.33170369493422347
-0.29890300729958197,-0.29890300729958197
-0.29396043792997845,-0.29396043792997845
-0.29890300729958197,-0.29890300729958197
-0.30833882155064324,-0.30833882155064324
-0.29890300729958197,-0.29890300729958197
-0.29710570934699887,-0.29710570934699887
-0.29890300729958197,-0.29890300729958197
-0.31013611950322634,-0.31013611950322634
-0.29890300729958197,-0.29890300729958197
-0.27553813391600174,-0.27553813391600174
-0.2413894728169229,-0.2413894728169229
-0.23240298305400744,-0.23240298305400744
-0.2413894728169229,-0.2413894728169229
-0.2746394849397102,-0.2746394849397102
-0.29890300729958197,-0.29890300729958197
-0.31418003989653825,-0.31418003989653825
-0.29890300729958197,-0.29890300729958197
-0.27374083596341864,-0.27374083596341864
-0.2413894728169229,-0.2413894728169229
-0.23554825447102784,-0.23554825447102784
-0.2413894728169229,-0.2413894728169229
-0.2562171809257334,-0.2562171809257334
-0.2413894728169229,-0.2413894728169229
-0.21532865250446803,-0.21532865250446803
-0.18432526282240963,-0.18432526282240963
-0.18162931589353498,-0.18162931589353498
-0.18432526282240963,-0.18432526282240963
-0.191514454632742,-0.191514454632742
-0.18432526282240963,-0.18432526282240963
-0.1865718852631385,-0.1865718852631385
-0.18432526282240963,-0.18432526282240963
-0.18926783219201315,-0.18926783219201315
-0.18432526282240963,-0.18432526282240963
-0.18791985872757583,-0.18791985872757583
-0.18432526282240963,-0.18432526282240963
-0.1883691832157216,-0.1883691832157216
-0.18432526282240963,-0.18432526282240963
-0.18881850770386738,-0.18881850770386738
-0.18432526282240963,-0.18432526282240963
-0.18926783219201315,-0.18926783219201315
-0.18432526282240963,-0.18432526282240963
-0.17264282613061951,-0.17264282613061951
-0.12726105282789635,-0.12726105282789635
-0.08547387543033937,-0.08547387543033937
-0.07019684283338307,-0.07019684283338307
-0.1038961794443161,-0.1038961794443161
-0.12726105282789635,-0.12726105282789635
-0.11692658960054354,-0.11692658960054354
-0.07019684283338307,-0.07019684283338307
-0.05267318779569788,-0.05267318779569788
-0.07019684283338307,-0.07019684283338307
-0.11198402023094003,-0.11198402023094003
-0.12726105282789635,-0.12726105282789635
-0.13085564873306255,-0.13085564873306255
-0.12726105282789635,-0.12726105282789635
-0.13714619156710336,-0.13714619156710336
-0.12726105282789635,-0.12726105282789635
-0.10434550393246188,-0.10434550393246188
-0.07019684283338307,-0.07019684283338307
-0.064355624487488,-0.064355624487488
-0.07019684283338307,-0.07019684283338307
-0.08098063054888163,-0.08098063054888163
-0.07019684283338307,-0.07019684283338307
-0.06750089590450842,-0.06750089590450842
-0.07019684283338307,-0.07019684283338307
-0.08232860401331896,-0.08232860401331896
-0.07019684283338307,-0.07019684283338307
-0.06165967755861336,-0.06165967755861336
-0.07019684283338307,-0.07019684283338307
-0.11108537125464849,-0.11108537125464849
-0.12726105282789635,-0.12726105282789635
-0.10973739779021116,-0.10973739779021116
-0.07019684283338307,-0.07019684283338307
-0.06345697551119646,-0.06345697551119646
-0.07019684283338307,-0.07019684283338307
-0.07918333259629853,-0.07918333259629853
-0.07019684283338307,-0.07019684283338307
-0.07244346527411193,-0.07244346527411193
-0.07019684283338307,-0.07019684283338307
-0.0728927897622577,-0.0728927897622577
-0.07019684283338307,-0.07019684283338307
-0.07873400810815276,-0.07873400810815276
-0.07019684283338307,-0.07019684283338307
-0.06525427346377954,-0.06525427346377954
-0.07019684283338307,-0.07019684283338307
-0.09131509377623444,-0.09131509377623444
-0.07019684283338307,-0.07019684283338307
-0.029308314412117637,-0.029308314412117637
-0.013132632838869777,-0.013132632838869777
-0.0540211612601352,-0.0540211612601352
-0.07019684283338307,-0.07019684283338307
-0.042788049056490855,-0.042788049056490855
-0.013132632838869777,-0.013132632838869777
-0.043686698032782405,-0.043686698032782405
-0.07019684283338307,-0.07019684283338307
-0.053122512283843654,-0.053122512283843654
-0.013132632838869777,-0.013132632838869777
-0.03155493685284651,-0.03155493685284651
-0.07019684283338307,-0.07019684283338307
-0.07244346527411193,-0.07244346527411193
-0.013132632838869777,-0.013132632838869777
0.030901166999416065,0.030901166999416065
0.043931577155643504,0.043931577155643504
0.04887414652524702,0.04887414652524702
0.1009957871501568,0.1009957871501568
0.15221877879877502,0.15221877879877502
0.15805999714467006,0.15805999714467006
0.11133025037750958,0.11133025037750958
0.1009957871501568,0.1009957871501568
0.13424579927294406,0.13424579927294406
0.15805999714467006,0.15805999714467006
0.10638768100790608,0.10638768100790608
0.043931577155643504,0.043931577155643504
0.021016028260209037,0.021016028260209037
0.043931577155643504,0.043931577155643504
0.06190455668147446,0.06190455668147446
0.1009957871501568,0.1009957871501568
0.14817485840546304,0.14817485840546304
0.15805999714467006,0.15805999714467006
0.07763091376657655,0.07763091376657655
-0.013132632838869777,-0.013132632838869777
-0.04683196944980282,-0.04683196944980282
-0.013132632838869777,-0.013132632838869777
0.017421432355042846,0.017421432355042846
0.043931577155643504,0.043931577155643504
0.052918066918558986,0.052918066918558986
0.043931577155643504,0.043931577155643504
0.001695075269940761,0.001695075269940761
-0.013132632838869777,-0.013132632838869777
-0.0041461430759543,-0.0041461430759543
-0.013132632838869777,-0.013132632838869777
-0.09670698763398372,-0.09670698763398372
-0.18432526282240963,-0.18432526282240963
-0.21667662596890536,-0.21667662596890536
-0.18432526282240963,-0.18432526282240963
-0.17084552817803642,-0.17084552817803642
-0.18432526282240963,-0.18432526282240963
-0.2049941892771152,-0.2049941892771152
-0.18432526282240963,-0.18432526282240963
-0.15466984660478855,-0.15466984660478855
-0.12726105282789635,-0.12726105282789635
-0.12905835078047945,-0.12905835078047945
-0.12726105282789635,-0.12726105282789635
-0.11962253652941819,-0.11962253652941819
-0.07019684283338307,-0.07019684283338307
-0.033801559293575374,-0.033801559293575374
-0.013132632838869777,-0.013132632838869777
-0.027960340947680316,-0.027960340947680316
-0.013132632838869777,-0.013132632838869777
-0.004595467564100074,-0.004595467564100074
-0.013132632838869777,-0.013132632838869777
-0.03964277763947044,-0.03964277763947044
-0.013132632838869777,-0.013132632838869777
0.034495762904582256,0.034495762904582256
0.043931577155643504,0.043931577155643504
0.001245750781794987,0.001245750781794987
0.043931577155643504,0.043931577155643504
0.23219853768872276,0.23219853768872276
0.44383037160538225,0.44383037160538225
0.45416483483273506,0.45416483483273506
0.38676616161086896,0.38676616161086896
0.7615027847244444,0.7615027847244444
2.0429762249161914,2.0429762249161914
3.9566492199290426,3.9566492199290426
5.698680260470208,5.698680260470208
6.693934001713097,6.693934001713097
7.012055739320305,7.012055739320305
6.7748124095793365,6.7748124095793365
5.812808680459234,5.812808680459234
4.0563992562974045,4.0563992562974045
2.1000404349107047,2.1000404349107047
0.7336446664594064,0.7336446664594064
0.21512420713918334,0.21512420713918334
0.14278296454771375,0.14278296454771375
0.1009957871501568,0.1009957871501568
-0.03694683071059579,-0.03694683071059579
-0.18432526282240963,-0.18432526282240963
-0.2998016562758735,-0.2998016562758735
-0.35596721729409525,-0.35596721729409525
-0.38697060697615365,-0.38697060697615365
-0.41303142728860853,-0.41303142728860853
-0.45616657815060285,-0.45616657815060285
-0.4700956372831218,-0.4700956372831218
-0.46784901484239294,-0.46784901484239294
-0.4700956372831218,-0.4700956372831218
-0.5123321391688246,-0.5123321391688246
-0.5271598472776351,-0.5271598472776351
-0.5136801126332619,-0.5136801126332619
-0.4700956372831218,-0.4700956372831218
-0.4665010413779556,-0.4665010413779556
-0.4700956372831218,-0.4700956372831218
-0.4795314515341831,-0.4795314515341831
-0.4700956372831218,-0.4700956372831218
-0.4718929352357049,-0.4718929352357049
-0.4700956372831218,-0.4700956372831218
-0.47324090870014224,-0.47324090870014224
-0.4700956372831218,-0.4700956372831218
-0.4777341535816,-0.4777341535816
-0.4700956372831218,-0.4700956372831218
-0.46605171688980984,-0.46605171688980984
-0.4700956372831218,-0.4700956372831218
-0.4889672657852443,-0.4889672657852443
-0.4700956372831218,-0.4700956372831218
-0.4305550823262937,-0.4305550823262937
-0.41303142728860853,-0.41303142728860853
-0.4521226577572909,-0.4521226577572909
-0.4700956372831218,-0.4700956372831218
-0.42965643335000214,-0.42965643335000214
-0.35596721729409525,-0.35596721729409525
-0.33574761532753544,-0.33574761532753544
-0.35596721729409525,-0.35596721729409525
-0.3770854682369466,-0.3770854682369466
-0.35596721729409525,-0.35596721729409525
-0.3272104500527657,-0.3272104500527657
-0.29890300729958197,-0.29890300729958197
-0.29485908690627,-0.29485908690627
-0.29890300729958197,-0.29890300729958197
-0.31418003989653825,-0.31418003989653825
-0.29890300729958197,-0.29890300729958197
-0.2526225850205673,-0.2526225850205673
-0.18432526282240963,-0.18432526282240963
-0.16185903841512092,-0.16185903841512092
-0.18432526282240963,-0.18432526282240963
-0.21802459943334268,-0.21802459943334268
-0.18432526282240963,-0.18432526282240963
-0.116027940624252,-0.116027940624252
-0.07019684283338307,-0.07019684283338307
-0.08232860401331896,-0.08232860401331896
-0.07019684283338307,-0.07019684283338307
-0.014929930791452873,-0.014929930791452873
0.043931577155643504,0.043931577155643504
0.04258360369120619,0.04258360369120619
0.043931577155643504,0.043931577155643504
0.08661740352949203,0.08661740352949203
0.15805999714467006,0.15805999714467006
0.18906338682672846,0.18906338682672846
0.21512420713918334,0.21512420713918334
0.2632019273707812,0.2632019273707812
0.3297019516163557,0.3297019516163557
0.3436310107488747,0.3436310107488747
0.3297019516163557,0.3297019516163557
0.32880330264006413,0.32880330264006413
0.38676616161086896,0.38676616161086896
0.45057023892756887,0.45057023892756887
0.5008945815998955,0.5008945815998955
0.5215635080546012,0.5215635080546012
0.5579587915944089,0.5579587915944089
0.6055871873378609,0.6055871873378609
0.6720872115834354,0.6720872115834354
0.7255568256727825,0.7255568256727825
0.7866649560606077,0.7866649560606077
0.8401345701499549,0.8401345701499549
0.9007933760496343,0.9007933760496343
0.9493204207693778,0.9493204207693778
1.014921796038661,1.014921796038661
1.076029926426486,1.076029926426486
1.1290502160276874,1.1290502160276874
1.1519657649231219,1.1519657649231219
1.1861144260222007,1.1861144260222007
1.2202630871212796,1.2202630871212796
1.2436279605048597,1.2436279605048597
1.2323948483012155,1.2323948483012155
1.2436279605048597,1.2436279605048597
1.275080674675064,1.275080674675064
1.300692170499373,1.300692170499373
1.2719354032580434,1.2719354032580434
1.2436279605048597,1.2436279605048597
1.237337417670819,1.237337417670819
1.2436279605048597,1.2436279605048597
1.1982461872021366,1.1982461872021366
1.1290502160276874,1.1290502160276874
1.0607528938295299,1.0607528938295299
1.014921796038661,1.014921796038661
0.9556109636034187,0.9556109636034187
0.9007933760496343,0.9007933760496343
0.8423811925906837,0.8423811925906837
0.7866649560606077,0.7866649560606077
0.7012933033129107,0.7012933033129107
0.6150230015889221,0.6150230015889221
0.5251581039597674,0.5251581039597674
0.44383037160538225,0.44383037160538225
0.34812425563033245,0.34812425563033245
0.2726377416218424,0.2726377416218424
0.20973231328143407,0.20973231328143407
0.15805999714467006,0.15805999714467006
0.0749349668377019,0.0749349668377019
-0.013132632838869777,-0.013132632838869777
-0.09041644479994289,-0.09041644479994289
-0.12726105282789635,-0.12726105282789635
-0.17399079959505684,-0.17399079959505684
-0.2413894728169229,-0.2413894728169229
-0.3245145031238911,-0.3245145031238911
-0.35596721729409525,-0.35596721729409525
-0.3532712703652206,-0.3532712703652206
-0.35596721729409525,-0.35596721729409525
-0.4134807517767543,-0.4134807517767543
-0.4700956372831218,-0.4700956372831218
-0.4921125372022647,-0.4921125372022647
-0.4700956372831218,-0.4700956372831218
-0.4647037434253725,-0.4647037434253725
-0.4700956372831218,-0.4700956372831218
-0.48043010051047463,-0.48043010051047463
-0.4700956372831218,-0.4700956372831218
-0.46964631279497604,-0.46964631279497604
-0.4700956372831218,-0.4700956372831218
-0.4777341535816,-0.4777341535816
-0.4700956372831218,-0.4700956372831218
-0.4705449617712676,-0.4705449617712676
-0.4700956372831218,-0.4700956372831218
-0.4795314515341831,-0.4795314515341831
-0.4700956372831218,-0.4700956372831218
-0.45122400878099933,-0.45122400878099933
-0.41303142728860853,-0.41303142728860853
-0.3824773620946959,-0.3824773620946959
-0.35596721729409525,-0.35596721729409525
-0.3532712703652206,-0.3532712703652206
-0.35596721729409525,-0.35596721729409525
-0.36675100500959384,-0.36675100500959384
-0.35596721729409525,-0.35596721729409525
-0.3330516683986608,-0.3330516683986608
-0.29890300729958197,-0.29890300729958197
-0.29036584202481225,-0.29036584202481225
-0.29890300729958197,-0.29890300729958197
-0.3137307154083925,-0.3137307154083925
-0.29890300729958197,-0.29890300729958197
-0.2863219216315003,-0.2863219216315003
-0.29890300729958197,-0.29890300729958197
-0.34383545611415933,-0.34383545611415933
-0.35596721729409525,-0.35596721729409525
-0.32990639698164037,-0.32990639698164037
-0.29890300729958197,-0.29890300729958197
-0.3200212582424333,-0.3200212582424333
-0.35596721729409525,-0.35596721729409525
-0.37304154784363464,-0.37304154784363464
-0.35596721729409525,-0.35596721729409525
-0.3519232969007833,-0.3519232969007833
-0.35596721729409525,-0.35596721729409525
-0.36450438256886497,-0.36450438256886497
-0.35596721729409525,-0.35596721729409525
-0.356416541782241,-0.356416541782241
-0.35596721729409525,-0.35596721729409525
-0.36135911115184455,-0.36135911115184455
-0.35596721729409525,-0.35596721729409525
-0.3586631642229699,-0.3586631642229699
-0.35596721729409525,-0.35596721729409525
-0.3600111376874072,-0.3600111376874072
-0.35596721729409525,-0.35596721729409525
-0.35956181319926145,-0.35956181319926145
-0.35596721729409525,-0.35596721729409525
-0.3591124887111157,-0.3591124887111157
-0.35596721729409525,-0.35596721729409525
-0.3600111376874072,-0.3600111376874072
-0.35596721729409525,-0.35596721729409525
-0.3586631642229699,-0.3586631642229699
-0.35596721729409525,-0.35596721729409525
-0.360460462175553,-0.360460462175553
-0.35596721729409525,-0.35596721729409525
-0.35776451524667835,-0.35776451524667835
-0.35596721729409525,-0.35596721729409525
-0.36495370705701075,-0.36495370705701075
-0.35596721729409525,-0.35596721729409525
-0.31957193375428755,-0.31957193375428755
-0.2413894728169229,-0.2413894728169229
-0.1847745873105554,-0.1847745873105554
-0.18432526282240963,-0.18432526282240963
-0.233301632030299,-0.233301632030299
-0.2413894728169229,-0.2413894728169229
-0.2072408117178441,-0.2072408117178441
-0.18432526282240963,-0.18432526282240963
-0.23599757895917362,-0.23599757895917362
-0.29890300729958197,-0.29890300729958197
-0.3218185561950164,-0.3218185561950164
-0.29890300729958197,-0.29890300729958197
-0.27868340533302216,-0.27868340533302216
-0.2413894728169229,-0.2413894728169229
-0.19960229541936594,-0.19960229541936594
-0.18432526282240963,-0.18432526282240963
-0.2395921748643398,-0.2395921748643398
-0.29890300729958197,-0.29890300729958197
-0.31777463580170445,-0.31777463580170445
-0.29890300729958197,-0.29890300729958197
-0.29890300729958197,-0.29890300729958197
-0.29890300729958197,-0.29890300729958197
-0.2966563848588531,-0.2966563848588531
-0.29890300729958197,-0.29890300729958197
-0.3348489663512439,-0.3348489663512439
-0.35596721729409525,-0.35596721729409525
-0.3546192438296579,-0.3546192438296579
-0.35596721729409525,-0.35596721729409525
-0.41123412933602543,-0.41123412933602543
-0.4700956372831218,-0.4700956372831218
-0.4925618616904105,-0.4925618616904105
-0.4700956372831218,-0.4700956372831218
-0.4633557699609352,-0.4633557699609352
-0.4700956372831218,-0.4700956372831218
-0.4808794249986204,-0.4808794249986204
-0.4700956372831218,-0.4700956372831218
-0.4687476638186845,-0.4687476638186845
-0.4700956372831218,-0.4700956372831218
-0.47998077602232886,-0.47998077602232886
-0.4700956372831218,-0.4700956372831218
-0.4516733332691451,-0.4516733332691451
-0.41303142728860853,-0.41303142728860853
-0.38202803760655013,-0.38202803760655013
-0.35596721729409525,-0.35596721729409525
-0.36135911115184455,-0.36135911115184455
-0.35596721729409525,-0.35596721729409525
-0.3618084356399903,-0.3618084356399903
-0.35596721729409525,-0.35596721729409525
-0.36675100500959384,-0.36675100500959384
-0.35596721729409525,-0.35596721729409525
-0.35237262138892905,-0.35237262138892905
-0.35596721729409525,-0.35596721729409525
-0.35776451524667835,-0.35776451524667835
-0.29890300729958197,-0.29890300729958197
-0.2225178443148004,-0.2225178443148004
-0.18432526282240963,-0.18432526282240963
-0.1730921506187653,-0.1730921506187653
-0.07019684283338307,-0.07019684283338307
0.08751605250578358,0.08751605250578358
0.15805999714467006,0.15805999714467006
0.14862418289360882,0.14862418289360882
0.44383037160538225,0.44383037160538225
1.4345908679668138,1.4345908679668138
3.1280948637882355,3.1280948637882355
5.04985569958771,5.04985569958771
6.612156944870566,6.612156944870566
7.336018695273408,7.336018695273408
7.012055739320305,7.012055739320305
5.712609319602727,5.712609319602727
3.8708282426931997,3.8708282426931997
2.067689071764209,2.067689071764209
0.7866649560606077,0.7866649560606077
0.13379647478479828,0.13379647478479828
-0.07019684283338307,-0.07019684283338307
-0.12411578141087592,-0.12411578141087592
-0.18432526282240963,-0.18432526282240963
-0.29575773588256155,-0.29575773588256155
-0.41303142728860853,-0.41303142728860853
-0.5204199799554485,-0.5204199799554485
-0.5842240572721484,-0.5842240572721484
-0.6210686653001019,-0.6210686653001019
-0.6412882672666617,-0.6412882672666617
-0.6776835508064694,-0.6776835508064694
-0.698352477261175,-0.698352477261175
-0.7073389670240904,-0.7073389670240904
-0.698352477261175,-0.698352477261175
-0.7104842384411109,-0.7104842384411109
-0.698352477261175,-0.698352477261175
-0.6790315242709066,-0.6790315242709066
-0.6412882672666617,-0.6412882672666617
-0.6394909693140786,-0.6394909693140786
-0.6412882672666617,-0.6412882672666617
-0.6480281345888482,-0.6480281345888482
-0.6412882672666617,-0.6412882672666617
-0.6457815121481194,-0.6457815121481194
-0.6412882672666617,-0.6412882672666617
-0.6412882672666617,-0.6412882672666617
-0.6412882672666617,-0.6412882672666617
-0.6543186774228891,-0.6543186774228891
-0.6412882672666617,-0.6412882672666617
-0.6125315000253322,-0.6125315000253322
-0.5842240572721484,-0.5842240572721484
-0.5887173021536061,-0.5887173021536061
-0.5842240572721484,-0.5842240572721484
-0.5617578328648597,-0.5617578328648597
-0.5271598472776351,-0.5271598472776351
-0.5235652513724689,-0.5235652513724689
-0.5271598472776351,-0.5271598472776351
-0.5316530921590928,-0.5316530921590928
-0.5271598472776351,-0.5271598472776351
-0.5356970125524048,-0.5356970125524048
-0.5271598472776351,-0.5271598472776351
-0.5033456494059091,-0.5033456494059091
-0.4700956372831218,-0.4700956372831218
-0.46784901484239294,-0.46784901484239294
-0.4700956372831218,-0.4700956372831218
-0.45886252507947745,-0.45886252507947745
-0.41303142728860853,-0.41303142728860853
-0.3757374947725093,-0.3757374947725093
-0.35596721729409525,-0.35596721729409525
-0.36135911115184455,-0.36135911115184455
-0.35596721729409525,-0.35596721729409525
-0.35596721729409525,-0.35596721729409525
-0.35596721729409525,-0.35596721729409525
-0.35237262138892905,-0.35237262138892905
-0.29890300729958197,-0.29890300729958197
-0.2279097381725497,-0.2279097381725497
-0.18432526282240963,-0.18432526282240963
-0.19600769951419975,-0.19600769951419975
-0.18432526282240963,-0.18432526282240963
-0.13085564873306255,-0.13085564873306255
-0.07019684283338307,-0.07019684283338307
-0.06884886936894574,-0.06884886936894574
-0.07019684283338307,-0.07019684283338307
-0.03200426134099228,-0.03200426134099228
0.043931577155643504,0.043931577155643504
0.08392145660061738,0.08392145660061738
0.1009957871501568,0.1009957871501568
0.11537417077082156,0.11537417077082156
0.15805999714467006,0.15805999714467006
0.203891094935539,0.203891094935539
0.2726377416218424,0.2726377416218424
0.3377897924029796,0.3377897924029796
0.38676616161086896,0.38676616161086896
0.4002458962552422,0.4002458962552422
0.44383037160538225,0.44383037160538225
0.5247087794716215,0.5247087794716215
0.6150230015889221,0.6150230015889221
0.6509689606405841,0.6509689606405841
0.6720872115834354,0.6720872115834354
0.710729117563972,0.710729117563972
0.7866649560606077,0.7866649560606077
0.8473237619602872,0.8473237619602872
0.9007933760496343,0.9007933760496343
0.9479724473049406,0.9479724473049406
1.014921796038661,1.014921796038661
1.0733339794976116,1.0733339794976116
1.1290502160276874,1.1290502160276874
1.1614015791741832,1.1614015791741832
1.1861144260222007,1.1861144260222007
1.1865637505103466,1.1865637505103466
1.1861144260222007,1.1861144260222007
1.1807225321644514,1.1807225321644514
1.1861144260222007,1.1861144260222007
1.1672427975200783,1.1672427975200783
1.1290502160276874,1.1290502160276874
1.0809724957960896,1.0809724957960896
1.071986006033174,1.071986006033174
1.0634488407584044,1.0634488407584044
1.014921796038661,1.014921796038661
0.9120264882532787,0.9120264882532787
0.843729166055121,0.843729166055121
0.8194656436952492,0.8194656436952492
0.7866649560606077,0.7866649560606077
0.6761311319767473,0.6761311319767473
0.5579587915944089,0.5579587915944089
0.4842695755385019,0.4842695755385019
0.44383037160538225,0.44383037160538225
0.3472256066540409,0.3472256066540409
0.21512420713918334,0.21512420713918334
0.09874916470942792,0.09874916470942792
0.043931577155643504,0.043931577155643504
-0.0054941165403916215,-0.0054941165403916215
-0.07019684283338307,-0.07019684283338307
-0.16320701187955824,-0.16320701187955824
-0.2413894728169229,-0.2413894728169229
-0.30968679501508056,-0.30968679501508056
-0.35596721729409525,-0.35596721729409525
-0.4134807517767543,-0.4134807517767543
-0.4700956372831218,-0.4700956372831218
-0.5213186289317401,-0.5213186289317401
-0.5271598472776351,-0.5271598472776351
-0.5217679534198858,-0.5217679534198858
-0.5271598472776351,-0.5271598472776351
-0.5658017532581716,-0.5658017532581716
-0.5842240572721484,-0.5842240572721484
-0.58512270624844,-0.58512270624844
-0.5842240572721484,-0.5842240572721484
-0.6197206918356645,-0.6197206918356645
-0.6412882672666617,-0.6412882672666617
-0.62870718159858,-0.62870718159858
-0.5842240572721484,-0.5842240572721484
-0.5720922960922125,-0.5720922960922125
-0.5842240572721484,-0.5842240572721484
-0.6017477123098336,-0.6017477123098336
-0.5842240572721484,-0.5842240572721484
-0.5563659390071104,-0.5563659390071104
-0.5271598472776351,-0.5271598472776351
-0.5235652513724689,-0.5235652513724689
-0.5271598472776351,-0.5271598472776351
-0.5383929594812794,-0.5383929594812794
-0.5271598472776351,-0.5271598472776351
-0.5042442983822006,-0.5042442983822006
-0.4700956372831218,-0.4700956372831218
-0.4611091475202063,-0.4611091475202063
-0.4700956372831218,-0.4700956372831218
-0.487619292320807,-0.487619292320807
-0.4700956372831218,-0.4700956372831218
-0.43819359862477186,-0.43819359862477186
-0.41303142728860853,-0.41303142728860853
-0.41797399665821205,-0.41797399665821205
-0.41303142728860853,-0.41303142728860853
-0.40584223547827614,-0.40584223547827614
-0.41303142728860853,-0.41303142728860853
-0.45481860468616553,-0.45481860468616553
-0.4700956372831218,-0.4700956372831218
-0.44583211492325003,-0.44583211492325003
-0.41303142728860853,-0.41303142728860853
-0.43325102925516834,-0.43325102925516834
-0.4700956372831218,-0.4700956372831218
-0.4871699678326612,-0.4871699678326612
-0.4700956372831218,-0.4700956372831218
-0.4669503658661014,-0.4669503658661014
-0.4700956372831218,-0.4700956372831218
-0.47638618011716266,-0.47638618011716266
-0.4700956372831218,-0.4700956372831218
-0.4741395576764338,-0.4741395576764338
-0.4700956372831218,-0.4700956372831218
-0.4700956372831218,-0.4700956372831218
-0.4700956372831218,-0.4700956372831218
-0.48357537192749506,-0.48357537192749506
-0.4700956372831218,-0.4700956372831218
-0.4395415720892092,-0.4395415720892092
-0.41303142728860853,-0.41303142728860853
-0.43504832720775144,-0.43504832720775144
-0.4700956372831218,-0.4700956372831218
-0.4903152392496816,-0.4903152392496816
-0.4700956372831218,-0.4700956372831218
-0.4444841414588127,-0.4444841414588127
-0.41303142728860853,-0.41303142728860853
-0.3878692559524452,-0.3878692559524452
-0.35596721729409525,-0.35596721729409525
-0.3478793765074713,-0.3478793765074713
-0.35596721729409525,-0.35596721729409525
-0.37259222335548886,-0.37259222335548886
-0.35596721729409525,-0.35596721729409525
-0.3254131521001826,-0.3254131521001826
-0.29890300729958197,-0.29890300729958197
-0.30294692769289394,-0.30294692769289394
-0.29890300729958197,-0.29890300729958197
-0.27688610738043906,-0.27688610738043906
-0.2413894728169229,-0.2413894728169229
-0.25127461155612996,-0.25127461155612996
-0.29890300729958197,-0.29890300729958197
-0.3532712703652206,-0.3532712703652206
-0.35596721729409525,-0.35596721729409525
-0.32855842351720305,-0.32855842351720305
-0.29890300729958197,-0.29890300729958197
-0.2998016562758735,-0.2998016562758735
-0.29890300729958197,-0.29890300729958197
-0.29710570934699887,-0.29710570934699887
-0.29890300729958197,-0.29890300729958197
-0.33170369493422347,-0.33170369493422347
-0.35596721729409525,-0.35596721729409525
-0.3478793765074713,-0.3478793765074713
-0.29890300729958197,-0.29890300729958197
-0.2764367828922933,-0.2764367828922933
-0.29890300729958197,-0.29890300729958197
-0.3478793765074713,-0.3478793765074713
-0.35596721729409525,-0.35596721729409525
-0.3442847806023051,-0.3442847806023051
-0.35596721729409525,-0.35596721729409525
-0.4206699435870867,-0.4206699435870867
-0.4700956372831218,-0.4700956372831218
-0.4813287494867662,-0.4813287494867662
-0.4700956372831218,-0.4700956372831218
-0.48043010051047463,-0.48043010051047463
-0.4700956372831218,-0.4700956372831218
-0.4372949496484803,-0.4372949496484803
-0.41303142728860853,-0.41303142728860853
-0.4449334659469585,-0.4449334659469585
-0.4700956372831218,-0.4700956372831218
-0.45436928019801975,-0.45436928019801975
-0.41303142728860853,-0.41303142728860853
-0.4098861558715881,-0.4098861558715881
-0.41303142728860853,-0.41303142728860853
-0.39595709673906915,-0.39595709673906915
-0.35596721729409525,-0.35596721729409525
-0.34877802548376285,-0.34877802548376285
-0.35596721729409525,-0.35596721729409525
-0.37034560091476004,-0.37034560091476004
-0.35596721729409525,-0.35596721729409525
-0.3609097866636988,-0.3609097866636988
-0.35596721729409525,-0.35596721729409525
-0.34563275406674243,-0.34563275406674243
-0.29890300729958197,-0.29890300729958197
-0.28048070328560526,-0.28048070328560526
-0.29890300729958197,-0.29890300729958197
-0.31193341745580944,-0.31193341745580944
-0.2413894728169229,-0.2413894728169229
-0.1641056608558498,-0.1641056608558498
-0.18432526282240963,-0.18432526282240963
-0.27868340533302216,-0.27868340533302216
-0.2413894728169229,-0.2413894728169229
-0.037396155198741565,-0.037396155198741565
0.15805999714467006,0.15805999714467006
0.23354651115316008,0.23354651115316008
0.5008945815998955,0.5008945815998955
1.4085300476543587,1.4085300476543587
3.071030653793722,3.071030653793722
5.026940150692276,5.026940150692276
6.612156944870566,6.612156944870566
7.31984301370016,7.31984301370016
7.012055739320305,7.012055739320305
5.802923541720028,5.802923541720028
4.04202087267674,4.04202087267674
2.2020370937197953,2.2020370937197953
0.7866649560606077,0.7866649560606077
0.0268572466061041,0.0268572466061041
-0.18432526282240963,-0.18432526282240963
-0.19600769951419975,-0.19600769951419975
-0.2413894728169229,-0.2413894728169229
-0.36495370705701075,-0.36495370705701075
-0.4700956372831218,-0.4700956372831218
-0.5365956615286963,-0.5365956615286963
-0.5842240572721484,-0.5842240572721484
-0.6516227304940144,-0.6516227304940144
-0.698352477261175,-0.698352477261175
-0.7149774833225686,-0.7149774833225686
-0.698352477261175,-0.698352477261175
-0.698352477261175,-0.698352477261175
-0.698352477261175,-0.698352477261175
-0.7086869404885278,-0.7086869404885278
-0.698352477261175,-0.698352477261175
-0.7064403180477988,-0.7064403180477988
-0.698352477261175,-0.698352477261175
-0.7010484241900496,-0.7010484241900496
-0.698352477261175,-0.698352477261175
-0.7104842384411109,-0.7104842384411109
-0.698352477261175,-0.698352477261175
-0.6713930079724285,-0.6713930079724285
-0.6412882672666617,-0.6412882672666617
-0.6430855652192448,-0.6430855652192448
-0.6412882672666617,-0.6412882672666617
-0.6233152877408307,-0.6233152877408307
-0.5842240572721484,-0.5842240572721484
-0.572990945068504,-0.572990945068504
-0.5842240572721484,-0.5842240572721484
-0.6021970367979793,-0.6021970367979793
-0.5842240572721484,-0.5842240572721484
-0.5536699920782358,-0.5536699920782358
-0.5271598472776351,-0.5271598472776351
-0.5289571452302182,-0.5289571452302182
-0.5271598472776351,-0.5271598472776351
-0.5271598472776351,-0.5271598472776351
-0.5271598472776351,-0.5271598472776351
-0.5406395819220083,-0.5406395819220083
-0.5271598472776351,-0.5271598472776351
-0.497504431060014,-0.497504431060014
-0.4700956372831218,-0.4700956372831218
-0.4759368556290169,-0.4759368556290169
-0.4700956372831218,-0.4700956372831218
-0.4444841414588127,-0.4444841414588127
-0.41303142728860853,-0.41303142728860853
-0.41617669870562896,-0.41617669870562896
-0.41303142728860853,-0.41303142728860853
-0.39056520288131985,-0.39056520288131985
-0.35596721729409525,-0.35596721729409525
-0.3550685683178037,-0.3550685683178037
-0.35596721729409525,-0.35596721729409525
-0.3402408602089932,-0.3402408602089932
-0.29890300729958197,-0.29890300729958197
-0.271044889034544,-0.271044889034544
-0.2413894728169229,-0.2413894728169229
-0.2157779769926138,-0.2157779769926138
-0.18432526282240963,-0.18432526282240963
-0.167700256761016,-0.167700256761016
-0.12726105282789635,-0.12726105282789635
-0.0710954918096746,-0.0710954918096746
-0.013132632838869777,-0.013132632838869777
-0.004595467564100074,-0.004595467564100074
-0.013132632838869777,-0.013132632838869777
-0.009088712445557812,-0.009088712445557812
0.043931577155643504,0.043931577155643504
0.10459038305532298,0.10459038305532298
0.15805999714467006,0.15805999714467006
0.18232351950454187,0.18232351950454187
0.21512420713918334,0.21512420713918334
0.25870868248932344,0.25870868248932344
0.3297019516163557,0.3297019516163557
0.3912594064923267,0.3912594064923267
0.44383037160538225,0.44383037160538225
0.4689925429415456,0.4689925429415456
0.5008945815998955,0.5008945815998955
0.5422324345093067,0.5422324345093067
0.6150230015889221,0.6150230015889221
0.6801750523700594,0.6801750523700594
0.7291514215779487,0.7291514215779487
0.7489216990563627,0.7489216990563627
0.7866649560606077,0.7866649560606077
0.8387865966855175,0.8387865966855175
0.9007933760496343,0.9007933760496343
0.9322460902198385,0.9322460902198385
0.9578575860441476,0.9578575860441476
0.9812224594277278,0.9812224594277278
1.014921796038661,1.014921796038661
1.0216616633608475,1.0216616633608475
1.014921796038661,1.014921796038661
1.0018913858824334,1.0018913858824334
1.014921796038661,1.014921796038661
1.0234589613134306,1.0234589613134306
1.014921796038661,1.014921796038661
0.9628001554137511,0.9628001554137511
0.9007933760496343,0.9007933760496343
0.8347426762922056,0.8347426762922056
0.7866649560606077,0.7866649560606077
0.7287020970898029,0.7287020970898029
0.6720872115834354,0.6720872115834354
0.6091817832430271,0.6091817832430271
0.5579587915944089,0.5579587915944089
0.4847189000266477,0.4847189000266477
0.38676616161086896,0.38676616161086896
0.2591580069774692,0.2591580069774692
0.15805999714467006,0.15805999714467006
0.08886402597022089,0.08886402597022089
0.043931577155643504,0.043931577155643504
-0.03155493685284651,-0.03155493685284651
-0.12726105282789635,-0.12726105282789635
-0.23195365856586167,-0.23195365856586167
-0.29890300729958197,-0.29890300729958197
-0.33934221123270164,-0.33934221123270164
-0.35596721729409525,-0.35596721729409525
-0.40000101713238106,-0.40000101713238106
-0.4700956372831218,-0.4700956372831218
-0.55322066759009,-0.55322066759009
-0.5842240572721484,-0.5842240572721484
-0.5819774348314195,-0.5819774348314195
-0.5842240572721484,-0.5842240572721484
-0.6408389427785159,-0.6408389427785159
-0.698352477261175,-0.698352477261175
-0.722166675132901,-0.722166675132901
-0.698352477261175,-0.698352477261175
-0.6898153119864052,-0.6898153119864052
-0.698352477261175,-0.698352477261175
-0.7140788343462771,-0.7140788343462771
-0.698352477261175,-0.698352477261175
-0.6893659874982595,-0.6893659874982595
-0.698352477261175,-0.698352477261175
-0.7212680261566095,-0.7212680261566095
-0.698352477261175,-0.698352477261175
-0.6561159753754722,-0.6561159753754722
-0.6412882672666617,-0.6412882672666617
-0.6830754446642187,-0.6830754446642187
-0.698352477261175,-0.698352477261175
-0.6547680019110349,-0.6547680019110349
-0.5842240572721484,-0.5842240572721484
-0.5702949981396294,-0.5702949981396294
-0.5842240572721484,-0.5842240572721484
-0.5783828389262533,-0.5783828389262533
-0.5271598472776351,-0.5271598472776351
-0.487619292320807,-0.487619292320807
-0.4700956372831218,-0.4700956372831218
-0.4741395576764338,-0.4741395576764338
-0.4700956372831218,-0.4700956372831218
-0.47324090870014224,-0.47324090870014224
-0.4700956372831218,-0.4700956372831218
-0.47279158421199646,-0.47279158421199646
-0.4700956372831218,-0.4700956372831218
-0.4759368556290169,-0.4759368556290169
-0.4700956372831218,-0.4700956372831218
-0.46964631279497604,-0.46964631279497604
-0.4700956372831218,-0.4700956372831218
-0.48043010051047463,-0.48043010051047463
-0.4700956372831218,-0.4700956372831218
-0.4611091475202063,-0.4611091475202063
-0.4700956372831218,-0.4700956372831218
-0.5105348412162415,-0.5105348412162415
-0.5271598472776351,-0.5271598472776351
-0.5087375432636584,-0.5087375432636584
-0.4700956372831218,-0.4700956372831218
-0.46380509444908097,-0.46380509444908097
-0.4700956372831218,-0.4700956372831218
-0.4759368556290169,-0.4759368556290169
-0.4700956372831218,-0.4700956372831218
-0.49301118617855627,-0.49301118617855627
-0.5271598472776351,-0.5271598472776351
-0.5509740451493611,-0.5509740451493611
-0.5271598472776351,-0.5271598472776351
-0.4925618616904105,-0.4925618616904105
-0.4700956372831218,-0.4700956372831218
-0.47638618011716266,-0.47638618011716266
-0.4700956372831218,-0.4700956372831218
-0.4629064454727894,-0.4629064454727894
-0.4700956372831218,-0.4700956372831218
-0.5109841657043872,-0.5109841657043872
-0.5271598472776351,-0.5271598472776351
-0.507389569799221,-0.507389569799221
-0.4700956372831218,-0.4700956372831218
-0.4669503658661014,-0.4669503658661014
-0.4700956372831218,-0.4700956372831218
-0.4718929352357049,-0.4718929352357049
-0.4700956372831218,-0.4700956372831218
-0.4844740209037866,-0.4844740209037866
-0.4700956372831218,-0.4700956372831218
-0.43504832720775144,-0.43504832720775144
-0.41303142728860853,-0.41303142728860853
-0.44538279043510426,-0.44538279043510426
-0.4700956372831218,-0.4700956372831218
-0.45436928019801975,-0.45436928019801975
-0.41303142728860853,-0.41303142728860853
-0.4085381824071508,-0.4085381824071508
-0.41303142728860853,-0.41303142728860853
-0.39775439469165225,-0.39775439469165225
-0.35596721729409525,-0.35596721729409525
-0.3460820785548882,-0.3460820785548882
-0.35596721729409525,-0.35596721729409525
-0.3528219458770748,-0.3528219458770748
-0.29890300729958197,-0.29890300729958197
-0.24723069116281798,-0.24723069116281798
-0.2413894728169229,-0.2413894728169229
-0.3002509807640193,-0.3002509807640193
-0.35596721729409525,-0.35596721729409525
-0.37618681926065506,-0.37618681926065506
-0.35596721729409525,-0.35596721729409525
-0.34922734997190863,-0.34922734997190863
-0.35596721729409525,-0.35596721729409525
-0.36809897847403117,-0.36809897847403117
-0.35596721729409525,-0.35596721729409525
-0.3483287009956171,-0.3483287009956171
-0.35596721729409525,-0.35596721729409525
-0.3914638518576114,-0.3914638518576114
-0.41303142728860853,-0.41303142728860853
-0.40539291099013036,-0.40539291099013036
-0.35596721729409525,-0.35596721729409525
-0.312832066432101,-0.312832066432101
-0.29890300729958197,-0.29890300729958197
-0.3290077480053488,-0.3290077480053488
-0.35596721729409525,-0.35596721729409525
-0.36630168052144807,-0.36630168052144807
-0.35596721729409525,-0.35596721729409525
-0.37124424989105154,-0.37124424989105154
-0.41303142728860853,-0.41303142728860853
-0.48043010051047463,-0.48043010051047463
-0.5271598472776351,-0.5271598472776351
-0.5455821512916118,-0.5455821512916118
-0.5271598472776351,-0.5271598472776351
-0.5181733575147196,-0.5181733575147196
-0.5271598472776351,-0.5271598472776351
-0.5482780982204865,-0.5482780982204865
-0.5271598472776351,-0.5271598472776351
-0.48806861680895275,-0.48806861680895275
-0.4700956372831218,-0.4700956372831218
-0.5051429473584922,-0.5051429473584922
-0.5271598472776351,-0.5271598472776351
-0.5109841657043872,-0.5109841657043872
-0.4700956372831218,-0.4700956372831218
-0.46380509444908097,-0.46380509444908097
-0.4700956372831218,-0.4700956372831218
-0.48177807397491196,-0.48177807397491196
-0.4700956372831218,-0.4700956372831218
-0.4813287494867662,-0.4813287494867662
-0.4700956372831218,-0.4700956372831218
-0.43280170476702257,-0.43280170476702257
-0.35596721729409525,-0.35596721729409525
-0.33215301942236924,-0.33215301942236924
-0.35596721729409525,-0.35596721729409525
-0.384274660047279,-0.384274660047279
-0.35596721729409525,-0.35596721729409525
-0.3168759868254129,-0.3168759868254129
-0.29890300729958197,-0.29890300729958197
-0.30429490115733127,-0.30429490115733127
-0.2413894728169229,-0.2413894728169229
-0.06076102858232181,-0.06076102858232181
0.15805999714467006,0.15805999714467006
0.17783027462308412,0.17783027462308412
0.1009957871501568,0.1009957871501568
0.6244588158399834,0.6244588158399834
2.385810809371417,2.385810809371417
4.819352237168928,4.819352237168928
6.555092734876053,6.555092734876053
7.027332771917261,7.027332771917261
7.012055739320305,7.012055739320305
7.023288851523949,7.023288851523949
6.383900104892513,6.383900104892513
4.466632513974496,4.466632513974496
2.1000404349107047,2.1000404349107047
0.5930061016697792,0.5930061016697792
0.15805999714467006,0.15805999714467006
0.03269846495199916,0.03269846495199916
-0.18432526282240963,-0.18432526282240963
-0.35416991934151215,-0.35416991934151215
-0.41303142728860853,-0.41303142728860853
-0.5406395819220083,-0.5406395819220083
-0.698352477261175,-0.698352477261175
-0.741936952611315,-0.741936952611315
-0.698352477261175,-0.698352477261175
-0.7365450587535657,-0.7365450587535657
-0.8129302217383473,-0.8129302217383473
-0.8201194135486797,-0.8201194135486797
-0.755866011743834,-0.755866011743834
-0.7414876281231693,-0.7414876281231693
-0.755866011743834,-0.755866011743834
-0.7720416933170818,-0.7720416933170818
-0.755866011743834,-0.755866011743834
-0.7630552035541663,-0.7630552035541663
-0.755866011743834,-0.755866011743834
-0.7356464097772741,-0.7356464097772741
-0.698352477261175,-0.698352477261175
-0.6920619344271342,-0.6920619344271342
-0.698352477261175,-0.698352477261175
-0.7073389670240904,-0.7073389670240904
-0.698352477261175,-0.698352477261175
-0.7014977486781954,-0.7014977486781954
-0.698352477261175,-0.698352477261175
-0.6835247691523644,-0.6835247691523644
-0.6412882672666617,-0.6412882672666617
-0.6219673142763934,-0.6219673142763934
-0.6412882672666617,-0.6412882672666617
-0.6911632854508426,-0.6911632854508426
-0.698352477261175,-0.698352477261175
-0.6529707039584518,-0.6529707039584518
-0.5842240572721484,-0.5842240572721484
-0.5653524287700259,-0.5653524287700259
-0.5842240572721484,-0.5842240572721484
-0.6066902816794371,-0.6066902816794371
-0.5842240572721484,-0.5842240572721484
-0.5509740451493611,-0.5509740451493611
-0.5271598472776351,-0.5271598472776351
-0.5325517411353844,-0.5325517411353844
-0.5271598472776351,-0.5271598472776351
-0.5087375432636584,-0.5087375432636584
-0.4700956372831218,-0.4700956372831218
-0.4426868435062296,-0.4426868435062296
-0.41303142728860853,-0.41303142728860853
-0.3874199314642994,-0.3874199314642994
-0.35596721729409525,-0.35596721729409525
-0.35057532343634595,-0.35057532343634595
-0.35596721729409525,-0.35596721729409525
-0.3537205948533664,-0.3537205948533664
-0.29890300729958197,-0.29890300729958197
-0.2297070361251328,-0.2297070361251328
-0.18432526282240963,-0.18432526282240963
-0.19061580565645045,-0.19061580565645045
-0.18432526282240963,-0.18432526282240963
-0.14253808542485266,-0.14253808542485266
-0.07019684283338307,-0.07019684283338307
-0.031105612364700733,-0.031105612364700733
-0.013132632838869777,-0.013132632838869777
0.001245750781794987,0.001245750781794987
0.043931577155643504,0.043931577155643504
0.07718158927843077,0.07718158927843077
0.1009957871501568,0.1009957871501568
0.11447552179453001,0.11447552179453001
0.15805999714467006,0.15805999714467006
0.21377623367474605,0.21377623367474605
0.2726377416218424,0.2726377416218424
0.3004958598868804,0.3004958598868804
0.3297019516163557,0.3297019516163557
0.37014115554947535,0.37014115554947535
0.44383037160538225,0.44383037160538225
0.5067357999457907,0.5067357999457907
0.5579587915944089,0.5579587915944089
0.5970500220630912,0.5970500220630912
0.6720872115834354,0.6720872115834354
0.7619521092125902,0.7619521092125902
0.843729166055121,0.843729166055121
0.8760805292016167,0.8760805292016167
0.9007933760496343,0.9007933760496343
0.9407832554946082,0.9407832554946082
1.014921796038661,1.014921796038661
1.0629995162702586,1.0629995162702586
1.071986006033174,1.071986006033174
1.0531143775310516,1.0531143775310516
1.071986006033174,1.071986006033174
1.1088306140611277,1.1088306140611277
1.1290502160276874,1.1290502160276874
1.0975975018574833,1.0975975018574833
1.071986006033174,1.071986006033174
1.0665941121754248,1.0665941121754248
1.071986006033174,1.071986006033174
1.0427799143036989,1.0427799143036989
1.014921796038661,1.014921796038661
0.9911075981669348,0.9911075981669348
0.9578575860441476,0.9578575860441476
0.8733845822727421,0.8733845822727421
0.7866649560606077,0.7866649560606077
0.7183676338624501,0.7183676338624501
0.6720872115834354,0.6720872115834354
0.6082831342667355,0.6082831342667355
0.5579587915944089,0.5579587915944089
0.5103303958509569,0.5103303958509569
0.44383037160538225,0.44383037160538225
0.32341140878231484,0.32341140878231484
0.21512420713918334,0.21512420713918334
0.1454789114765884,0.1454789114765884
0.1009957871501568,0.1009957871501568
0.018320081331334396,0.018320081331334396
-0.07019684283338307,-0.07019684283338307
-0.1420887609367069,-0.1420887609367069
-0.18432526282240963,-0.18432526282240963
-0.24408541974579756,-0.24408541974579756
-0.29890300729958197,-0.29890300729958197
-0.34069018469713896,-0.34069018469713896
-0.35596721729409525,-0.35596721729409525
-0.384274660047279,-0.384274660047279
-0.41303142728860853,-0.41303142728860853
-0.44718008838768736,-0.44718008838768736
-0.4700956372831218,-0.4700956372831218
-0.5046936228703464,-0.5046936228703464
-0.5271598472776351,-0.5271598472776351
-0.5397409329457168,-0.5397409329457168
-0.5271598472776351,-0.5271598472776351
-0.525362549325052,-0.525362549325052
-0.5271598472776351,-0.5271598472776351
-0.539291608457571,-0.539291608457571
-0.5271598472776351,-0.5271598472776351
-0.5037949738940548,-0.5037949738940548
-0.4700956372831218,-0.4700956372831218
-0.46380509444908097,-0.46380509444908097
-0.4700956372831218,-0.4700956372831218
-0.48402469641564083,-0.48402469641564083
-0.4700956372831218,-0.4700956372831218
-0.4462814394113958,-0.4462814394113958
-0.41303142728860853,-0.41303142728860853
-0.39056520288131985,-0.39056520288131985
-0.35596721729409525,-0.35596721729409525
-0.3254131521001826,-0.3254131521001826
-0.29890300729958197,-0.29890300729958197
-0.2998016562758735,-0.2998016562758735
-0.29890300729958197,-0.29890300729958197
-0.2854232726552087,-0.2854232726552087
-0.2413894728169229,-0.2413894728169229
-0.20589283825340676,-0.20589283825340676
-0.18432526282240963,-0.18432526282240963
-0.1883691832157216,-0.1883691832157216
-0.18432526282240963,-0.18432526282240963
-0.1847745873105554,-0.1847745873105554
-0.18432526282240963,-0.18432526282240963
-0.19421040156161665,-0.19421040156161665
-0.18432526282240963,-0.18432526282240963
-0.17668674652393146,-0.17668674652393146
-0.18432526282240963,-0.18432526282240963
-0.2243151422673835,-0.2243151422673835
-0.2413894728169229,-0.2413894728169229
-0.22296716880294618,-0.22296716880294618
-0.18432526282240963,-0.18432526282240963
-0.19421040156161665,-0.19421040156161665
-0.2413894728169229,-0.2413894728169229
-0.29485908690627,-0.29485908690627
-0.29890300729958197,-0.29890300729958197
-0.27508880942785596,-0.27508880942785596
-0.2413894728169229,-0.2413894728169229
-0.23554825447102784,-0.23554825447102784
-0.2413894728169229,-0.2413894728169229
-0.27014624005825244,-0.27014624005825244
-0.29890300729958197,-0.29890300729958197
-0.3209199072187249,-0.3209199072187249
-0.29890300729958197,-0.29890300729958197
-0.2616090747834827,-0.2616090747834827
-0.2413894728169229,-0.2413894728169229
-0.2728421869871271,-0.2728421869871271
-0.29890300729958197,-0.29890300729958197
-0.2899165175366665,-0.2899165175366665
-0.2413894728169229,-0.2413894728169229
-0.20589283825340676,-0.20589283825340676
-0.18432526282240963,-0.18432526282240963
-0.19960229541936594,-0.19960229541936594
-0.2413894728169229,-0.2413894728169229
-0.2980043583232904,-0.2980043583232904
-0.29890300729958197,-0.29890300729958197
-0.2620583992716285,-0.2620583992716285
-0.2413894728169229,-0.2413894728169229
-0.2795820543093137,-0.2795820543093137
-0.29890300729958197,-0.29890300729958197
-0.27329151147527286,-0.27329151147527286
-0.2413894728169229,-0.2413894728169229
-0.27014624005825244,-0.27014624005825244
-0.29890300729958197,-0.29890300729958197
-0.28497394816706295,-0.28497394816706295
-0.2413894728169229,-0.2413894728169229
-0.2382442013999025,-0.2382442013999025
-0.2413894728169229,-0.2413894728169229
-0.22206851982665463,-0.22206851982665463
-0.18432526282240963,-0.18432526282240963
-0.19825432195492862,-0.19825432195492862
-0.2413894728169229,-0.2413894728169229
-0.2705955645463982,-0.2705955645463982
-0.2413894728169229,-0.2413894728169229
-0.20319689132453214,-0.20319689132453214
-0.18432526282240963,-0.18432526282240963
-0.2103860831348645,-0.2103860831348645
-0.2413894728169229,-0.2413894728169229
-0.2616090747834827,-0.2616090747834827
-0.2413894728169229,-0.2413894728169229
-0.21263270557559338,-0.21263270557559338
-0.18432526282240963,-0.18432526282240963
-0.18342661384611808,-0.18342661384611808
-0.18432526282240963,-0.18432526282240963
-0.19061580565645045,-0.19061580565645045
-0.18432526282240963,-0.18432526282240963
-0.18702120975128428,-0.18702120975128428
-0.18432526282240963,-0.18432526282240963
-0.18926783219201315,-0.18926783219201315
-0.18432526282240963,-0.18432526282240963
-0.18747053423943005,-0.18747053423943005
-0.18432526282240963,-0.18432526282240963
-0.18971715668015893,-0.18971715668015893
-0.18432526282240963,-0.18432526282240963
-0.1865718852631385,-0.1865718852631385
-0.18432526282240963,-0.18432526282240963
-0.191514454632742,-0.191514454632742
-0.18432526282240963,-0.18432526282240963
-0.18387593833426386,-0.18387593833426386
-0.18432526282240963,-0.18432526282240963
-0.1969063484904913,-0.1969063484904913
-0.18432526282240963,-0.18432526282240963
-0.15826444250995475,-0.15826444250995475
-0.12726105282789635,-0.12726105282789635
-0.1263624038516048,-0.1263624038516048
-0.12726105282789635,-0.12726105282789635
-0.13085564873306255,-0.13085564873306255
-0.12726105282789635,-0.12726105282789635
-0.13759551605524914,-0.13759551605524914
-0.12726105282789635,-0.12726105282789635
-0.10254820597987878,-0.10254820597987878
-0.07019684283338307,-0.07019684283338307
-0.06839954488079997,-0.06839954488079997
-0.07019684283338307,-0.07019684283338307
-0.07424076322669503,-0.07424076322669503
-0.07019684283338307,-0.07019684283338307
-0.07918333259629853,-0.07918333259629853
-0.07019684283338307,-0.07019684283338307
-0.06210900204675913,-0.06210900204675913
-0.07019684283338307,-0.07019684283338307
-0.11198402023094003,-0.11198402023094003
-0.12726105282789635,-0.12726105282789635
-0.12186915897014705,-0.12186915897014705
-0.12726105282789635,-0.12726105282789635
-0.17354147510691106,-0.17354147510691106
-0.18432526282240963,-0.18432526282240963
-0.15242322416405968,-0.15242322416405968
-0.12726105282789635,-0.12726105282789635
-0.1641056608558498,-0.1641056608558498
-0.18432526282240963,-0.18432526282240963
-0.15781511802180898,-0.15781511802180898
-0.12726105282789635,-0.12726105282789635
-0.16185903841512092,-0.16185903841512092
-0.18432526282240963,-0.18432526282240963
-0.14388605888928999,-0.14388605888928999
-0.07019684283338307,-0.07019684283338307
-0.057615757165301394,-0.057615757165301394
-0.07019684283338307,-0.07019684283338307
-0.059413055117884486,-0.059413055117884486
-0.013132632838869777,-0.013132632838869777
-0.0014501961470796563,-0.0014501961470796563
-0.013132632838869777,-0.013132632838869777
-0.02616304299509722,-0.02616304299509722
-0.013132632838869777,-0.013132632838869777
-0.01358195732701555,-0.01358195732701555
-0.013132632838869777,-0.013132632838869777
-0.0010008716589338825,-0.0010008716589338825
0.043931577155643504,0.043931577155643504
0.06504982809849488,0.06504982809849488
0.043931577155643504,0.043931577155643504
-0.007740738981120491,-0.007740738981120491
-0.013132632838869777,-0.013132632838869777
0.018320081331334396,0.018320081331334396
0.043931577155643504,0.043931577155643504
0.013377511961730882,0.013377511961730882
-0.013132632838869777,-0.013132632838869777
-0.0014501961470796563,-0.0014501961470796563
0.043931577155643504,0.043931577155643504
0.05471536487114208,0.05471536487114208
0.043931577155643504,0.043931577155643504
0.03135049148756184,0.03135049148756184
0.043931577155643504,0.043931577155643504
0.04527955062008083,0.04527955062008083
0.043931577155643504,0.043931577155643504
0.03629306085716535,0.03629306085716535
0.043931577155643504,0.043931577155643504
0.04168495471491464,0.04168495471491464
0.043931577155643504,0.043931577155643504
0.038989007786039996,0.038989007786039996
0.043931577155643504,0.043931577155643504
0.03988765676233154,0.03988765676233154
0.043931577155643504,0.043931577155643504
0.04078630573862309,0.04078630573862309
0.043931577155643504,0.043931577155643504
0.03764103432160267,0.03764103432160267
0.043931577155643504,0.043931577155643504
0.04348225266749773,0.04348225266749773
0.043931577155643504,0.043931577155643504
0.033597113928290706,0.033597113928290706
0.043931577155643504,0.043931577155643504
0.04977279550153857,0.04977279550153857
0.043931577155643504,0.043931577155643504
0.022364001724646358,0.022364001724646358
0.043931577155643504,0.043931577155643504
0.0852694300650547,0.0852694300650547
0.1009957871501568,0.1009957871501568
0.05965793424074559,0.05965793424074559
0.043931577155643504,0.043931577155643504
0.07223901990882726,0.07223901990882726
0.1009957871501568,0.1009957871501568
0.06819509951551529,0.06819509951551529
0.043931577155643504,0.043931577155643504
0.06460050361034911,0.06460050361034911
0.1009957871501568,0.1009957871501568
0.076732264790285,0.076732264790285
0.043931577155643504,0.043931577155643504
0.052019417942267436,0.052019417942267436
0.1009957871501568,0.1009957871501568
0.11312754833009268,0.11312754833009268
0.1009957871501568,0.1009957871501568
0.08841470148207511,0.08841470148207511
0.1009957871501568,0.1009957871501568
0.1009957871501568,0.1009957871501568
0.1009957871501568,0.1009957871501568
0.09650254226869905,0.09650254226869905
0.1009957871501568,0.1009957871501568
0.09245862187538709,0.09245862187538709
0.1009957871501568,0.1009957871501568
0.12211403809300816,0.12211403809300816
0.15805999714467006,0.15805999714467006
0.16524918895500246,0.16524918895500246
0.15805999714467006,0.15805999714467006
0.14502958698844262,0.14502958698844262
0.15805999714467006,0.15805999714467006
0.1643505399787109,0.1643505399787109
0.15805999714467006,0.15805999714467006
0.1387390441544018,0.1387390441544018
0.15805999714467006,0.15805999714467006
0.1935566317081862,0.1935566317081862
0.21512420713918334,0.21512420713918334
0.19939785005408128,0.19939785005408128
0.21512420713918334,0.21512420713918334
0.2721884171336966,0.2721884171336966
0.3297019516163557,0.3297019516163557
0.3157728924838367,0.3157728924838367
0.2726377416218424,0.2726377416218424
0.23444516012945163,0.23444516012945163
0.21512420713918334,0.21512420713918334
0.1782795991112299,0.1782795991112299
0.15805999714467006,0.15805999714467006
0.1544654012395039,0.1544654012395039
0.15805999714467006,0.15805999714467006
0.14323228903585952,0.14323228903585952
0.15805999714467006,0.15805999714467006
0.18052622155195877,0.18052622155195877
0.15805999714467006,0.15805999714467006
0.05875928526445404,0.05875928526445404
-0.013132632838869777,-0.013132632838869777
-0.01897385118476484,-0.01897385118476484
-0.013132632838869777,-0.013132632838869777
-0.08996712031179711,-0.08996712031179711
-0.18432526282240963,-0.18432526282240963
-0.21982189738592575,-0.21982189738592575
-0.18432526282240963,-0.18432526282240963
-0.17174417715432796,-0.17174417715432796
-0.18432526282240963,-0.18432526282240963
-0.1847745873105554,-0.1847745873105554
-0.12726105282789635,-0.12726105282789635
-0.07693671015556967,-0.07693671015556967
-0.07019684283338307,-0.07019684283338307
-0.11243334471908581,-0.11243334471908581
-0.12726105282789635,-0.12726105282789635
-0.10794009983762806,-0.10794009983762806
-0.07019684283338307,-0.07019684283338307
-0.07334211425040348,-0.07334211425040348
-0.07019684283338307,-0.07019684283338307
-0.07379143873854925,-0.07379143873854925
-0.07019684283338307,-0.07019684283338307
-0.09131509377623444,-0.09131509377623444
-0.07019684283338307,-0.07019684283338307
-0.030206963388409187,-0.030206963388409187
-0.013132632838869777,-0.013132632838869777
-0.03784547968688734,-0.03784547968688734
-0.013132632838869777,-0.013132632838869777
0.0371917098334569,0.0371917098334569
0.043931577155643504,0.043931577155643504
0.0457288751082266,0.0457288751082266
0.21512420713918334,0.21512420713918334
0.44697564302240267,0.44697564302240267
0.44383037160538225,0.44383037160538225
0.23040123973613966,0.23040123973613966
0.44383037160538225,0.44383037160538225
1.6215098550354556,1.6215098550354556
3.5850578682324876,3.5850578682324876
5.586349138433764,5.586349138433764
7.012055739320305,7.012055739320305
7.530126874152383,7.530126874152383
7.012055739320305,7.012055739320305
5.533778173320709,5.533778173320709
3.5850578682324876,3.5850578682324876
1.801688974781911,1.801688974781911
0.6150230015889221,0.6150230015889221
0.05022211998968434,0.05022211998968434
-0.07019684283338307,-0.07019684283338307
-0.022119122601785255,-0.022119122601785255
-0.013132632838869777,-0.013132632838869777
-0.13624754259081182,-0.13624754259081182
-0.29890300729958197,-0.29890300729958197
-0.41842332114635783,-0.41842332114635783
-0.4700956372831218,-0.4700956372831218
-0.5087375432636584,-0.5087375432636584
-0.5271598472776351,-0.5271598472776351
-0.5347983635761132,-0.5347983635761132
-0.5271598472776351,-0.5271598472776351
-0.535247688064259,-0.535247688064259
-0.5271598472776351,-0.5271598472776351
-0.5267105227894894,-0.5267105227894894
-0.5271598472776351,-0.5271598472776351
-0.5684977001870463,-0.5684977001870463
-0.5842240572721484,-0.5842240572721484
-0.5711936471159209,-0.5711936471159209
-0.5271598472776351,-0.5271598472776351
-0.5163760595621365,-0.5163760595621365
-0.5271598472776351,-0.5271598472776351
-0.5415382308982999,-0.5415382308982999
-0.5271598472776351,-0.5271598472776351
-0.5204199799554485,-0.5204199799554485
-0.5271598472776351,-0.5271598472776351
-0.5455821512916118,-0.5455821512916118
-0.5271598472776351,-0.5271598472776351
-0.49346051066670205,-0.49346051066670205
-0.4700956372831218,-0.4700956372831218
-0.47998077602232886,-0.47998077602232886
-0.4700956372831218,-0.4700956372831218
-0.44044022106550074,-0.44044022106550074
-0.41303142728860853,-0.41303142728860853
-0.42156859256337825,-0.42156859256337825
-0.41303142728860853,-0.41303142728860853
-0.3806800641421128,-0.3806800641421128
-0.35596721729409525,-0.35596721729409525
-0.3865212824880079,-0.3865212824880079
-0.41303142728860853,-0.41303142728860853
-0.39910236815608957,-0.39910236815608957
-0.35596721729409525,-0.35596721729409525
-0.3501259989482002,-0.3501259989482002
-0.35596721729409525,-0.35596721729409525
-0.3442847806023051,-0.3442847806023051
-0.29890300729958197,-0.29890300729958197
-0.26789961761752357,-0.26789961761752357
-0.2413894728169229,-0.2413894728169229
-0.21802459943334268,-0.21802459943334268
-0.18432526282240963,-0.18432526282240963
-0.17803471998836878,-0.17803471998836878
-0.18432526282240963,-0.18432526282240963
-0.19780499746678284,-0.19780499746678284
-0.18432526282240963,-0.18432526282240963
-0.16320701187955824,-0.16320701187955824
-0.12726105282789635,-0.12726105282789635
-0.10075090802729568,-0.10075090802729568
-0.07019684283338307,-0.07019684283338307
-0.04817994291424014,-0.04817994291424014
-0.013132632838869777,-0.013132632838869777
0.01427616093802243,0.01427616093802243
0.043931577155643504,0.043931577155643504
0.06370185463405756,0.06370185463405756
0.1009957871501568,0.1009957871501568
0.13199917683221518,0.13199917683221518
0.15805999714467006,0.15805999714467006
0.17019175832460598,0.17019175832460598
0.21512420713918334,0.21512420713918334
0.2766816620151544,0.2766816620151544
0.3297019516163557,0.3297019516163557
0.3297019516163557,0.3297019516163557
0.3297019516163557,0.3297019516163557
0.36160399027470563,0.36160399027470563
0.44383037160538225,0.44383037160538225
0.5125770182916857,0.5125770182916857
0.5579587915944089,0.5579587915944089
0.5768304200965313,0.5768304200965313
0.6150230015889221,0.6150230015889221
0.6631007218205199,0.6631007218205199
0.7291514215779487,0.7291514215779487
0.7853169825961704,0.7853169825961704
0.843729166055121,0.843729166055121
0.8769791781779083,0.8769791781779083
0.9007933760496343,0.9007933760496343
0.9129251372295702,0.9129251372295702
0.9578575860441476,0.9578575860441476
1.016719093991244,1.016719093991244
1.071986006033174,1.071986006033174
1.0800738468197981,1.0800738468197981
1.071986006033174,1.071986006033174
1.0616515428058213,1.0616515428058213
1.071986006033174,1.071986006033174
1.0710873570568826,1.0710873570568826
1.071986006033174,1.071986006033174
1.0670434366635706,1.0670434366635706
1.071986006033174,1.071986006033174
1.0526650530429058,1.0526650530429058
1.014921796038661,1.014921796038661
0.9515670432101068,0.9515670432101068
0.9007933760496343,0.9007933760496343
0.8608034966046604,0.8608034966046604
0.843729166055121,0.843729166055121
0.8014926641694182,0.8014926641694182
0.7291514215779487,0.7291514215779487
0.628952060721441,0.628952060721441
0.5579587915944089,0.5579587915944089
0.5031412040406245,0.5031412040406245
0.44383037160538225,0.44383037160538225
0.34947222909476977,0.34947222909476977
0.2726377416218424,0.2726377416218424
0.21332690918660027,0.21332690918660027
0.15805999714467006,0.15805999714467006
0.06549915258664066,0.06549915258664066
-0.013132632838869777,-0.013132632838869777
-0.056717108189009845,-0.056717108189009845
-0.07019684283338307,-0.07019684283338307
-0.11782523857683509,-0.11782523857683509
-0.18432526282240963,-0.18432526282240963
-0.2553185319494419,-0.2553185319494419
-0.29890300729958197,-0.29890300729958197
-0.3384435622564101,-0.3384435622564101
-0.35596721729409525,-0.35596721729409525
-0.3622577601281361,-0.3622577601281361
-0.35596721729409525,-0.35596721729409525
-0.37798411721323816,-0.37798411721323816
-0.41303142728860853,-0.41303142728860853
-0.4552679291743113,-0.4552679291743113
-0.4700956372831218,-0.4700956372831218
-0.47683550460530844,-0.47683550460530844
-0.4700956372831218,-0.4700956372831218
-0.473690233188288,-0.473690233188288
-0.4700956372831218,-0.4700956372831218
-0.473690233188288,-0.473690233188288
-0.4700956372831218,-0.4700956372831218
-0.47683550460530844,-0.47683550460530844
-0.4700956372831218,-0.4700956372831218
-0.453919955709874,-0.453919955709874
-0.41303142728860853,-0.41303142728860853
-0.3793320906776755,-0.3793320906776755
-0.35596721729409525,-0.35596721729409525
-0.35956181319926145,-0.35956181319926145
-0.35596721729409525,-0.35596721729409525
-0.33934221123270164,-0.33934221123270164
-0.29890300729958197,-0.29890300729958197
-0.2818286767500426,-0.2818286767500426
-0.29890300729958197,-0.29890300729958197
-0.3442847806023051,-0.3442847806023051
-0.35596721729409525,-0.35596721729409525
-0.33395031737495234,-0.33395031737495234
-0.29890300729958197,-0.29890300729958197
-0.29575773588256155,-0.29575773588256155
-0.29890300729958197,-0.29890300729958197
-0.30114962974031084,-0.30114962974031084
-0.29890300729958197,-0.29890300729958197
-0.3254131521001826,-0.3254131521001826
-0.35596721729409525,-0.35596721729409525
-0.37438952130807196,-0.37438952130807196
-0.35596721729409525,-0.35596721729409525
-0.3294570724934946,-0.3294570724934946
-0.29890300729958197,-0.29890300729958197
-0.29036584202481225,-0.29036584202481225
-0.29890300729958197,-0.29890300729958197
-0.3330516683986608,-0.3330516683986608
-0.35596721729409525,-0.35596721729409525
-0.3658523560333023,-0.3658523560333023
-0.35596721729409525,-0.35596721729409525
-0.356416541782241,-0.356416541782241
-0.35596721729409525,-0.35596721729409525
-0.36135911115184455,-0.36135911115184455
-0.35596721729409525,-0.35596721729409525
-0.3582138397348241,-0.3582138397348241
-0.35596721729409525,-0.35596721729409525
-0.3609097866636988,-0.3609097866636988
-0.35596721729409525,-0.35596721729409525
-0.3582138397348241,-0.3582138397348241
-0.35596721729409525,-0.35596721729409525
-0.3618084356399903,-0.3618084356399903
-0.35596721729409525,-0.35596721729409525
-0.356416541782241,-0.356416541782241
-0.35596721729409525,-0.35596721729409525
-0.36450438256886497,-0.36450438256886497
-0.35596721729409525,-0.35596721729409525
-0.3519232969007833,-0.3519232969007833
-0.35596721729409525,-0.35596721729409525
-0.3734908723317804,-0.3734908723317804
-0.35596721729409525,-0.35596721729409525
-0.31957193375428755,-0.31957193375428755
-0.29890300729958197,-0.29890300729958197
-0.3312543704460777,-0.3312543704460777
-0.35596721729409525,-0.35596721729409525
-0.342487482649722,-0.342487482649722
-0.29890300729958197,-0.29890300729958197
-0.28856854407222915,-0.28856854407222915
-0.29890300729958197,-0.29890300729958197
-0.31013611950322634,-0.31013611950322634
-0.29890300729958197,-0.29890300729958197
-0.29755503383514464,-0.29755503383514464
-0.29890300729958197,-0.29890300729958197
-0.3056428746217686,-0.3056428746217686
-0.29890300729958197,-0.29890300729958197
-0.30070030525216507,-0.30070030525216507
-0.29890300729958197,-0.29890300729958197
-0.3033962521810397,-0.3033962521810397
-0.29890300729958197,-0.29890300729958197
-0.3020482787166024,-0.3020482787166024
-0.29890300729958197,-0.29890300729958197
-0.3020482787166024,-0.3020482787166024
-0.29890300729958197,-0.29890300729958197
-0.3038455766691855,-0.3038455766691855
-0.29890300729958197,-0.29890300729958197
-0.3002509807640193,-0.3002509807640193
-0.29890300729958197,-0.29890300729958197
-0.30609219910991436,-0.30609219910991436
-0.29890300729958197,-0.29890300729958197
-0.29710570934699887,-0.29710570934699887
-0.29890300729958197,-0.29890300729958197
-0.3123827419439552,-0.3123827419439552
-0.29890300729958197,-0.29890300729958197
-0.2705955645463982,-0.2705955645463982
-0.2413894728169229,-0.2413894728169229
-0.24363609525765179,-0.24363609525765179
-0.2413894728169229,-0.2413894728169229
-0.23869352588804826,-0.23869352588804826
-0.2413894728169229,-0.2413894728169229
-0.2777847563567306,-0.2777847563567306
-0.29890300729958197,-0.29890300729958197
-0.2854232726552087,-0.2854232726552087
-0.2413894728169229,-0.2413894728169229
-0.22880838714884125,-0.22880838714884125
-0.2413894728169229,-0.2413894728169229
-0.2598117768308996,-0.2598117768308996
-0.2413894728169229,-0.2413894728169229
-0.21263270557559338,-0.21263270557559338
-0.18432526282240963,-0.18432526282240963
-0.18342661384611808,-0.18342661384611808
-0.18432526282240963,-0.18432526282240963
-0.1901664811683047,-0.1901664811683047
-0.18432526282240963,-0.18432526282240963
-0.18747053423943005,-0.18747053423943005
-0.18432526282240963,-0.18432526282240963
-0.1883691832157216,-0.1883691832157216
-0.18432526282240963,-0.18432526282240963
-0.18971715668015893,-0.18971715668015893
-0.18432526282240963,-0.18432526282240963
-0.18567323628684695,-0.18567323628684695
-0.18432526282240963,-0.18432526282240963
-0.19286242809717932,-0.19286242809717932
-0.18432526282240963,-0.18432526282240963
-0.1811799914053892,-0.1811799914053892
-0.18432526282240963,-0.18432526282240963
-0.20184891786009482,-0.20184891786009482
-0.18432526282240963,-0.18432526282240963
-0.14927795274703926,-0.14927795274703926
-0.12726105282789635,-0.12726105282789635
-0.15781511802180898,-0.15781511802180898
-0.18432526282240963,-0.18432526282240963
-0.1748894485713484,-0.1748894485713484
-0.12726105282789635,-0.12726105282789635
-0.11198402023094003,-0.11198402023094003
-0.12726105282789635,-0.12726105282789635
-0.14792997928260193,-0.14792997928260193
-0.12726105282789635,-0.12726105282789635
-0.11108537125464849,-0.11108537125464849
-0.12726105282789635,-0.12726105282789635
-0.17623742203578568,-0.17623742203578568
-0.18432526282240963,-0.18432526282240963
-0.15601782006922588,-0.15601782006922588
-0.12726105282789635,-0.12726105282789635
-0.13759551605524914,-0.13759551605524914
-0.12726105282789635,-0.12726105282789635
-0.09086576928808866,-0.09086576928808866
-0.07019684283338307,-0.07019684283338307
-0.12501443038716747,-0.12501443038716747
-0.18432526282240963,-0.18432526282240963
-0.1865718852631385,-0.1865718852631385
-0.12726105282789635,-0.12726105282789635
-0.08772049787106824,-0.08772049787106824
-0.07019684283338307,-0.07019684283338307
-0.07064616732152884,-0.07064616732152884
-0.07019684283338307,-0.07019684283338307
-0.08277792850146473,-0.08277792850146473
-0.07019684283338307,-0.07019684283338307
-0.05626778370086407,-0.05626778370086407
-0.07019684283338307,-0.07019684283338307
-0.1227678079464386,-0.1227678079464386
-0.12726105282789635,-0.12726105282789635
-0.08772049787106824,-0.08772049787106824
-0.07019684283338307,-0.07019684283338307
-0.11917321204127242,-0.11917321204127242
-0.12726105282789635,-0.12726105282789635
-0.06525427346377954,-0.06525427346377954
-0.013132632838869777,-0.013132632838869777
-0.06525427346377954,-0.06525427346377954
-0.12726105282789635,-0.12726105282789635
-0.11872388755312664,-0.11872388755312664
-0.07019684283338307,-0.07019684283338307
-0.08816982235921401,-0.08816982235921401
-0.12726105282789635,-0.12726105282789635
-0.12231848345829283,-0.12231848345829283
-0.07019684283338307,-0.07019684283338307
-0.057615757165301394,-0.057615757165301394
-0.07019684283338307,-0.07019684283338307
-0.08098063054888163,-0.08098063054888163
-0.07019684283338307,-0.07019684283338307
-0.07513941220298657,-0.07513941220298657
-0.07019684283338307,-0.07019684283338307
-0.06480494897563377,-0.06480494897563377
-0.07019684283338307,-0.07019684283338307
-0.11108537125464849,-0.11108537125464849
-0.12726105282789635,-0.12726105282789635
-0.10659212637319075,-0.10659212637319075
-0.07019684283338307,-0.07019684283338307
-0.07334211425040348,-0.07334211425040348
-0.07019684283338307,-0.07019684283338307
-0.030206963388409187,-0.030206963388409187
0.043931577155643504,0.043931577155643504
0.06909374849180684,0.06909374849180684
0.043931577155643504,0.043931577155643504
0.011130889521002012,0.011130889521002012
0.043931577155643504,0.043931577155643504
0.10908362793678072,0.10908362793678072
0.15805999714467006,0.15805999714467006
0.15491472572764967,0.15491472572764967
0.15805999714467006,0.15805999714467006
0.18322216848083342,0.18322216848083342
0.21512420713918334,0.21512420713918334
0.19625257863706086,0.19625257863706086
0.15805999714467006,0.15805999714467006
0.13604309722552715,0.13604309722552715
0.15805999714467006,0.15805999714467006
0.17198905627718905,0.17198905627718905
0.15805999714467006,0.15805999714467006
0.10054646266201102,0.10054646266201102
0.043931577155643504,0.043931577155643504
0.012928187473585108,0.012928187473585108
0.043931577155643504,0.043931577155643504
0.08886402597022089,0.08886402597022089
0.1009957871501568,0.1009957871501568
0.044830226131935054,0.044830226131935054
-0.013132632838869777,-0.013132632838869777
-0.03425088378172115,-0.03425088378172115
-0.013132632838869777,-0.013132632838869777
-0.022119122601785255,-0.022119122601785255
-0.07019684283338307,-0.07019684283338307
-0.14433538337743576,-0.14433538337743576
-0.18432526282240963,-0.18432526282240963
-0.19645702400234552,-0.19645702400234552
-0.18432526282240963,-0.18432526282240963
-0.18522391179870118,-0.18522391179870118
-0.18432526282240963,-0.18432526282240963
-0.19061580565645045,-0.19061580565645045
-0.18432526282240963,-0.18432526282240963
-0.18791985872757583,-0.18791985872757583
-0.18432526282240963,-0.18432526282240963
-0.18926783219201315,-0.18926783219201315
-0.18432526282240963,-0.18432526282240963
-0.191514454632742,-0.191514454632742
-0.18432526282240963,-0.18432526282240963
-0.191514454632742,-0.191514454632742
-0.18432526282240963,-0.18432526282240963
-0.19376107707347087,-0.19376107707347087
-0.18432526282240963,-0.18432526282240963
-0.18926783219201315,-0.18926783219201315
-0.18432526282240963,-0.18432526282240963
-0.1730921506187653,-0.1730921506187653
-0.12726105282789635,-0.12726105282789635
-0.08727117338292247,-0.08727117338292247
-0.07019684283338307,-0.07019684283338307
-0.07513941220298657,-0.07513941220298657
-0.013132632838869777,-0.013132632838869777
0.14323228903585952,0.14323228903585952
0.3297019516163557,0.3297019516163557
0.3795769698005366,0.3795769698005366
0.3297019516163557,0.3297019516163557
0.5103303958509569,0.5103303958509569
1.3577563804938864,1.3577563804938864
2.8895035605828294,2.8895035605828294
4.670176507104531,4.670176507104531
6.146207450663399,6.146207450663399
7.012055739320305,7.012055739320305
7.04665372490753,7.04665372490753
6.0981297304318005,6.0981297304318005
4.3066729961946,4.3066729961946
2.328746599376904,2.328746599376904
0.8630501190453893,0.8630501190453893
0.15805999714467006,0.15805999714467006
-0.06480494897563377,-0.06480494897563377
-0.12726105282789635,-0.12726105282789635
-0.18702120975128428,-0.18702120975128428
-0.2413894728169229,-0.2413894728169229
-0.30294692769289394,-0.30294692769289394
-0.35596721729409525,-0.35596721729409525
-0.41662602319377473,-0.41662602319377473
-0.4700956372831218,-0.4700956372831218
-0.5190720064910112,-0.5190720064910112
-0.5271598472776351,-0.5271598472776351
-0.5226666023961773,-0.5226666023961773
-0.5271598472776351,-0.5271598472776351
-0.5689470246751921,-0.5689470246751921
-0.5842240572721484,-0.5842240572721484
-0.5707443226277752,-0.5707443226277752
-0.5271598472776351,-0.5271598472776351
-0.5397409329457168,-0.5397409329457168
-0.5842240572721484,-0.5842240572721484
-0.624663261205268,-0.624663261205268
-0.5842240572721484,-0.5842240572721484
-0.5105348412162415,-0.5105348412162415
-0.4700956372831218,-0.4700956372831218
-0.5010990269651802,-0.5010990269651802
-0.5271598472776351,-0.5271598472776351
-0.5123321391688246,-0.5123321391688246
-0.4700956372831218,-0.4700956372831218
-0.4629064454727894,-0.4629064454727894
-0.4700956372831218,-0.4700956372831218
-0.47638618011716266,-0.47638618011716266
-0.4700956372831218,-0.4700956372831218
-0.47863280255789153,-0.47863280255789153
-0.4700956372831218,-0.4700956372831218
-0.4444841414588127,-0.4444841414588127
-0.41303142728860853,-0.41303142728860853
-0.41482872524119163,-0.41482872524119163
-0.41303142728860853,-0.41303142728860853
-0.3928118253220487,-0.3928118253220487
-0.35596721729409525,-0.35596721729409525
-0.3496766744600544,-0.3496766744600544
-0.35596721729409525,-0.35596721729409525
-0.36450438256886497,-0.36450438256886497
-0.35596721729409525,-0.35596721729409525
-0.35956181319926145,-0.35956181319926145
-0.35596721729409525,-0.35596721729409525
-0.3402408602089932,-0.3402408602089932
-0.29890300729958197,-0.29890300729958197
-0.28227800123818836,-0.28227800123818836
-0.29890300729958197,-0.29890300729958197
-0.32855842351720305,-0.32855842351720305
-0.29890300729958197,-0.29890300729958197
-0.23285230754215322,-0.23285230754215322
-0.18432526282240963,-0.18432526282240963
-0.19376107707347087,-0.19376107707347087
-0.18432526282240963,-0.18432526282240963
-0.13265294668564562,-0.13265294668564562
-0.07019684283338307,-0.07019684283338307
-0.06525427346377954,-0.06525427346377954
-0.07019684283338307,-0.07019684283338307
-0.0540211612601352,-0.0540211612601352
-0.013132632838869777,-0.013132632838869777
0.006188320151398499,0.006188320151398499
0.043931577155643504,0.043931577155643504
0.10279308510273988,0.10279308510273988
0.15805999714467006,0.15805999714467006
0.15671202368023276,0.15671202368023276
0.15805999714467006,0.15805999714467006
0.19804987658964396,0.19804987658964396
0.2726377416218424,0.2726377416218424
0.30993167413794165,0.30993167413794165
0.3297019516163557,0.3297019516163557
0.3467762821658951,0.3467762821658951
0.38676616161086896,0.38676616161086896
0.42855333900842596,0.42855333900842596
0.5008945815998955,0.5008945815998955
0.5709892017506363,0.5709892017506363
0.6150230015889221,0.6150230015889221
0.6213135444229629,0.6213135444229629
0.6720872115834354,0.6720872115834354
0.7655467051177564,0.7655467051177564
0.843729166055121,0.843729166055121
0.8410332191262464,0.8410332191262464
0.843729166055121,0.843729166055121
0.907533243371821,0.907533243371821
1.014921796038661,1.014921796038661
1.0647968142228417,1.0647968142228417
1.071986006033174,1.071986006033174
1.0800738468197981,1.0800738468197981
1.1290502160276874,1.1290502160276874
1.1672427975200783,1.1672427975200783
1.1861144260222007,1.1861144260222007
1.1811718566525973,1.1811718566525973
1.1861144260222007,1.1861144260222007
1.185215777045909,1.185215777045909
1.1861144260222007,1.1861144260222007
1.1640975261030577,1.1640975261030577
1.1290502160276874,1.1290502160276874
1.0679420856398623,1.0679420856398623
1.014921796038661,1.014921796038661
0.973134618641104,0.973134618641104
0.9578575860441476,0.9578575860441476
0.9187663555754653,0.9187663555754653
0.843729166055121,0.843729166055121
0.73858723582901,0.73858723582901
0.6720872115834354,0.6720872115834354
0.6258067893044207,0.6258067893044207
0.5579587915944089,0.5579587915944089
0.4334959083780295,0.4334959083780295
0.3297019516163557,0.3297019516163557
0.26634719878780155,0.26634719878780155
0.21512420713918334,0.21512420713918334
0.12256336258115394,0.12256336258115394
0.043931577155643504,0.043931577155643504
-0.009538036933703586,-0.009538036933703586
-0.07019684283338307,-0.07019684283338307
-0.19196377912088777,-0.19196377912088777
-0.29890300729958197,-0.29890300729958197
-0.34698072753117976,-0.34698072753117976
-0.35596721729409525,-0.35596721729409525
-0.40719020894271346,-0.40719020894271346
-0.4700956372831218,-0.4700956372831218
-0.5136801126332619,-0.5136801126332619
-0.5271598472776351,-0.5271598472776351
-0.5599605349122766,-0.5599605349122766
-0.5842240572721484,-0.5842240572721484
-0.5900652756180434,-0.5900652756180434
-0.5842240572721484,-0.5842240572721484
-0.6296058305748715,-0.6296058305748715
-0.698352477261175,-0.698352477261175
-0.7383423567061488,-0.7383423567061488
-0.698352477261175,-0.698352477261175
-0.6475788101007025,-0.6475788101007025
-0.6412882672666617,-0.6412882672666617
-0.6893659874982595,-0.6893659874982595
-0.698352477261175,-0.698352477261175
-0.6502747570295772,-0.6502747570295772
-0.5842240572721484,-0.5842240572721484
-0.5747882430210871,-0.5747882430210871
-0.5842240572721484,-0.5842240572721484
-0.5720922960922125,-0.5720922960922125
-0.5271598472776351,-0.5271598472776351
-0.5127814636569703,-0.5127814636569703
-0.5271598472776351,-0.5271598472776351
-0.5464808002679034,-0.5464808002679034
-0.5271598472776351,-0.5271598472776351
-0.49660578208372247,-0.49660578208372247
-0.4700956372831218,-0.4700956372831218
-0.46964631279497604,-0.46964631279497604
-0.4700956372831218,-0.4700956372831218
-0.47503820665272534,-0.47503820665272534
-0.4700956372831218,-0.4700956372831218
-0.47279158421199646,-0.47279158421199646
-0.4700956372831218,-0.4700956372831218
-0.473690233188288,-0.473690233188288
-0.4700956372831218,-0.4700956372831218
-0.47458888216457956,-0.47458888216457956
-0.4700956372831218,-0.4700956372831218
-0.4700956372831218,-0.4700956372831218
-0.4700956372831218,-0.4700956372831218
-0.4957071331074309,-0.4957071331074309
-0.5271598472776351,-0.5271598472776351
-0.5496260716849238,-0.5496260716849238
-0.5271598472776351,-0.5271598472776351
-0.4907645637378274,-0.4907645637378274
-0.4700956372831218,-0.4700956372831218
-0.49660578208372247,-0.49660578208372247
-0.5271598472776351,-0.5271598472776351
-0.5410889064101541,-0.5410889064101541
-0.5271598472776351,-0.5271598472776351
-0.5231159268843232,-0.5231159268843232
-0.5271598472776351,-0.5271598472776351
-0.5541193165663816,-0.5541193165663816
-0.5842240572721484,-0.5842240572721484
-0.6080382551438744,-0.6080382551438744
-0.5842240572721484,-0.5842240572721484
-0.5437848533390287,-0.5437848533390287
-0.5271598472776351,-0.5271598472776351
-0.563105806329297,-0.563105806329297
-0.5842240572721484,-0.5842240572721484
-0.5649031042818801,-0.5649031042818801
-0.5271598472776351,-0.5271598472776351
-0.5419875553864456,-0.5419875553864456
-0.5842240572721484,-0.5842240572721484
-0.6107342020727491,-0.6107342020727491
-0.5842240572721484,-0.5842240572721484
-0.5500753961730696,-0.5500753961730696
-0.5271598472776351,-0.5271598472776351
-0.529406469718364,-0.529406469718364
-0.5271598472776351,-0.5271598472776351
-0.5298557942065097,-0.5298557942065097
-0.5271598472776351,-0.5271598472776351
-0.5330010656235301,-0.5330010656235301
-0.5271598472776351,-0.5271598472776351
-0.5271598472776351,-0.5271598472776351
-0.5271598472776351,-0.5271598472776351
-0.5379436349931337,-0.5379436349931337
-0.5271598472776351,-0.5271598472776351
-0.5024470004296175,-0.5024470004296175
-0.4700956372831218,-0.4700956372831218
-0.46560239240166407,-0.46560239240166407
-0.4700956372831218,-0.4700956372831218
-0.4777341535816,-0.4777341535816
-0.4700956372831218,-0.4700956372831218
-0.47099428625941336,-0.47099428625941336
-0.4700956372831218,-0.4700956372831218
-0.47503820665272534,-0.47503820665272534
-0.4700956372831218,-0.4700956372831218
-0.47279158421199646,-0.47279158421199646
-0.4700956372831218,-0.4700956372831218
-0.4741395576764338,-0.4741395576764338
-0.4700956372831218,-0.4700956372831218
-0.473690233188288,-0.473690233188288
-0.4700956372831218,-0.4700956372831218
-0.47324090870014224,-0.47324090870014224
-0.4700956372831218,-0.4700956372831218
-0.47458888216457956,-0.47458888216457956
-0.4700956372831218,-0.4700956372831218
-0.4718929352357049,-0.4718929352357049
-0.4700956372831218,-0.4700956372831218
-0.47638618011716266,-0.47638618011716266
-0.4700956372831218,-0.4700956372831218
-0.46964631279497604,-0.46964631279497604
-0.4700956372831218,-0.4700956372831218
-0.48043010051047463,-0.48043010051047463
-0.4700956372831218,-0.4700956372831218
-0.4629064454727894,-0.4629064454727894
-0.4700956372831218,-0.4700956372831218
-0.4939098351548478,-0.4939098351548478
-0.4700956372831218,-0.4700956372831218
-0.40763953343085924,-0.40763953343085924
-0.35596721729409525,-0.35596721729409525
-0.3752881702843635,-0.3752881702843635
-0.41303142728860853,-0.41303142728860853
-0.4283084598855649,-0.4283084598855649
-0.41303142728860853,-0.41303142728860853
-0.4157273742174832,-0.4157273742174832
-0.41303142728860853,-0.41303142728860853
-0.3937104742983403,-0.3937104742983403
-0.35596721729409525,-0.35596721729409525
-0.3483287009956171,-0.3483287009956171
-0.35596721729409525,-0.35596721729409525
-0.3654030315451565,-0.3654030315451565
-0.35596721729409525,-0.35596721729409525
-0.356416541782241,-0.356416541782241
-0.35596721729409525,-0.35596721729409525
-0.360460462175553,-0.360460462175553
-0.35596721729409525,-0.35596721729409525
-0.3600111376874072,-0.3600111376874072
-0.35596721729409525,-0.35596721729409525
-0.3573151907585326,-0.3573151907585326
-0.35596721729409525,-0.35596721729409525
-0.3640550580807192,-0.3640550580807192
-0.35596721729409525,-0.35596721729409525
-0.3519232969007833,-0.3519232969007833
-0.35596721729409525,-0.35596721729409525
-0.3734908723317804,-0.3734908723317804
-0.35596721729409525,-0.35596721729409525
-0.31957193375428755,-0.31957193375428755
-0.29890300729958197,-0.29890300729958197
-0.3308050459579319,-0.3308050459579319
-0.35596721729409525,-0.35596721729409525
-0.34338613162601356,-0.34338613162601356
-0.29890300729958197,-0.29890300729958197
-0.2876698950959376,-0.2876698950959376
-0.29890300729958197,-0.29890300729958197
-0.3123827419439552,-0.3123827419439552
-0.29890300729958197,-0.29890300729958197
-0.2944097624181242,-0.2944097624181242
-0.29890300729958197,-0.29890300729958197
-0.31193341745580944,-0.31193341745580944
-0.29890300729958197,-0.29890300729958197
-0.27553813391600174,-0.27553813391600174
