ECG,PPG
-1.1932691261173614,-1.1932691261173614
-0.638826722057926,-0.638826722057926
-0.5400467535186013,-0.5400467535186013
-0.6069622160774987,-0.6069622160774987
-0.5400467535186013,-0.5400467535186013
-0.638826722057926,-0.638826722057926
-0.6069622160774987,-0.6069622160774987
-0.7376066905972507,-0.7376066905972507
-0.7057421846168234,-0.7057421846168234
-0.8013357025581053,-0.8013357025581053
-0.5750977100970713,-0.5750977100970713
-0.6706912280383533,-0.6706912280383533
-0.7376066905972507,-0.7376066905972507
-0.7057421846168234,-0.7057421846168234
-0.638826722057926,-0.638826722057926
-0.6069622160774987,-0.6069622160774987
-0.7057421846168234,-0.7057421846168234
-0.8013357025581053,-0.8013357025581053
-0.8013357025581053,-0.8013357025581053
-0.7376066905972507,-0.7376066905972507
-0.7057421846168234,-0.7057421846168234
-0.6706912280383533,-0.6706912280383533
-0.638826722057926,-0.638826722057926
-0.6069622160774987,-0.6069622160774987
-0.5400467535186013,-0.5400467535186013
-0.508182247538174,-0.508182247538174
-0.5400467535186013,-0.5400467535186013
-0.3456732670379947,-0.3456732670379947
-0.377537773018422,-0.377537773018422
-0.3456732670379947,-0.3456732670379947
-0.377537773018422,-0.377537773018422
-0.24689329849867003,-0.24689329849867003
-0.11624882397891806,-0.11624882397891806
0.046260156521261246,0.046260156521261246
0.20876913702144054,0.20876913702144054
0.3712781175216198,0.3712781175216198
0.4063290741000899,0.4063290741000899
0.5337870980217991,0.5337870980217991
0.6994825291200212,0.6994825291200212
0.7950760470613031,0.7950760470613031
0.7632115410808759,0.7632115410808759
0.8619915096202004,0.8619915096202004
0.7313470351004485,0.7313470351004485
0.6644315725415512,0.6644315725415512
0.5688380546002691,0.5688380546002691
0.43819358008051723,0.43819358008051723
0.5337870980217991,0.5337870980217991
0.2756845995803379,0.2756845995803379
0.17690463104101323,0.17690463104101323
0.14504012506058592,0.14504012506058592
0.10998916848211587,0.10998916848211587
0.14504012506058592,0.14504012506058592
0.046260156521261246,0.046260156521261246
-0.020655306037636115,-0.020655306037636115
-0.020655306037636115,-0.020655306037636115
0.10998916848211587,0.10998916848211587
0.046260156521261246,0.046260156521261246
-0.08438431799849073,-0.08438431799849073
-0.11624882397891806,-0.11624882397891806
-0.052519812018063425,-0.052519812018063425
0.046260156521261246,0.046260156521261246
-0.020655306037636115,-0.020655306037636115
-0.11624882397891806,-0.11624882397891806
-0.08438431799849073,-0.08438431799849073
-0.020655306037636115,-0.020655306037636115
-0.1512997805573881,-0.1512997805573881
-0.1831642865378154,-0.1831642865378154
-0.052519812018063425,-0.052519812018063425
-0.020655306037636115,-0.020655306037636115
-0.052519812018063425,-0.052519812018063425
-0.11624882397891806,-0.11624882397891806
-0.08438431799849073,-0.08438431799849073
-0.052519812018063425,-0.052519812018063425
-0.08438431799849073,-0.08438431799849073
0.10998916848211587,0.10998916848211587
0.4063290741000899,0.4063290741000899
0.5019225920413718,0.5019225920413718
0.5337870980217991,0.5337870980217991
0.3712781175216198,0.3712781175216198
0.4063290741000899,0.4063290741000899
0.10998916848211587,0.10998916848211587
-0.020655306037636115,-0.020655306037636115
-0.1831642865378154,-0.1831642865378154
-0.3138087610575674,-0.3138087610575674
-0.3456732670379947,-0.3456732670379947
-0.11624882397891806,-0.11624882397891806
-0.377537773018422,-0.377537773018422
-0.3456732670379947,-0.3456732670379947
-0.40940227899884934,-0.40940227899884934
-0.4763177415577467,-0.4763177415577467
-0.3456732670379947,-0.3456732670379947
-0.9988956396367547,-0.9988956396367547
-1.0944891575780367,-1.0944891575780367
1.091415952679277,1.091415952679277
4.679359326075392,4.679359326075392
6.310822032273271,6.310822032273271
2.493454215818079,2.493454215818079
-0.769471196577678,-0.769471196577678
-1.6170670556570446,-1.6170670556570446
-1.0626246515976092,-1.0626246515976092
-0.8682511651170026,-0.8682511651170026
-0.90011567109743,-0.90011567109743
-0.7057421846168234,-0.7057421846168234
-0.6706912280383533,-0.6706912280383533
-0.769471196577678,-0.769471196577678
-0.8363866591365754,-0.8363866591365754
-0.8013357025581053,-0.8013357025581053
-0.8013357025581053,-0.8013357025581053
-0.769471196577678,-0.769471196577678
-0.8013357025581053,-0.8013357025581053
-0.6706912280383533,-0.6706912280383533
-0.7376066905972507,-0.7376066905972507
-0.6706912280383533,-0.6706912280383533
-0.6069622160774987,-0.6069622160774987
-0.5400467535186013,-0.5400467535186013
-0.5750977100970713,-0.5750977100970713
-0.638826722057926,-0.638826722057926
-0.6706912280383533,-0.6706912280383533
-0.508182247538174,-0.508182247538174
-0.4763177415577467,-0.4763177415577467
-0.4763177415577467,-0.4763177415577467
-0.44445323557731936,-0.44445323557731936
-0.377537773018422,-0.377537773018422
-0.27875780447909737,-0.27875780447909737
-0.3456732670379947,-0.3456732670379947
-0.3138087610575674,-0.3138087610575674
-0.24689329849867003,-0.24689329849867003
-0.1831642865378154,-0.1831642865378154
-0.27875780447909737,-0.27875780447909737
-0.08438431799849073,-0.08438431799849073
-0.052519812018063425,-0.052519812018063425
0.014395650540833933,0.014395650540833933
0.17690463104101323,0.17690463104101323
0.3075491055607652,0.3075491055607652
0.5019225920413718,0.5019225920413718
0.4700580860609445,0.4700580860609445
0.7313470351004485,0.7313470351004485
0.9257205215810551,0.9257205215810551
1.0245004901203798,1.0245004901203798
0.9926359841399525,0.9926359841399525
0.8938560156006278,0.8938560156006278
0.8301270036397732,0.8301270036397732
0.6994825291200212,0.6994825291200212
0.5019225920413718,0.5019225920413718
0.43819358008051723,0.43819358008051723
0.3075491055607652,0.3075491055607652
0.24063364300186785,0.24063364300186785
0.14504012506058592,0.14504012506058592
0.046260156521261246,0.046260156521261246
-0.020655306037636115,-0.020655306037636115
-0.08438431799849073,-0.08438431799849073
-0.11624882397891806,-0.11624882397891806
-0.020655306037636115,-0.020655306037636115
-0.052519812018063425,-0.052519812018063425
0.014395650540833933,0.014395650540833933
-0.052519812018063425,-0.052519812018063425
-0.1512997805573881,-0.1512997805573881
-0.020655306037636115,-0.020655306037636115
-0.020655306037636115,-0.020655306037636115
-0.020655306037636115,-0.020655306037636115
0.10998916848211587,0.10998916848211587
-0.020655306037636115,-0.020655306037636115
0.07812466250168856,0.07812466250168856
0.10998916848211587,0.10998916848211587
-0.052519812018063425,-0.052519812018063425
0.046260156521261246,0.046260156521261246
-0.020655306037636115,-0.020655306037636115
-0.052519812018063425,-0.052519812018063425
-0.020655306037636115,-0.020655306037636115
0.14504012506058592,0.14504012506058592
0.07812466250168856,0.07812466250168856
0.2756845995803379,0.2756845995803379
0.24063364300186785,0.24063364300186785
0.4700580860609445,0.4700580860609445
0.8301270036397732,0.8301270036397732
0.8938560156006278,0.8938560156006278
0.7313470351004485,0.7313470351004485
0.6994825291200212,0.6994825291200212
0.5019225920413718,0.5019225920413718
0.33941361154119254,0.33941361154119254
0.20876913702144054,0.20876913702144054
0.14504012506058592,0.14504012506058592
0.07812466250168856,0.07812466250168856
0.014395650540833933,0.014395650540833933
0.07812466250168856,0.07812466250168856
-0.020655306037636115,-0.020655306037636115
-0.08438431799849073,-0.08438431799849073
-0.052519812018063425,-0.052519812018063425
-0.21502879251824272,-0.21502879251824272
-0.3138087610575674,-0.3138087610575674
-0.8682511651170026,-0.8682511651170026
-0.24689329849867003,-0.24689329849867003
2.2640297727590024,2.2640297727590024
5.788244134194263,5.788244134194263
6.310822032273271,6.310822032273271
1.3495184511207383,1.3495184511207383
-1.2251336320977886,-1.2251336320977886
-1.5852025496766173,-1.5852025496766173
-0.7057421846168234,-0.7057421846168234
-0.7057421846168234,-0.7057421846168234
-0.638826722057926,-0.638826722057926
-0.6069622160774987,-0.6069622160774987
-0.5400467535186013,-0.5400467535186013
-0.6069622160774987,-0.6069622160774987
-0.6706912280383533,-0.6706912280383533
-0.7376066905972507,-0.7376066905972507
-0.7057421846168234,-0.7057421846168234
-0.769471196577678,-0.769471196577678
-0.7376066905972507,-0.7376066905972507
-0.8013357025581053,-0.8013357025581053
-0.769471196577678,-0.769471196577678
-0.8013357025581053,-0.8013357025581053
-0.8013357025581053,-0.8013357025581053
-0.7057421846168234,-0.7057421846168234
-0.638826722057926,-0.638826722057926
-0.638826722057926,-0.638826722057926
-0.638826722057926,-0.638826722057926
-0.638826722057926,-0.638826722057926
-0.6706912280383533,-0.6706912280383533
-0.5750977100970713,-0.5750977100970713
-0.5400467535186013,-0.5400467535186013
-0.508182247538174,-0.508182247538174
-0.4763177415577467,-0.4763177415577467
-0.4763177415577467,-0.4763177415577467
-0.40940227899884934,-0.40940227899884934
-0.377537773018422,-0.377537773018422
-0.44445323557731936,-0.44445323557731936
-0.3456732670379947,-0.3456732670379947
-0.3138087610575674,-0.3138087610575674
-0.27875780447909737,-0.27875780447909737
-0.08438431799849073,-0.08438431799849073
0.07812466250168856,0.07812466250168856
0.14504012506058592,0.14504012506058592
0.2756845995803379,0.2756845995803379
0.4063290741000899,0.4063290741000899
0.6007025605806965,0.6007025605806965
0.6994825291200212,0.6994825291200212
0.6644315725415512,0.6644315725415512
0.7313470351004485,0.7313470351004485
0.6325670665611238,0.6325670665611238
0.5337870980217991,0.5337870980217991
0.4700580860609445,0.4700580860609445
0.3712781175216198,0.3712781175216198
0.24063364300186785,0.24063364300186785
0.14504012506058592,0.14504012506058592
0.046260156521261246,0.046260156521261246
0.07812466250168856,0.07812466250168856
-0.020655306037636115,-0.020655306037636115
0.046260156521261246,0.046260156521261246
0.046260156521261246,0.046260156521261246
0.014395650540833933,0.014395650540833933
-0.020655306037636115,-0.020655306037636115
0.046260156521261246,0.046260156521261246
-0.020655306037636115,-0.020655306037636115
-0.020655306037636115,-0.020655306037636115
-0.020655306037636115,-0.020655306037636115
0.046260156521261246,0.046260156521261246
-0.020655306037636115,-0.020655306037636115
-0.020655306037636115,-0.020655306037636115
0.046260156521261246,0.046260156521261246
0.07812466250168856,0.07812466250168856
-0.020655306037636115,-0.020655306037636115
-0.020655306037636115,-0.020655306037636115
-0.020655306037636115,-0.020655306037636115
0.014395650540833933,0.014395650540833933
-0.020655306037636115,-0.020655306037636115
0.046260156521261246,0.046260156521261246
0.014395650540833933,0.014395650540833933
0.046260156521261246,0.046260156521261246
-0.020655306037636115,-0.020655306037636115
-0.020655306037636115,-0.020655306037636115
0.07812466250168856,0.07812466250168856
0.14504012506058592,0.14504012506058592
0.20876913702144054,0.20876913702144054
0.2756845995803379,0.2756845995803379
0.43819358008051723,0.43819358008051723
0.5019225920413718,0.5019225920413718
0.5337870980217991,0.5337870980217991
0.33941361154119254,0.33941361154119254
0.3712781175216198,0.3712781175216198
0.014395650540833933,0.014395650540833933
-0.1512997805573881,-0.1512997805573881
-0.21502879251824272,-0.21502879251824272
-0.1831642865378154,-0.1831642865378154
-0.3138087610575674,-0.3138087610575674
-0.3138087610575674,-0.3138087610575674
-0.377537773018422,-0.377537773018422
-0.3138087610575674,-0.3138087610575674
-0.3456732670379947,-0.3456732670379947
-0.3138087610575674,-0.3138087610575674
-0.5750977100970713,-0.5750977100970713
-0.9988956396367547,-0.9988956396367547
-0.4763177415577467,-0.4763177415577467
1.8720963491997464,1.8720963491997464
5.4281752166154345,5.4281752166154345
6.310822032273271,6.310822032273271
2.2958942787394294,2.2958942787394294
-0.6069622160774987,-0.6069622160774987
-1.161404620136934,-1.161404620136934
-0.5400467535186013,-0.5400467535186013
-0.4763177415577467,-0.4763177415577467
-0.638826722057926,-0.638826722057926
-0.6069622160774987,-0.6069622160774987
-0.638826722057926,-0.638826722057926
-0.638826722057926,-0.638826722057926
-0.7057421846168234,-0.7057421846168234
-0.6706912280383533,-0.6706912280383533
-0.7057421846168234,-0.7057421846168234
-0.638826722057926,-0.638826722057926
-0.6706912280383533,-0.6706912280383533
-0.638826722057926,-0.638826722057926
-0.7376066905972507,-0.7376066905972507
-0.6706912280383533,-0.6706912280383533
-0.7057421846168234,-0.7057421846168234
-0.638826722057926,-0.638826722057926
-0.638826722057926,-0.638826722057926
-0.638826722057926,-0.638826722057926
-0.6069622160774987,-0.6069622160774987
-0.6069622160774987,-0.6069622160774987
-0.5400467535186013,-0.5400467535186013
-0.5750977100970713,-0.5750977100970713
-0.508182247538174,-0.508182247538174
-0.508182247538174,-0.508182247538174
-0.4763177415577467,-0.4763177415577467
-0.4763177415577467,-0.4763177415577467
-0.377537773018422,-0.377537773018422
-0.3456732670379947,-0.3456732670379947
-0.24689329849867003,-0.24689329849867003
-0.21502879251824272,-0.21502879251824272
-0.1512997805573881,-0.1512997805573881
-0.11624882397891806,-0.11624882397891806
0.046260156521261246,0.046260156521261246
0.10998916848211587,0.10998916848211587
0.20876913702144054,0.20876913702144054
0.33941361154119254,0.33941361154119254
0.5019225920413718,0.5019225920413718
0.6007025605806965,0.6007025605806965
0.7950760470613031,0.7950760470613031
0.8938560156006278,0.8938560156006278
0.9257205215810551,0.9257205215810551
0.8301270036397732,0.8301270036397732
0.7632115410808759,0.7632115410808759
0.6325670665611238,0.6325670665611238
0.6007025605806965,0.6007025605806965
0.5019225920413718,0.5019225920413718
0.4063290741000899,0.4063290741000899
0.3712781175216198,0.3712781175216198
0.3075491055607652,0.3075491055607652
0.33941361154119254,0.33941361154119254
0.2756845995803379,0.2756845995803379
0.24063364300186785,0.24063364300186785
0.17690463104101323,0.17690463104101323
0.20876913702144054,0.20876913702144054
0.14504012506058592,0.14504012506058592
0.17690463104101323,0.17690463104101323
0.14504012506058592,0.14504012506058592
0.17690463104101323,0.17690463104101323
0.14504012506058592,0.14504012506058592
0.14504012506058592,0.14504012506058592
0.14504012506058592,0.14504012506058592
0.14504012506058592,0.14504012506058592
0.17690463104101323,0.17690463104101323
0.24063364300186785,0.24063364300186785
0.20876913702144054,0.20876913702144054
0.17690463104101323,0.17690463104101323
0.14504012506058592,0.14504012506058592
0.14504012506058592,0.14504012506058592
0.07812466250168856,0.07812466250168856
0.14504012506058592,0.14504012506058592
0.17690463104101323,0.17690463104101323
0.17690463104101323,0.17690463104101323
0.20876913702144054,0.20876913702144054
0.10998916848211587,0.10998916848211587
0.14504012506058592,0.14504012506058592
0.046260156521261246,0.046260156521261246
0.14504012506058592,0.14504012506058592
0.10998916848211587,0.10998916848211587
0.14504012506058592,0.14504012506058592
0.10998916848211587,0.10998916848211587
0.14504012506058592,0.14504012506058592
0.14504012506058592,0.14504012506058592
0.17690463104101323,0.17690463104101323
0.14504012506058592,0.14504012506058592
0.20876913702144054,0.20876913702144054
0.10998916848211587,0.10998916848211587
0.14504012506058592,0.14504012506058592
0.10998916848211587,0.10998916848211587
0.07812466250168856,0.07812466250168856
0.10998916848211587,0.10998916848211587
0.07812466250168856,0.07812466250168856
0.14504012506058592,0.14504012506058592
0.10998916848211587,0.10998916848211587
0.17690463104101323,0.17690463104101323
0.20876913702144054,0.20876913702144054
0.17690463104101323,0.17690463104101323
0.14504012506058592,0.14504012506058592
0.07812466250168856,0.07812466250168856
0.07812466250168856,0.07812466250168856
0.046260156521261246,0.046260156521261246
0.014395650540833933,0.014395650540833933
0.14504012506058592,0.14504012506058592
0.07812466250168856,0.07812466250168856
0.20876913702144054,0.20876913702144054
0.33941361154119254,0.33941361154119254
0.43819358008051723,0.43819358008051723
0.3075491055607652,0.3075491055607652
0.33941361154119254,0.33941361154119254
0.20876913702144054,0.20876913702144054
0.10998916848211587,0.10998916848211587
-0.1512997805573881,-0.1512997805573881
-0.21502879251824272,-0.21502879251824272
-0.3138087610575674,-0.3138087610575674
-0.3456732670379947,-0.3456732670379947
-0.27875780447909737,-0.27875780447909737
-0.3138087610575674,-0.3138087610575674
-0.3456732670379947,-0.3456732670379947
-0.3456732670379947,-0.3456732670379947
-0.377537773018422,-0.377537773018422
-0.5750977100970713,-0.5750977100970713
-0.9638446830582846,-0.9638446830582846
-0.508182247538174,-0.508182247538174
1.6458583567387124,1.6458583567387124
5.0362417930561785,5.0362417930561785
6.310822032273271,6.310822032273271
2.232165266778575,2.232165266778575
-0.6706912280383533,-0.6706912280383533
-1.3557781066175405,-1.3557781066175405
-0.7376066905972507,-0.7376066905972507
-0.6706912280383533,-0.6706912280383533
-0.7057421846168234,-0.7057421846168234
-0.6069622160774987,-0.6069622160774987
-0.7057421846168234,-0.7057421846168234
-0.769471196577678,-0.769471196577678
-0.8013357025581053,-0.8013357025581053
-0.769471196577678,-0.769471196577678
-0.6706912280383533,-0.6706912280383533
-0.769471196577678,-0.769471196577678
-0.8363866591365754,-0.8363866591365754
-0.7376066905972507,-0.7376066905972507
-0.7057421846168234,-0.7057421846168234
-0.7376066905972507,-0.7376066905972507
-0.638826722057926,-0.638826722057926
-0.638826722057926,-0.638826722057926
-0.6706912280383533,-0.6706912280383533
-0.6069622160774987,-0.6069622160774987
-0.6069622160774987,-0.6069622160774987
-0.6069622160774987,-0.6069622160774987
-0.638826722057926,-0.638826722057926
-0.508182247538174,-0.508182247538174
-0.5750977100970713,-0.5750977100970713
-0.508182247538174,-0.508182247538174
-0.5400467535186013,-0.5400467535186013
-0.4763177415577467,-0.4763177415577467
-0.44445323557731936,-0.44445323557731936
-0.1831642865378154,-0.1831642865378154
-0.1831642865378154,-0.1831642865378154
-0.1831642865378154,-0.1831642865378154
-0.27875780447909737,-0.27875780447909737
-0.3138087610575674,-0.3138087610575674
-0.1831642865378154,-0.1831642865378154
-0.052519812018063425,-0.052519812018063425
0.046260156521261246,0.046260156521261246
0.20876913702144054,0.20876913702144054
0.2756845995803379,0.2756845995803379
0.4700580860609445,0.4700580860609445
0.6007025605806965,0.6007025605806965
0.7950760470613031,0.7950760470613031
0.8938560156006278,0.8938560156006278
0.8938560156006278,0.8938560156006278
0.8938560156006278,0.8938560156006278
0.7950760470613031,0.7950760470613031
0.6994825291200212,0.6994825291200212
0.5337870980217991,0.5337870980217991
0.3712781175216198,0.3712781175216198
0.2756845995803379,0.2756845995803379
0.14504012506058592,0.14504012506058592
0.07812466250168856,0.07812466250168856
0.14504012506058592,0.14504012506058592
0.07812466250168856,0.07812466250168856
0.014395650540833933,0.014395650540833933
-0.020655306037636115,-0.020655306037636115
-0.11624882397891806,-0.11624882397891806
-0.1512997805573881,-0.1512997805573881
-0.08438431799849073,-0.08438431799849073
-0.1512997805573881,-0.1512997805573881
-0.020655306037636115,-0.020655306037636115
-0.052519812018063425,-0.052519812018063425
-0.11624882397891806,-0.11624882397891806
-0.1831642865378154,-0.1831642865378154
-0.1512997805573881,-0.1512997805573881
-0.08438431799849073,-0.08438431799849073
-0.1512997805573881,-0.1512997805573881
-0.11624882397891806,-0.11624882397891806
-0.1831642865378154,-0.1831642865378154
-0.08438431799849073,-0.08438431799849073
-0.1831642865378154,-0.1831642865378154
-0.24689329849867003,-0.24689329849867003
-0.3138087610575674,-0.3138087610575674
-0.1831642865378154,-0.1831642865378154
-0.24689329849867003,-0.24689329849867003
-0.21502879251824272,-0.21502879251824272
-0.3138087610575674,-0.3138087610575674
-0.27875780447909737,-0.27875780447909737
-0.24689329849867003,-0.24689329849867003
-0.1831642865378154,-0.1831642865378154
-0.1831642865378154,-0.1831642865378154
-0.1831642865378154,-0.1831642865378154
-0.1512997805573881,-0.1512997805573881
-0.21502879251824272,-0.21502879251824272
-0.24689329849867003,-0.24689329849867003
-0.21502879251824272,-0.21502879251824272
-0.27875780447909737,-0.27875780447909737
-0.21502879251824272,-0.21502879251824272
-0.11624882397891806,-0.11624882397891806
-0.1831642865378154,-0.1831642865378154
-0.11624882397891806,-0.11624882397891806
-0.11624882397891806,-0.11624882397891806
-0.052519812018063425,-0.052519812018063425
-0.020655306037636115,-0.020655306037636115
0.046260156521261246,0.046260156521261246
-0.052519812018063425,-0.052519812018063425
0.046260156521261246,0.046260156521261246
-0.020655306037636115,-0.020655306037636115
0.14504012506058592,0.14504012506058592
0.046260156521261246,0.046260156521261246
0.14504012506058592,0.14504012506058592
0.014395650540833933,0.014395650540833933
0.10998916848211587,0.10998916848211587
0.046260156521261246,0.046260156521261246
0.046260156521261246,0.046260156521261246
-0.020655306037636115,-0.020655306037636115
0.20876913702144054,0.20876913702144054
0.3075491055607652,0.3075491055607652
0.3075491055607652,0.3075491055607652
0.4063290741000899,0.4063290741000899
0.6007025605806965,0.6007025605806965
0.6644315725415512,0.6644315725415512
0.6007025605806965,0.6007025605806965
0.4063290741000899,0.4063290741000899
0.2756845995803379,0.2756845995803379
0.10998916848211587,0.10998916848211587
-0.020655306037636115,-0.020655306037636115
-0.020655306037636115,-0.020655306037636115
-0.08438431799849073,-0.08438431799849073
-0.052519812018063425,-0.052519812018063425
-0.08438431799849073,-0.08438431799849073
-0.08438431799849073,-0.08438431799849073
-0.1831642865378154,-0.1831642865378154
-0.769471196577678,-0.769471196577678
-0.8682511651170026,-0.8682511651170026
1.317653945140311,1.317653945140311
4.873732812555999,4.873732812555999
6.310822032273271,6.310822032273271
2.9172521453577622,2.9172521453577622
-0.4763177415577467,-0.4763177415577467
-1.3239136006371133,-1.3239136006371133
-0.638826722057926,-0.638826722057926
-0.5750977100970713,-0.5750977100970713
-0.4763177415577467,-0.4763177415577467
-0.4763177415577467,-0.4763177415577467
-0.508182247538174,-0.508182247538174
-0.508182247538174,-0.508182247538174
-0.4763177415577467,-0.4763177415577467
-0.6069622160774987,-0.6069622160774987
-0.638826722057926,-0.638826722057926
-0.6069622160774987,-0.6069622160774987
-0.5400467535186013,-0.5400467535186013
-0.508182247538174,-0.508182247538174
-0.5400467535186013,-0.5400467535186013
-0.5750977100970713,-0.5750977100970713
-0.6069622160774987,-0.6069622160774987
-0.5750977100970713,-0.5750977100970713
-0.6069622160774987,-0.6069622160774987
-0.5750977100970713,-0.5750977100970713
-0.6069622160774987,-0.6069622160774987
-0.508182247538174,-0.508182247538174
-0.5400467535186013,-0.5400467535186013
-0.44445323557731936,-0.44445323557731936
-0.4763177415577467,-0.4763177415577467
-0.3456732670379947,-0.3456732670379947
-0.40940227899884934,-0.40940227899884934
-0.377537773018422,-0.377537773018422
-0.3456732670379947,-0.3456732670379947
-0.3138087610575674,-0.3138087610575674
-0.3456732670379947,-0.3456732670379947
-0.21502879251824272,-0.21502879251824272
-0.24689329849867003,-0.24689329849867003
-0.1831642865378154,-0.1831642865378154
-0.1831642865378154,-0.1831642865378154
-0.08438431799849073,-0.08438431799849073
-0.020655306037636115,-0.020655306037636115
0.14504012506058592,0.14504012506058592
0.2756845995803379,0.2756845995803379
0.3712781175216198,0.3712781175216198
0.4700580860609445,0.4700580860609445
0.6007025605806965,0.6007025605806965
0.6994825291200212,0.6994825291200212
0.7313470351004485,0.7313470351004485
0.7313470351004485,0.7313470351004485
0.6644315725415512,0.6644315725415512
0.6007025605806965,0.6007025605806965
0.43819358008051723,0.43819358008051723
0.4063290741000899,0.4063290741000899
0.2756845995803379,0.2756845995803379
0.2756845995803379,0.2756845995803379
0.20876913702144054,0.20876913702144054
0.24063364300186785,0.24063364300186785
0.10998916848211587,0.10998916848211587
0.14504012506058592,0.14504012506058592
0.07812466250168856,0.07812466250168856
0.07812466250168856,0.07812466250168856
0.014395650540833933,0.014395650540833933
0.046260156521261246,0.046260156521261246
0.046260156521261246,0.046260156521261246
0.07812466250168856,0.07812466250168856
0.10998916848211587,0.10998916848211587
0.014395650540833933,0.014395650540833933
0.046260156521261246,0.046260156521261246
-0.020655306037636115,-0.020655306037636115
0.014395650540833933,0.014395650540833933
-0.020655306037636115,-0.020655306037636115
-0.020655306037636115,-0.020655306037636115
-0.052519812018063425,-0.052519812018063425
-0.11624882397891806,-0.11624882397891806
-0.08438431799849073,-0.08438431799849073
-0.052519812018063425,-0.052519812018063425
-0.08438431799849073,-0.08438431799849073
-0.052519812018063425,-0.052519812018063425
-0.08438431799849073,-0.08438431799849073
-0.020655306037636115,-0.020655306037636115
-0.08438431799849073,-0.08438431799849073
-0.11624882397891806,-0.11624882397891806
-0.11624882397891806,-0.11624882397891806
-0.08438431799849073,-0.08438431799849073
-0.052519812018063425,-0.052519812018063425
-0.052519812018063425,-0.052519812018063425
-0.08438431799849073,-0.08438431799849073
-0.11624882397891806,-0.11624882397891806
-0.1831642865378154,-0.1831642865378154
-0.1831642865378154,-0.1831642865378154
-0.1512997805573881,-0.1512997805573881
-0.11624882397891806,-0.11624882397891806
-0.1512997805573881,-0.1512997805573881
-0.11624882397891806,-0.11624882397891806
-0.08438431799849073,-0.08438431799849073
-0.1512997805573881,-0.1512997805573881
-0.08438431799849073,-0.08438431799849073
-0.1512997805573881,-0.1512997805573881
-0.052519812018063425,-0.052519812018063425
-0.052519812018063425,-0.052519812018063425
-0.020655306037636115,-0.020655306037636115
-0.11624882397891806,-0.11624882397891806
-0.052519812018063425,-0.052519812018063425
-0.052519812018063425,-0.052519812018063425
0.07812466250168856,0.07812466250168856
0.014395650540833933,0.014395650540833933
0.17690463104101323,0.17690463104101323
0.3075491055607652,0.3075491055607652
0.4700580860609445,0.4700580860609445
0.5019225920413718,0.5019225920413718
0.43819358008051723,0.43819358008051723
0.3712781175216198,0.3712781175216198
0.24063364300186785,0.24063364300186785
0.046260156521261246,0.046260156521261246
0.014395650540833933,0.014395650540833933
0.014395650540833933,0.014395650540833933
-0.020655306037636115,-0.020655306037636115
-0.020655306037636115,-0.020655306037636115
-0.020655306037636115,-0.020655306037636115
-0.052519812018063425,-0.052519812018063425
-0.1512997805573881,-0.1512997805573881
-0.6706912280383533,-0.6706912280383533
-0.8682511651170026,-0.8682511651170026
0.8938560156006278,0.8938560156006278
3.8285770163979835,3.8285770163979835
6.310822032273271,6.310822032273271
3.634203529917377,3.634203529917377
0.20876913702144054,0.20876913702144054
-1.292049094656686,-1.292049094656686
-0.8013357025581053,-0.8013357025581053
-0.6706912280383533,-0.6706912280383533
-0.7057421846168234,-0.7057421846168234
-0.769471196577678,-0.769471196577678
-0.769471196577678,-0.769471196577678
-0.8013357025581053,-0.8013357025581053
-0.7376066905972507,-0.7376066905972507
-0.8013357025581053,-0.8013357025581053
-0.8013357025581053,-0.8013357025581053
-0.769471196577678,-0.769471196577678
-0.8013357025581053,-0.8013357025581053
-0.7057421846168234,-0.7057421846168234
-0.7376066905972507,-0.7376066905972507
-0.638826722057926,-0.638826722057926
-0.7057421846168234,-0.7057421846168234
-0.6706912280383533,-0.6706912280383533
-0.638826722057926,-0.638826722057926
-0.7057421846168234,-0.7057421846168234
-0.7376066905972507,-0.7376066905972507
-0.6706912280383533,-0.6706912280383533
-0.7057421846168234,-0.7057421846168234
-0.638826722057926,-0.638826722057926
-0.6069622160774987,-0.6069622160774987
-0.508182247538174,-0.508182247538174
-0.4763177415577467,-0.4763177415577467
-0.44445323557731936,-0.44445323557731936
-0.377537773018422,-0.377537773018422
-0.3456732670379947,-0.3456732670379947
-0.3456732670379947,-0.3456732670379947
-0.27875780447909737,-0.27875780447909737
-0.3138087610575674,-0.3138087610575674
-0.24689329849867003,-0.24689329849867003
-0.1831642865378154,-0.1831642865378154
-0.08438431799849073,-0.08438431799849073
-0.08438431799849073,-0.08438431799849073
0.046260156521261246,0.046260156521261246
0.14504012506058592,0.14504012506058592
0.3075491055607652,0.3075491055607652
0.5019225920413718,0.5019225920413718
0.6325670665611238,0.6325670665611238
0.7632115410808759,0.7632115410808759
0.7313470351004485,0.7313470351004485
0.6994825291200212,0.6994825291200212
0.6325670665611238,0.6325670665611238
0.5688380546002691,0.5688380546002691
0.43819358008051723,0.43819358008051723
0.3075491055607652,0.3075491055607652
0.14504012506058592,0.14504012506058592
0.046260156521261246,0.046260156521261246
-0.052519812018063425,-0.052519812018063425
-0.020655306037636115,-0.020655306037636115
-0.1512997805573881,-0.1512997805573881
-0.24689329849867003,-0.24689329849867003
-0.27875780447909737,-0.27875780447909737
-0.020655306037636115,-0.020655306037636115
-0.08438431799849073,-0.08438431799849073
-0.11624882397891806,-0.11624882397891806
-0.1831642865378154,-0.1831642865378154
-0.11624882397891806,-0.11624882397891806
-0.1512997805573881,-0.1512997805573881
-0.11624882397891806,-0.11624882397891806
-0.11624882397891806,-0.11624882397891806
-0.08438431799849073,-0.08438431799849073
-0.1512997805573881,-0.1512997805573881
-0.1831642865378154,-0.1831642865378154
-0.052519812018063425,-0.052519812018063425
-0.08438431799849073,-0.08438431799849073
-0.052519812018063425,-0.052519812018063425
-0.020655306037636115,-0.020655306037636115
0.014395650540833933,0.014395650540833933
-0.052519812018063425,-0.052519812018063425
0.014395650540833933,0.014395650540833933
-0.020655306037636115,-0.020655306037636115
0.014395650540833933,0.014395650540833933
-0.08438431799849073,-0.08438431799849073
0.014395650540833933,0.014395650540833933
-0.020655306037636115,-0.020655306037636115
0.10998916848211587,0.10998916848211587
0.014395650540833933,0.014395650540833933
0.14504012506058592,0.14504012506058592
0.046260156521261246,0.046260156521261246
0.10998916848211587,0.10998916848211587
-0.020655306037636115,-0.020655306037636115
-0.020655306037636115,-0.020655306037636115
0.046260156521261246,0.046260156521261246
-0.020655306037636115,-0.020655306037636115
-0.020655306037636115,-0.020655306037636115
-0.020655306037636115,-0.020655306037636115
0.07812466250168856,0.07812466250168856
0.10998916848211587,0.10998916848211587
0.014395650540833933,0.014395650540833933
-0.08438431799849073,-0.08438431799849073
-0.020655306037636115,-0.020655306037636115
-0.052519812018063425,-0.052519812018063425
-0.020655306037636115,-0.020655306037636115
-0.020655306037636115,-0.020655306037636115
0.07812466250168856,0.07812466250168856
0.17690463104101323,0.17690463104101323
0.3075491055607652,0.3075491055607652
0.33941361154119254,0.33941361154119254
0.3075491055607652,0.3075491055607652
0.24063364300186785,0.24063364300186785
0.046260156521261246,0.046260156521261246
-0.1831642865378154,-0.1831642865378154
-0.1831642865378154,-0.1831642865378154
-0.3456732670379947,-0.3456732670379947
-0.1831642865378154,-0.1831642865378154
-0.24689329849867003,-0.24689329849867003
-0.3456732670379947,-0.3456732670379947
-0.3138087610575674,-0.3138087610575674
-0.3456732670379947,-0.3456732670379947
-0.44445323557731936,-0.44445323557731936
-0.90011567109743,-0.90011567109743
-0.5400467535186013,-0.5400467535186013
1.709587368699567,1.709587368699567
5.135021761595503,5.135021761595503
6.310822032273271,6.310822032273271
2.362809741298327,2.362809741298327
-0.638826722057926,-0.638826722057926
-1.292049094656686,-1.292049094656686
-0.638826722057926,-0.638826722057926
-0.5750977100970713,-0.5750977100970713
-0.6069622160774987,-0.6069622160774987
-0.4763177415577467,-0.4763177415577467
-0.6069622160774987,-0.6069622160774987
-0.5400467535186013,-0.5400467535186013
-0.4763177415577467,-0.4763177415577467
-0.4763177415577467,-0.4763177415577467
-0.6069622160774987,-0.6069622160774987
-0.5400467535186013,-0.5400467535186013
-0.6069622160774987,-0.6069622160774987
-0.5750977100970713,-0.5750977100970713
-0.6706912280383533,-0.6706912280383533
-0.7057421846168234,-0.7057421846168234
-0.638826722057926,-0.638826722057926
-0.638826722057926,-0.638826722057926
-0.638826722057926,-0.638826722057926
-0.6069622160774987,-0.6069622160774987
-0.5750977100970713,-0.5750977100970713
-0.5400467535186013,-0.5400467535186013
-0.5750977100970713,-0.5750977100970713
-0.6069622160774987,-0.6069622160774987
-0.4763177415577467,-0.4763177415577467
-0.4763177415577467,-0.4763177415577467
-0.4763177415577467,-0.4763177415577467
-0.508182247538174,-0.508182247538174
-0.44445323557731936,-0.44445323557731936
-0.377537773018422,-0.377537773018422
-0.1831642865378154,-0.1831642865378154
-0.1831642865378154,-0.1831642865378154
-0.1831642865378154,-0.1831642865378154
-0.21502879251824272,-0.21502879251824272
-0.052519812018063425,-0.052519812018063425
-0.020655306037636115,-0.020655306037636115
0.10998916848211587,0.10998916848211587
0.17690463104101323,0.17690463104101323
0.33941361154119254,0.33941361154119254
0.4700580860609445,0.4700580860609445
0.6644315725415512,0.6644315725415512
0.7313470351004485,0.7313470351004485
0.8301270036397732,0.8301270036397732
0.7632115410808759,0.7632115410808759
0.7313470351004485,0.7313470351004485
0.6644315725415512,0.6644315725415512
0.6007025605806965,0.6007025605806965
0.43819358008051723,0.43819358008051723
0.3712781175216198,0.3712781175216198
0.24063364300186785,0.24063364300186785
0.14504012506058592,0.14504012506058592
0.14504012506058592,0.14504012506058592
0.14504012506058592,0.14504012506058592
0.07812466250168856,0.07812466250168856
0.014395650540833933,0.014395650540833933
-0.020655306037636115,-0.020655306037636115
-0.08438431799849073,-0.08438431799849073
0.014395650540833933,0.014395650540833933
0.014395650540833933,0.014395650540833933
0.014395650540833933,0.014395650540833933
0.014395650540833933,0.014395650540833933
0.046260156521261246,0.046260156521261246
-0.020655306037636115,-0.020655306037636115
0.07812466250168856,0.07812466250168856
0.014395650540833933,0.014395650540833933
0.10998916848211587,0.10998916848211587
0.07812466250168856,0.07812466250168856
0.07812466250168856,0.07812466250168856
0.046260156521261246,0.046260156521261246
0.014395650540833933,0.014395650540833933
0.046260156521261246,0.046260156521261246
0.014395650540833933,0.014395650540833933
0.07812466250168856,0.07812466250168856
-0.020655306037636115,-0.020655306037636115
-0.052519812018063425,-0.052519812018063425
0.014395650540833933,0.014395650540833933
0.07812466250168856,0.07812466250168856
0.014395650540833933,0.014395650540833933
0.046260156521261246,0.046260156521261246
-0.020655306037636115,-0.020655306037636115
-0.020655306037636115,-0.020655306037636115
0.046260156521261246,0.046260156521261246
0.07812466250168856,0.07812466250168856
0.17690463104101323,0.17690463104101323
0.4063290741000899,0.4063290741000899
0.6007025605806965,0.6007025605806965
0.6007025605806965,0.6007025605806965
0.6007025605806965,0.6007025605806965
0.5019225920413718,0.5019225920413718
0.3712781175216198,0.3712781175216198
0.14504012506058592,0.14504012506058592
0.014395650540833933,0.014395650540833933
-0.052519812018063425,-0.052519812018063425
-0.1512997805573881,-0.1512997805573881
-0.1831642865378154,-0.1831642865378154
-0.11624882397891806,-0.11624882397891806
-0.1512997805573881,-0.1512997805573881
-0.08438431799849073,-0.08438431799849073
-0.1512997805573881,-0.1512997805573881
-0.24689329849867003,-0.24689329849867003
-0.6706912280383533,-0.6706912280383533
-0.8013357025581053,-0.8013357025581053
0.7950760470613031,0.7950760470613031
3.7329834984567016,3.7329834984567016
6.310822032273271,6.310822032273271
3.8954924789568808,3.8954924789568808
0.4700580860609445,0.4700580860609445
-1.161404620136934,-1.161404620136934
-0.638826722057926,-0.638826722057926
-0.4763177415577467,-0.4763177415577467
-0.6069622160774987,-0.6069622160774987
-0.5750977100970713,-0.5750977100970713
-0.7057421846168234,-0.7057421846168234
-0.638826722057926,-0.638826722057926
-0.6706912280383533,-0.6706912280383533
-0.638826722057926,-0.638826722057926
-0.7376066905972507,-0.7376066905972507
-0.6706912280383533,-0.6706912280383533
-0.7057421846168234,-0.7057421846168234
-0.6706912280383533,-0.6706912280383533
-0.7376066905972507,-0.7376066905972507
-0.7376066905972507,-0.7376066905972507
-0.769471196577678,-0.769471196577678
-0.8013357025581053,-0.8013357025581053
-0.8013357025581053,-0.8013357025581053
-0.8013357025581053,-0.8013357025581053
-0.90011567109743,-0.90011567109743
-0.8013357025581053,-0.8013357025581053
-0.769471196577678,-0.769471196577678
-0.8013357025581053,-0.8013357025581053
-0.769471196577678,-0.769471196577678
-0.8013357025581053,-0.8013357025581053
-0.769471196577678,-0.769471196577678
-0.769471196577678,-0.769471196577678
-0.7057421846168234,-0.7057421846168234
-0.638826722057926,-0.638826722057926
-0.6069622160774987,-0.6069622160774987
-0.6069622160774987,-0.6069622160774987
-0.44445323557731936,-0.44445323557731936
-0.377537773018422,-0.377537773018422
-0.3456732670379947,-0.3456732670379947
-0.27875780447909737,-0.27875780447909737
-0.11624882397891806,-0.11624882397891806
0.046260156521261246,0.046260156521261246
0.17690463104101323,0.17690463104101323
0.3075491055607652,0.3075491055607652
0.43819358008051723,0.43819358008051723
0.5688380546002691,0.5688380546002691
0.6325670665611238,0.6325670665611238
0.6994825291200212,0.6994825291200212
0.6007025605806965,0.6007025605806965
0.5688380546002691,0.5688380546002691
0.4700580860609445,0.4700580860609445
0.3712781175216198,0.3712781175216198
0.2756845995803379,0.2756845995803379
0.20876913702144054,0.20876913702144054
0.14504012506058592,0.14504012506058592
0.17690463104101323,0.17690463104101323
0.07812466250168856,0.07812466250168856
0.10998916848211587,0.10998916848211587
-0.020655306037636115,-0.020655306037636115
-0.020655306037636115,-0.020655306037636115
-0.052519812018063425,-0.052519812018063425
-0.020655306037636115,-0.020655306037636115
-0.052519812018063425,-0.052519812018063425
-0.020655306037636115,-0.020655306037636115
-0.020655306037636115,-0.020655306037636115
-0.020655306037636115,-0.020655306037636115
-0.020655306037636115,-0.020655306037636115
0.046260156521261246,0.046260156521261246
0.07812466250168856,0.07812466250168856
0.046260156521261246,0.046260156521261246
0.10998916848211587,0.10998916848211587
0.046260156521261246,0.046260156521261246
0.014395650540833933,0.014395650540833933
0.10998916848211587,0.10998916848211587
0.17690463104101323,0.17690463104101323
0.14504012506058592,0.14504012506058592
0.33941361154119254,0.33941361154119254
0.3075491055607652,0.3075491055607652
0.4063290741000899,0.4063290741000899
0.33941361154119254,0.33941361154119254
0.3712781175216198,0.3712781175216198
0.3075491055607652,0.3075491055607652
0.33941361154119254,0.33941361154119254
0.24063364300186785,0.24063364300186785
0.33941361154119254,0.33941361154119254
0.4063290741000899,0.4063290741000899
0.3712781175216198,0.3712781175216198
0.5019225920413718,0.5019225920413718
0.6994825291200212,0.6994825291200212
0.7313470351004485,0.7313470351004485
0.6325670665611238,0.6325670665611238
0.5688380546002691,0.5688380546002691
0.5337870980217991,0.5337870980217991
0.24063364300186785,0.24063364300186785
0.014395650540833933,0.014395650540833933
-0.020655306037636115,-0.020655306037636115
-0.020655306037636115,-0.020655306037636115
0.014395650540833933,0.014395650540833933
-0.020655306037636115,-0.020655306037636115
0.046260156521261246,0.046260156521261246
0.014395650540833933,0.014395650540833933
0.14504012506058592,0.14504012506058592
0.14504012506058592,0.14504012506058592
-0.21502879251824272,-0.21502879251824272
-0.7057421846168234,-0.7057421846168234
0.17690463104101323,0.17690463104101323
2.78660767083801,2.78660767083801
6.310822032273271,6.310822032273271
5.103157255615076,5.103157255615076
1.448298419660063,1.448298419660063
-0.90011567109743,-0.90011567109743
-1.030760145617182,-1.030760145617182
-0.44445323557731936,-0.44445323557731936
-0.5400467535186013,-0.5400467535186013
-0.638826722057926,-0.638826722057926
-0.5750977100970713,-0.5750977100970713
-0.638826722057926,-0.638826722057926
-0.6706912280383533,-0.6706912280383533
-0.7376066905972507,-0.7376066905972507
-0.7376066905972507,-0.7376066905972507
-0.8013357025581053,-0.8013357025581053
-0.8682511651170026,-0.8682511651170026
-0.9319801770778573,-0.9319801770778573
-0.9638446830582846,-0.9638446830582846
-0.9319801770778573,-0.9319801770778573
-1.030760145617182,-1.030760145617182
-0.9988956396367547,-0.9988956396367547
-1.030760145617182,-1.030760145617182
-1.0626246515976092,-1.0626246515976092
-1.0626246515976092,-1.0626246515976092
-1.0944891575780367,-1.0944891575780367
-1.0944891575780367,-1.0944891575780367
-1.0944891575780367,-1.0944891575780367
-1.0626246515976092,-1.0626246515976092
-0.9319801770778573,-0.9319801770778573
-0.9988956396367547,-0.9988956396367547
-0.9319801770778573,-0.9319801770778573
-0.9988956396367547,-0.9988956396367547
-1.030760145617182,-1.030760145617182
-0.9319801770778573,-0.9319801770778573
-0.9319801770778573,-0.9319801770778573
-0.90011567109743,-0.90011567109743
-0.8363866591365754,-0.8363866591365754
-0.7376066905972507,-0.7376066905972507
-0.6706912280383533,-0.6706912280383533
-0.5750977100970713,-0.5750977100970713
-0.377537773018422,-0.377537773018422
-0.27875780447909737,-0.27875780447909737
-0.1831642865378154,-0.1831642865378154
-0.020655306037636115,-0.020655306037636115
0.14504012506058592,0.14504012506058592
0.20876913702144054,0.20876913702144054
0.2756845995803379,0.2756845995803379
0.3712781175216198,0.3712781175216198
0.20876913702144054,0.20876913702144054
0.17690463104101323,0.17690463104101323
0.10998916848211587,0.10998916848211587
0.07812466250168856,0.07812466250168856
-0.052519812018063425,-0.052519812018063425
-0.020655306037636115,-0.020655306037636115
-0.1831642865378154,-0.1831642865378154
-0.24689329849867003,-0.24689329849867003
-0.3456732670379947,-0.3456732670379947
-0.3456732670379947,-0.3456732670379947
-0.377537773018422,-0.377537773018422
-0.3138087610575674,-0.3138087610575674
-0.1831642865378154,-0.1831642865378154
-0.24689329849867003,-0.24689329849867003
-0.21502879251824272,-0.21502879251824272
-0.27875780447909737,-0.27875780447909737
-0.08438431799849073,-0.08438431799849073
-0.08438431799849073,-0.08438431799849073
-0.1831642865378154,-0.1831642865378154
-0.1831642865378154,-0.1831642865378154
-0.1831642865378154,-0.1831642865378154
-0.1512997805573881,-0.1512997805573881
-0.1831642865378154,-0.1831642865378154
-0.1831642865378154,-0.1831642865378154
-0.1512997805573881,-0.1512997805573881
-0.1831642865378154,-0.1831642865378154
-0.1831642865378154,-0.1831642865378154
-0.1831642865378154,-0.1831642865378154
-0.1831642865378154,-0.1831642865378154
-0.1512997805573881,-0.1512997805573881
-0.11624882397891806,-0.11624882397891806
-0.1831642865378154,-0.1831642865378154
-0.052519812018063425,-0.052519812018063425
-0.11624882397891806,-0.11624882397891806
-0.11624882397891806,-0.11624882397891806
-0.052519812018063425,-0.052519812018063425
0.17690463104101323,0.17690463104101323
0.20876913702144054,0.20876913702144054
0.14504012506058592,0.14504012506058592
-0.052519812018063425,-0.052519812018063425
-0.27875780447909737,-0.27875780447909737
-0.5400467535186013,-0.5400467535186013
-0.6706912280383533,-0.6706912280383533
-0.8682511651170026,-0.8682511651170026
-0.8363866591365754,-0.8363866591365754
-0.8013357025581053,-0.8013357025581053
-0.8682511651170026,-0.8682511651170026
-0.8682511651170026,-0.8682511651170026
-0.769471196577678,-0.769471196577678
-0.6069622160774987,-0.6069622160774987
-0.638826722057926,-0.638826722057926
-0.9638446830582846,-0.9638446830582846
-1.161404620136934,-1.161404620136934
0.5337870980217991,0.5337870980217991
3.6023390239369495,3.6023390239369495
6.310822032273271,6.310822032273271
3.7648480044371286,3.7648480044371286
0.2756845995803379,0.2756845995803379
-1.1932691261173614,-1.1932691261173614
-0.4763177415577467,-0.4763177415577467
-0.24689329849867003,-0.24689329849867003
-0.1512997805573881,-0.1512997805573881
-0.11624882397891806,-0.11624882397891806
0.014395650540833933,0.014395650540833933
0.07812466250168856,0.07812466250168856
0.20876913702144054,0.20876913702144054
0.14504012506058592,0.14504012506058592
0.14504012506058592,0.14504012506058592
0.14504012506058592,0.14504012506058592
0.14504012506058592,0.14504012506058592
0.046260156521261246,0.046260156521261246
0.014395650540833933,0.014395650540833933
0.07812466250168856,0.07812466250168856
-0.020655306037636115,-0.020655306037636115
0.014395650540833933,0.014395650540833933
-0.020655306037636115,-0.020655306037636115
-0.020655306037636115,-0.020655306037636115
-0.052519812018063425,-0.052519812018063425
-0.052519812018063425,-0.052519812018063425
-0.1512997805573881,-0.1512997805573881
-0.052519812018063425,-0.052519812018063425
-0.1512997805573881,-0.1512997805573881
-0.11624882397891806,-0.11624882397891806
-0.1831642865378154,-0.1831642865378154
-0.11624882397891806,-0.11624882397891806
-0.1831642865378154,-0.1831642865378154
-0.1512997805573881,-0.1512997805573881
-0.11624882397891806,-0.11624882397891806
-0.052519812018063425,-0.052519812018063425
-0.020655306037636115,-0.020655306037636115
0.014395650540833933,0.014395650540833933
0.07812466250168856,0.07812466250168856
0.10998916848211587,0.10998916848211587
0.24063364300186785,0.24063364300186785
0.3075491055607652,0.3075491055607652
0.43819358008051723,0.43819358008051723
0.6007025605806965,0.6007025605806965
0.7313470351004485,0.7313470351004485
0.8619915096202004,0.8619915096202004
0.9257205215810551,0.9257205215810551
0.8938560156006278,0.8938560156006278
0.8301270036397732,0.8301270036397732
0.7313470351004485,0.7313470351004485
0.6325670665611238,0.6325670665611238
0.5019225920413718,0.5019225920413718
0.43819358008051723,0.43819358008051723
0.2756845995803379,0.2756845995803379
0.20876913702144054,0.20876913702144054
0.10998916848211587,0.10998916848211587
0.14504012506058592,0.14504012506058592
-0.020655306037636115,-0.020655306037636115
0.046260156521261246,0.046260156521261246
-0.020655306037636115,-0.020655306037636115
-0.08438431799849073,-0.08438431799849073
-0.1512997805573881,-0.1512997805573881
-0.1831642865378154,-0.1831642865378154
-0.1831642865378154,-0.1831642865378154
-0.21502879251824272,-0.21502879251824272
-0.1831642865378154,-0.1831642865378154
-0.24689329849867003,-0.24689329849867003
-0.1512997805573881,-0.1512997805573881
-0.1831642865378154,-0.1831642865378154
-0.1512997805573881,-0.1512997805573881
-0.1512997805573881,-0.1512997805573881
-0.11624882397891806,-0.11624882397891806
-0.08438431799849073,-0.08438431799849073
-0.1831642865378154,-0.1831642865378154
-0.1831642865378154,-0.1831642865378154
-0.11624882397891806,-0.11624882397891806
-0.1831642865378154,-0.1831642865378154
-0.052519812018063425,-0.052519812018063425
-0.020655306037636115,-0.020655306037636115
-0.020655306037636115,-0.020655306037636115
-0.020655306037636115,-0.020655306037636115
0.046260156521261246,0.046260156521261246
0.24063364300186785,0.24063364300186785
0.4700580860609445,0.4700580860609445
0.5688380546002691,0.5688380546002691
0.5337870980217991,0.5337870980217991
0.6007025605806965,0.6007025605806965
0.4700580860609445,0.4700580860609445
0.20876913702144054,0.20876913702144054
-0.020655306037636115,-0.020655306037636115
-0.08438431799849073,-0.08438431799849073
-0.1512997805573881,-0.1512997805573881
-0.21502879251824272,-0.21502879251824272
-0.27875780447909737,-0.27875780447909737
-0.24689329849867003,-0.24689329849867003
-0.3138087610575674,-0.3138087610575674
-0.24689329849867003,-0.24689329849867003
-0.24689329849867003,-0.24689329849867003
-0.21502879251824272,-0.21502879251824272
-0.769471196577678,-0.769471196577678
-0.40940227899884934,-0.40940227899884934
1.5789428941798151,1.5789428941798151
5.068106299036606,5.068106299036606
6.310822032273271,6.310822032273271
2.885387639377335,2.885387639377335
-0.377537773018422,-0.377537773018422
-1.1295401141565067,-1.1295401141565067
-0.5750977100970713,-0.5750977100970713
-0.6706912280383533,-0.6706912280383533
-0.638826722057926,-0.638826722057926
-0.7057421846168234,-0.7057421846168234
-0.6706912280383533,-0.6706912280383533
-0.7376066905972507,-0.7376066905972507
-0.7057421846168234,-0.7057421846168234
-0.8013357025581053,-0.8013357025581053
-0.8013357025581053,-0.8013357025581053
-0.8363866591365754,-0.8363866591365754
-0.769471196577678,-0.769471196577678
-0.8013357025581053,-0.8013357025581053
-0.8013357025581053,-0.8013357025581053
-0.8682511651170026,-0.8682511651170026
-0.8363866591365754,-0.8363866591365754
-0.8682511651170026,-0.8682511651170026
-0.8013357025581053,-0.8013357025581053
-0.8013357025581053,-0.8013357025581053
-0.6706912280383533,-0.6706912280383533
-0.7376066905972507,-0.7376066905972507
-0.7057421846168234,-0.7057421846168234
-0.8013357025581053,-0.8013357025581053
-0.8013357025581053,-0.8013357025581053
-0.8013357025581053,-0.8013357025581053
-0.7057421846168234,-0.7057421846168234
-0.6706912280383533,-0.6706912280383533
-0.5400467535186013,-0.5400467535186013
-0.4763177415577467,-0.4763177415577467
-0.5400467535186013,-0.5400467535186013
-0.44445323557731936,-0.44445323557731936
-0.3138087610575674,-0.3138087610575674
-0.1831642865378154,-0.1831642865378154
-0.21502879251824272,-0.21502879251824272
-0.020655306037636115,-0.020655306037636115
0.046260156521261246,0.046260156521261246
0.17690463104101323,0.17690463104101323
0.2756845995803379,0.2756845995803379
0.4063290741000899,0.4063290741000899
0.5019225920413718,0.5019225920413718
0.6007025605806965,0.6007025605806965
0.6007025605806965,0.6007025605806965
0.5688380546002691,0.5688380546002691
0.43819358008051723,0.43819358008051723
0.2756845995803379,0.2756845995803379
0.10998916848211587,0.10998916848211587
0.10998916848211587,0.10998916848211587
-0.052519812018063425,-0.052519812018063425
-0.21502879251824272,-0.21502879251824272
-0.3138087610575674,-0.3138087610575674
-0.24689329849867003,-0.24689329849867003
-0.24689329849867003,-0.24689329849867003
-0.3456732670379947,-0.3456732670379947
-0.3456732670379947,-0.3456732670379947
-0.40940227899884934,-0.40940227899884934
-0.377537773018422,-0.377537773018422
-0.4763177415577467,-0.4763177415577467
-0.4763177415577467,-0.4763177415577467
-0.3456732670379947,-0.3456732670379947
-0.21502879251824272,-0.21502879251824272
-0.24689329849867003,-0.24689329849867003
-0.1831642865378154,-0.1831642865378154
-0.21502879251824272,-0.21502879251824272
-0.08438431799849073,-0.08438431799849073
-0.11624882397891806,-0.11624882397891806
0.014395650540833933,0.014395650540833933
-0.020655306037636115,-0.020655306037636115
-0.052519812018063425,-0.052519812018063425
-0.020655306037636115,-0.020655306037636115
0.10998916848211587,0.10998916848211587
0.14504012506058592,0.14504012506058592
0.20876913702144054,0.20876913702144054
0.14504012506058592,0.14504012506058592
0.33941361154119254,0.33941361154119254
0.3075491055607652,0.3075491055607652
0.43819358008051723,0.43819358008051723
0.6325670665611238,0.6325670665611238
0.7313470351004485,0.7313470351004485
0.7950760470613031,0.7950760470613031
0.7313470351004485,0.7313470351004485
0.6644315725415512,0.6644315725415512
0.4063290741000899,0.4063290741000899
0.24063364300186785,0.24063364300186785
0.10998916848211587,0.10998916848211587
0.014395650540833933,0.014395650540833933
-0.052519812018063425,-0.052519812018063425
-0.020655306037636115,-0.020655306037636115
-0.1831642865378154,-0.1831642865378154
-0.1831642865378154,-0.1831642865378154
-0.21502879251824272,-0.21502879251824272
-0.1512997805573881,-0.1512997805573881
-0.3138087610575674,-0.3138087610575674
-0.8013357025581053,-0.8013357025581053
-1.030760145617182,-1.030760145617182
0.7632115410808759,0.7632115410808759
4.089865965437488,4.089865965437488
6.310822032273271,6.310822032273271
3.178541094397266,3.178541094397266
-0.24689329849867003,-0.24689329849867003
-1.4545580751568652,-1.4545580751568652
-0.8363866591365754,-0.8363866591365754
-0.8013357025581053,-0.8013357025581053
-0.7057421846168234,-0.7057421846168234
-0.7376066905972507,-0.7376066905972507
-0.769471196577678,-0.769471196577678
-0.7057421846168234,-0.7057421846168234
-0.8013357025581053,-0.8013357025581053
-0.7376066905972507,-0.7376066905972507
-0.769471196577678,-0.769471196577678
-0.6706912280383533,-0.6706912280383533
-0.7376066905972507,-0.7376066905972507
-0.6706912280383533,-0.6706912280383533
-0.6706912280383533,-0.6706912280383533
-0.5400467535186013,-0.5400467535186013
-0.769471196577678,-0.769471196577678
-0.6706912280383533,-0.6706912280383533
-0.6706912280383533,-0.6706912280383533
-0.638826722057926,-0.638826722057926
-0.6069622160774987,-0.6069622160774987
-0.508182247538174,-0.508182247538174
-0.4763177415577467,-0.4763177415577467
-0.508182247538174,-0.508182247538174
-0.4763177415577467,-0.4763177415577467
-0.40940227899884934,-0.40940227899884934
-0.4763177415577467,-0.4763177415577467
-0.40940227899884934,-0.40940227899884934
-0.40940227899884934,-0.40940227899884934
-0.3456732670379947,-0.3456732670379947
-0.24689329849867003,-0.24689329849867003
-0.1831642865378154,-0.1831642865378154
-0.1512997805573881,-0.1512997805573881
-0.1831642865378154,-0.1831642865378154
-0.11624882397891806,-0.11624882397891806
0.046260156521261246,0.046260156521261246
0.24063364300186785,0.24063364300186785
0.33941361154119254,0.33941361154119254
0.5337870980217991,0.5337870980217991
0.6644315725415512,0.6644315725415512
0.7313470351004485,0.7313470351004485
0.8301270036397732,0.8301270036397732
0.8938560156006278,0.8938560156006278
0.8619915096202004,0.8619915096202004
0.8938560156006278,0.8938560156006278
0.6644315725415512,0.6644315725415512
0.6325670665611238,0.6325670665611238
0.43819358008051723,0.43819358008051723
0.43819358008051723,0.43819358008051723
0.33941361154119254,0.33941361154119254
0.3075491055607652,0.3075491055607652
0.20876913702144054,0.20876913702144054
0.10998916848211587,0.10998916848211587
0.046260156521261246,0.046260156521261246
0.046260156521261246,0.046260156521261246
-0.020655306037636115,-0.020655306037636115
-0.052519812018063425,-0.052519812018063425
-0.020655306037636115,-0.020655306037636115
-0.052519812018063425,-0.052519812018063425
0.014395650540833933,0.014395650540833933
0.046260156521261246,0.046260156521261246
0.07812466250168856,0.07812466250168856
0.14504012506058592,0.14504012506058592
0.2756845995803379,0.2756845995803379
0.20876913702144054,0.20876913702144054
0.2756845995803379,0.2756845995803379
0.17690463104101323,0.17690463104101323
0.24063364300186785,0.24063364300186785
0.17690463104101323,0.17690463104101323
0.14504012506058592,0.14504012506058592
0.10998916848211587,0.10998916848211587
0.17690463104101323,0.17690463104101323
0.14504012506058592,0.14504012506058592
0.24063364300186785,0.24063364300186785
0.2756845995803379,0.2756845995803379
0.3075491055607652,0.3075491055607652
0.3712781175216198,0.3712781175216198
0.5688380546002691,0.5688380546002691
0.6325670665611238,0.6325670665611238
0.6644315725415512,0.6644315725415512
0.6007025605806965,0.6007025605806965
0.6007025605806965,0.6007025605806965
0.4063290741000899,0.4063290741000899
0.20876913702144054,0.20876913702144054
0.014395650540833933,0.014395650540833933
-0.020655306037636115,-0.020655306037636115
0.046260156521261246,0.046260156521261246
-0.020655306037636115,-0.020655306037636115
0.014395650540833933,0.014395650540833933
-0.020655306037636115,-0.020655306037636115
-0.020655306037636115,-0.020655306037636115
-0.020655306037636115,-0.020655306037636115
0.014395650540833933,0.014395650540833933
-0.7057421846168234,-0.7057421846168234
-0.8363866591365754,-0.8363866591365754
1.091415952679277,1.091415952679277
4.481799388996743,4.481799388996743
6.310822032273271,6.310822032273271
3.274134612338548,3.274134612338548
-0.11624882397891806,-0.11624882397891806
-1.3239136006371133,-1.3239136006371133
-0.8363866591365754,-0.8363866591365754
-0.8013357025581053,-0.8013357025581053
-0.8682511651170026,-0.8682511651170026
-0.8682511651170026,-0.8682511651170026
-0.9319801770778573,-0.9319801770778573
-0.9319801770778573,-0.9319801770778573
-0.90011567109743,-0.90011567109743
-0.9638446830582846,-0.9638446830582846
-0.9988956396367547,-0.9988956396367547
-1.030760145617182,-1.030760145617182
-0.9319801770778573,-0.9319801770778573
-0.9319801770778573,-0.9319801770778573
-0.9319801770778573,-0.9319801770778573
-0.9319801770778573,-0.9319801770778573
-0.8682511651170026,-0.8682511651170026
-0.9319801770778573,-0.9319801770778573
-0.8682511651170026,-0.8682511651170026
-0.8682511651170026,-0.8682511651170026
-0.8013357025581053,-0.8013357025581053
-0.8013357025581053,-0.8013357025581053
-0.7376066905972507,-0.7376066905972507
-0.8013357025581053,-0.8013357025581053
-0.7376066905972507,-0.7376066905972507
-0.7057421846168234,-0.7057421846168234
-0.6706912280383533,-0.6706912280383533
-0.7376066905972507,-0.7376066905972507
-0.7376066905972507,-0.7376066905972507
-0.6706912280383533,-0.6706912280383533
-0.638826722057926,-0.638826722057926
-0.5750977100970713,-0.5750977100970713
-0.6069622160774987,-0.6069622160774987
-0.44445323557731936,-0.44445323557731936
-0.4763177415577467,-0.4763177415577467
-0.3138087610575674,-0.3138087610575674
-0.21502879251824272,-0.21502879251824272
-0.020655306037636115,-0.020655306037636115
0.14504012506058592,0.14504012506058592
0.3075491055607652,0.3075491055607652
0.5019225920413718,0.5019225920413718
0.6325670665611238,0.6325670665611238
0.6994825291200212,0.6994825291200212
0.7313470351004485,0.7313470351004485
0.6007025605806965,0.6007025605806965
0.5688380546002691,0.5688380546002691
0.4700580860609445,0.4700580860609445
0.43819358008051723,0.43819358008051723
0.33941361154119254,0.33941361154119254
0.3075491055607652,0.3075491055607652
0.20876913702144054,0.20876913702144054
0.20876913702144054,0.20876913702144054
0.10998916848211587,0.10998916848211587
0.14504012506058592,0.14504012506058592
0.17690463104101323,0.17690463104101323
0.07812466250168856,0.07812466250168856
-0.020655306037636115,-0.020655306037636115
-0.020655306037636115,-0.020655306037636115
-0.020655306037636115,-0.020655306037636115
-0.020655306037636115,-0.020655306037636115
-0.052519812018063425,-0.052519812018063425
-0.08438431799849073,-0.08438431799849073
-0.052519812018063425,-0.052519812018063425
-0.08438431799849073,-0.08438431799849073
0.014395650540833933,0.014395650540833933
0.014395650540833933,0.014395650540833933
0.07812466250168856,0.07812466250168856
0.014395650540833933,0.014395650540833933
0.07812466250168856,0.07812466250168856
0.046260156521261246,0.046260156521261246
0.10998916848211587,0.10998916848211587
0.014395650540833933,0.014395650540833933
-0.020655306037636115,-0.020655306037636115
0.046260156521261246,0.046260156521261246
0.14504012506058592,0.14504012506058592
0.17690463104101323,0.17690463104101323
0.3075491055607652,0.3075491055607652
0.4063290741000899,0.4063290741000899
0.5688380546002691,0.5688380546002691
0.5019225920413718,0.5019225920413718
0.5337870980217991,0.5337870980217991
0.3712781175216198,0.3712781175216198
0.20876913702144054,0.20876913702144054
-0.020655306037636115,-0.020655306037636115
-0.052519812018063425,-0.052519812018063425
-0.1512997805573881,-0.1512997805573881
-0.21502879251824272,-0.21502879251824272
-0.1831642865378154,-0.1831642865378154
-0.27875780447909737,-0.27875780447909737
-0.3456732670379947,-0.3456732670379947
-0.24689329849867003,-0.24689329849867003
-0.1831642865378154,-0.1831642865378154
-0.40940227899884934,-0.40940227899884934
-0.769471196577678,-0.769471196577678
-1.030760145617182,-1.030760145617182
0.4063290741000899,0.4063290741000899
3.2104056003776935,3.2104056003776935
6.310822032273271,6.310822032273271
4.089865965437488,4.089865965437488
0.6644315725415512,0.6644315725415512
-1.3239136006371133,-1.3239136006371133
-0.8363866591365754,-0.8363866591365754
-0.6706912280383533,-0.6706912280383533
-0.6706912280383533,-0.6706912280383533
-0.7376066905972507,-0.7376066905972507
-0.7057421846168234,-0.7057421846168234
-0.6706912280383533,-0.6706912280383533
-0.7376066905972507,-0.7376066905972507
-0.8013357025581053,-0.8013357025581053
-0.8013357025581053,-0.8013357025581053
-0.8013357025581053,-0.8013357025581053
-0.7057421846168234,-0.7057421846168234
-0.6706912280383533,-0.6706912280383533
-0.7376066905972507,-0.7376066905972507
-0.8013357025581053,-0.8013357025581053
-0.8363866591365754,-0.8363866591365754
-0.769471196577678,-0.769471196577678
-0.769471196577678,-0.769471196577678
-0.7057421846168234,-0.7057421846168234
-0.6706912280383533,-0.6706912280383533
-0.6706912280383533,-0.6706912280383533
-0.6706912280383533,-0.6706912280383533
-0.638826722057926,-0.638826722057926
-0.638826722057926,-0.638826722057926
-0.508182247538174,-0.508182247538174
-0.5400467535186013,-0.5400467535186013
-0.4763177415577467,-0.4763177415577467
-0.4763177415577467,-0.4763177415577467
-0.40940227899884934,-0.40940227899884934
-0.377537773018422,-0.377537773018422
-0.3138087610575674,-0.3138087610575674
-0.3456732670379947,-0.3456732670379947
-0.3456732670379947,-0.3456732670379947
-0.27875780447909737,-0.27875780447909737
-0.052519812018063425,-0.052519812018063425
0.046260156521261246,0.046260156521261246
0.14504012506058592,0.14504012506058592
0.2756845995803379,0.2756845995803379
0.4063290741000899,0.4063290741000899
0.5688380546002691,0.5688380546002691
0.6644315725415512,0.6644315725415512
0.7313470351004485,0.7313470351004485
0.6994825291200212,0.6994825291200212
0.7313470351004485,0.7313470351004485
0.5688380546002691,0.5688380546002691
0.5337870980217991,0.5337870980217991
0.3712781175216198,0.3712781175216198
0.3075491055607652,0.3075491055607652
0.24063364300186785,0.24063364300186785
0.17690463104101323,0.17690463104101323
0.10998916848211587,0.10998916848211587
0.10998916848211587,0.10998916848211587
-0.020655306037636115,-0.020655306037636115
0.014395650540833933,0.014395650540833933
-0.052519812018063425,-0.052519812018063425
-0.052519812018063425,-0.052519812018063425
-0.020655306037636115,-0.020655306037636115
-0.08438431799849073,-0.08438431799849073
-0.1512997805573881,-0.1512997805573881
-0.08438431799849073,-0.08438431799849073
-0.020655306037636115,-0.020655306037636115
0.014395650540833933,0.014395650540833933
0.046260156521261246,0.046260156521261246
0.014395650540833933,0.014395650540833933
-0.020655306037636115,-0.020655306037636115
-0.020655306037636115,-0.020655306037636115
-0.020655306037636115,-0.020655306037636115
-0.052519812018063425,-0.052519812018063425
0.046260156521261246,0.046260156521261246
-0.020655306037636115,-0.020655306037636115
-0.020655306037636115,-0.020655306037636115
-0.08438431799849073,-0.08438431799849073
-0.052519812018063425,-0.052519812018063425
-0.11624882397891806,-0.11624882397891806
0.07812466250168856,0.07812466250168856
0.046260156521261246,0.046260156521261246
0.24063364300186785,0.24063364300186785
0.4063290741000899,0.4063290741000899
0.5019225920413718,0.5019225920413718
0.5337870980217991,0.5337870980217991
0.5688380546002691,0.5688380546002691
0.3075491055607652,0.3075491055607652
0.014395650540833933,0.014395650540833933
-0.1512997805573881,-0.1512997805573881
-0.24689329849867003,-0.24689329849867003
-0.21502879251824272,-0.21502879251824272
-0.27875780447909737,-0.27875780447909737
-0.377537773018422,-0.377537773018422
-0.377537773018422,-0.377537773018422
-0.40940227899884934,-0.40940227899884934
-0.508182247538174,-0.508182247538174
-0.4763177415577467,-0.4763177415577467
-0.5400467535186013,-0.5400467535186013
-0.9988956396367547,-0.9988956396367547
-1.0944891575780367,-1.0944891575780367
0.8938560156006278,0.8938560156006278
4.156781427996385,4.156781427996385
6.212042063733946,6.212042063733946
2.754743164857583,2.754743164857583
-0.44445323557731936,-0.44445323557731936
-1.4545580751568652,-1.4545580751568652
-0.8682511651170026,-0.8682511651170026
-0.8013357025581053,-0.8013357025581053
-0.7057421846168234,-0.7057421846168234
-0.8363866591365754,-0.8363866591365754
-0.8013357025581053,-0.8013357025581053
-0.8013357025581053,-0.8013357025581053
-0.8013357025581053,-0.8013357025581053
-0.8013357025581053,-0.8013357025581053
-0.8363866591365754,-0.8363866591365754
-0.9319801770778573,-0.9319801770778573
-0.9638446830582846,-0.9638446830582846
-0.9319801770778573,-0.9319801770778573
-0.9988956396367547,-0.9988956396367547
-0.9319801770778573,-0.9319801770778573
-0.9319801770778573,-0.9319801770778573
-0.9988956396367547,-0.9988956396367547
-1.030760145617182,-1.030760145617182
-1.030760145617182,-1.030760145617182
-1.1295401141565067,-1.1295401141565067
-1.161404620136934,-1.161404620136934
-1.2251336320977886,-1.2251336320977886
-1.2601845886762586,-1.2601845886762586
-1.292049094656686,-1.292049094656686
-1.3557781066175405,-1.3557781066175405
-1.422693569176438,-1.422693569176438
-1.3908290631960105,-1.3908290631960105
-1.4864225811372926,-1.4864225811372926
-1.4545580751568652,-1.4545580751568652
-1.422693569176438,-1.422693569176438
-1.422693569176438,-1.422693569176438
-1.3908290631960105,-1.3908290631960105
-1.2251336320977886,-1.2251336320977886
-1.161404620136934,-1.161404620136934
-1.2601845886762586,-1.2601845886762586
-0.9988956396367547,-0.9988956396367547
-0.8682511651170026,-0.8682511651170026
-0.638826722057926,-0.638826722057926
-0.508182247538174,-0.508182247538174
-0.3456732670379947,-0.3456732670379947
-0.1831642865378154,-0.1831642865378154
-0.11624882397891806,-0.11624882397891806
-0.1831642865378154,-0.1831642865378154
-0.08438431799849073,-0.08438431799849073
-0.1512997805573881,-0.1512997805573881
-0.1512997805573881,-0.1512997805573881
-0.1831642865378154,-0.1831642865378154
-0.020655306037636115,-0.020655306037636115
0.14504012506058592,0.14504012506058592
0.2756845995803379,0.2756845995803379
0.43819358008051723,0.43819358008051723
0.6325670665611238,0.6325670665611238
0.7632115410808759,0.7632115410808759
1.0245004901203798,1.0245004901203798
1.1232804586597045,1.1232804586597045
1.091415952679277,1.091415952679277
1.317653945140311,1.317653945140311
1.1551449646401317,1.1551449646401317
1.2539249331794564,1.2539249331794564
1.2857894391598839,1.2857894391598839
1.317653945140311,1.317653945140311
1.2857894391598839,1.2857894391598839
1.1551449646401317,1.1551449646401317
1.091415952679277,1.091415952679277
1.1232804586597045,1.1232804586597045
0.9607714781595251,0.9607714781595251
1.056364996100807,1.056364996100807
1.0245004901203798,1.0245004901203798
1.056364996100807,1.056364996100807
1.056364996100807,1.056364996100807
1.091415952679277,1.091415952679277
0.9257205215810551,0.9257205215810551
1.0245004901203798,1.0245004901203798
1.056364996100807,1.056364996100807
1.056364996100807,1.056364996100807
1.091415952679277,1.091415952679277
1.2539249331794564,1.2539249331794564
1.2857894391598839,1.2857894391598839
1.4164339136796358,1.4164339136796358
1.4801629256404905,1.4801629256404905
1.1870094706205592,1.1870094706205592
0.9607714781595251,0.9607714781595251
0.7950760470613031,0.7950760470613031
0.5688380546002691,0.5688380546002691
0.5337870980217991,0.5337870980217991
0.5688380546002691,0.5688380546002691
0.6007025605806965,0.6007025605806965
0.5337870980217991,0.5337870980217991
0.5688380546002691,0.5688380546002691
0.4700580860609445,0.4700580860609445
0.3075491055607652,0.3075491055607652
0.20876913702144054,0.20876913702144054
-0.3138087610575674,-0.3138087610575674
-0.44445323557731936,-0.44445323557731936
1.317653945140311,1.317653945140311
4.513663894977171,4.513663894977171
6.310822032273271,6.310822032273271
3.7648480044371286,3.7648480044371286
0.3075491055607652,0.3075491055607652
-0.9638446830582846,-0.9638446830582846
-0.40940227899884934,-0.40940227899884934
-0.27875780447909737,-0.27875780447909737
-0.3456732670379947,-0.3456732670379947
-0.3456732670379947,-0.3456732670379947
-0.3456732670379947,-0.3456732670379947
-0.40940227899884934,-0.40940227899884934
-0.3456732670379947,-0.3456732670379947
-0.44445323557731936,-0.44445323557731936
-0.4763177415577467,-0.4763177415577467
-0.508182247538174,-0.508182247538174
-0.5750977100970713,-0.5750977100970713
-0.6069622160774987,-0.6069622160774987
-0.5750977100970713,-0.5750977100970713
-0.638826722057926,-0.638826722057926
-0.6706912280383533,-0.6706912280383533
-0.7057421846168234,-0.7057421846168234
-0.6069622160774987,-0.6069622160774987
-0.6706912280383533,-0.6706912280383533
-0.7057421846168234,-0.7057421846168234
-0.7376066905972507,-0.7376066905972507
-0.638826722057926,-0.638826722057926
-0.6706912280383533,-0.6706912280383533
-0.638826722057926,-0.638826722057926
-0.638826722057926,-0.638826722057926
-0.638826722057926,-0.638826722057926
-0.638826722057926,-0.638826722057926
-0.5750977100970713,-0.5750977100970713
-0.5400467535186013,-0.5400467535186013
-0.40940227899884934,-0.40940227899884934
-0.3456732670379947,-0.3456732670379947
-0.3456732670379947,-0.3456732670379947
-0.3138087610575674,-0.3138087610575674
-0.24689329849867003,-0.24689329849867003
-0.1512997805573881,-0.1512997805573881
-0.052519812018063425,-0.052519812018063425
0.046260156521261246,0.046260156521261246
0.2756845995803379,0.2756845995803379
0.4063290741000899,0.4063290741000899
0.5019225920413718,0.5019225920413718
0.6325670665611238,0.6325670665611238
0.6644315725415512,0.6644315725415512
0.6325670665611238,0.6325670665611238
0.5337870980217991,0.5337870980217991
0.4063290741000899,0.4063290741000899
0.2756845995803379,0.2756845995803379
0.14504012506058592,0.14504012506058592
0.046260156521261246,0.046260156521261246
0.014395650540833933,0.014395650540833933
-0.052519812018063425,-0.052519812018063425
-0.020655306037636115,-0.020655306037636115
-0.08438431799849073,-0.08438431799849073
-0.052519812018063425,-0.052519812018063425
-0.1831642865378154,-0.1831642865378154
-0.21502879251824272,-0.21502879251824272
-0.3138087610575674,-0.3138087610575674
-0.21502879251824272,-0.21502879251824272
-0.3138087610575674,-0.3138087610575674
-0.21502879251824272,-0.21502879251824272
-0.27875780447909737,-0.27875780447909737
-0.24689329849867003,-0.24689329849867003
-0.21502879251824272,-0.21502879251824272
-0.27875780447909737,-0.27875780447909737
-0.24689329849867003,-0.24689329849867003
-0.3138087610575674,-0.3138087610575674
-0.24689329849867003,-0.24689329849867003
-0.3138087610575674,-0.3138087610575674
-0.21502879251824272,-0.21502879251824272
-0.24689329849867003,-0.24689329849867003
-0.1831642865378154,-0.1831642865378154
-0.27875780447909737,-0.27875780447909737
-0.1831642865378154,-0.1831642865378154
-0.21502879251824272,-0.21502879251824272
-0.1831642865378154,-0.1831642865378154
-0.11624882397891806,-0.11624882397891806
0.046260156521261246,0.046260156521261246
0.2756845995803379,0.2756845995803379
0.3075491055607652,0.3075491055607652
0.2756845995803379,0.2756845995803379
0.20876913702144054,0.20876913702144054
0.07812466250168856,0.07812466250168856
-0.1512997805573881,-0.1512997805573881
-0.3456732670379947,-0.3456732670379947
-0.377537773018422,-0.377537773018422
-0.377537773018422,-0.377537773018422
-0.377537773018422,-0.377537773018422
-0.3456732670379947,-0.3456732670379947
-0.44445323557731936,-0.44445323557731936
-0.377537773018422,-0.377537773018422
-0.377537773018422,-0.377537773018422
-0.3456732670379947,-0.3456732670379947
-0.6069622160774987,-0.6069622160774987
-0.9988956396367547,-0.9988956396367547
-0.24689329849867003,-0.24689329849867003
2.2003007607981475,2.2003007607981475
5.918888608714015,5.918888608714015
6.310822032273271,6.310822032273271
1.5789428941798151,1.5789428941798151
-0.9638446830582846,-0.9638446830582846
-1.2601845886762586,-1.2601845886762586
-0.5750977100970713,-0.5750977100970713
-0.638826722057926,-0.638826722057926
-0.6069622160774987,-0.6069622160774987
-0.638826722057926,-0.638826722057926
-0.6069622160774987,-0.6069622160774987
-0.7376066905972507,-0.7376066905972507
-0.769471196577678,-0.769471196577678
-0.8363866591365754,-0.8363866591365754
-0.8682511651170026,-0.8682511651170026
-0.8013357025581053,-0.8013357025581053
-0.8013357025581053,-0.8013357025581053
-0.8013357025581053,-0.8013357025581053
-0.8013357025581053,-0.8013357025581053
-0.8363866591365754,-0.8363866591365754
-0.8363866591365754,-0.8363866591365754
-0.90011567109743,-0.90011567109743
-0.8682511651170026,-0.8682511651170026
-0.8363866591365754,-0.8363866591365754
-0.90011567109743,-0.90011567109743
-0.8682511651170026,-0.8682511651170026
-0.90011567109743,-0.90011567109743
-0.8363866591365754,-0.8363866591365754
-0.8682511651170026,-0.8682511651170026
-0.769471196577678,-0.769471196577678
-0.769471196577678,-0.769471196577678
-0.6706912280383533,-0.6706912280383533
-0.7057421846168234,-0.7057421846168234
-0.6706912280383533,-0.6706912280383533
-0.7057421846168234,-0.7057421846168234
-0.5750977100970713,-0.5750977100970713
-0.5400467535186013,-0.5400467535186013
-0.377537773018422,-0.377537773018422
-0.27875780447909737,-0.27875780447909737
-0.1512997805573881,-0.1512997805573881
-0.052519812018063425,-0.052519812018063425
0.14504012506058592,0.14504012506058592
0.3075491055607652,0.3075491055607652
0.4700580860609445,0.4700580860609445
0.6007025605806965,0.6007025605806965
0.6994825291200212,0.6994825291200212
0.7313470351004485,0.7313470351004485
0.6007025605806965,0.6007025605806965
0.5688380546002691,0.5688380546002691
0.4700580860609445,0.4700580860609445
0.4063290741000899,0.4063290741000899
0.2756845995803379,0.2756845995803379
0.3075491055607652,0.3075491055607652
0.20876913702144054,0.20876913702144054
0.17690463104101323,0.17690463104101323
0.14504012506058592,0.14504012506058592
0.14504012506058592,0.14504012506058592
0.10998916848211587,0.10998916848211587
0.17690463104101323,0.17690463104101323
0.07812466250168856,0.07812466250168856
0.046260156521261246,0.046260156521261246
-0.020655306037636115,-0.020655306037636115
-0.020655306037636115,-0.020655306037636115
-0.020655306037636115,-0.020655306037636115
-0.020655306037636115,-0.020655306037636115
0.014395650540833933,0.014395650540833933
-0.020655306037636115,-0.020655306037636115
-0.052519812018063425,-0.052519812018063425
-0.020655306037636115,-0.020655306037636115
-0.052519812018063425,-0.052519812018063425
-0.11624882397891806,-0.11624882397891806
-0.020655306037636115,-0.020655306037636115
-0.052519812018063425,-0.052519812018063425
-0.020655306037636115,-0.020655306037636115
-0.052519812018063425,-0.052519812018063425
-0.020655306037636115,-0.020655306037636115
0.014395650540833933,0.014395650540833933
0.17690463104101323,0.17690463104101323
0.14504012506058592,0.14504012506058592
0.20876913702144054,0.20876913702144054
0.2756845995803379,0.2756845995803379
0.5688380546002691,0.5688380546002691
0.6007025605806965,0.6007025605806965
0.6644315725415512,0.6644315725415512
0.4700580860609445,0.4700580860609445
0.3712781175216198,0.3712781175216198
0.046260156521261246,0.046260156521261246
-0.1512997805573881,-0.1512997805573881
-0.21502879251824272,-0.21502879251824272
-0.1831642865378154,-0.1831642865378154
-0.1831642865378154,-0.1831642865378154
-0.24689329849867003,-0.24689329849867003
-0.3138087610575674,-0.3138087610575674
-0.24689329849867003,-0.24689329849867003
-0.3138087610575674,-0.3138087610575674
-0.3456732670379947,-0.3456732670379947
-0.6069622160774987,-0.6069622160774987
-1.030760145617182,-1.030760145617182
-0.24689329849867003,-0.24689329849867003
2.2958942787394294,2.2958942787394294
6.113262095194622,6.113262095194622
6.310822032273271,6.310822032273271
1.5152138822189605,1.5152138822189605
-1.0944891575780367,-1.0944891575780367
-1.3239136006371133,-1.3239136006371133
-0.7057421846168234,-0.7057421846168234
-0.6706912280383533,-0.6706912280383533
-0.7376066905972507,-0.7376066905972507
-0.638826722057926,-0.638826722057926
-0.6706912280383533,-0.6706912280383533
-0.6069622160774987,-0.6069622160774987
-0.6706912280383533,-0.6706912280383533
-0.769471196577678,-0.769471196577678
-0.7057421846168234,-0.7057421846168234
-0.638826722057926,-0.638826722057926
-0.6069622160774987,-0.6069622160774987
-0.5750977100970713,-0.5750977100970713
-0.638826722057926,-0.638826722057926
-0.6706912280383533,-0.6706912280383533
-0.7376066905972507,-0.7376066905972507
-0.7376066905972507,-0.7376066905972507
-0.7376066905972507,-0.7376066905972507
-0.638826722057926,-0.638826722057926
-0.638826722057926,-0.638826722057926
-0.638826722057926,-0.638826722057926
-0.638826722057926,-0.638826722057926
-0.638826722057926,-0.638826722057926
-0.6069622160774987,-0.6069622160774987
-0.638826722057926,-0.638826722057926
-0.6069622160774987,-0.6069622160774987
-0.638826722057926,-0.638826722057926
-0.5400467535186013,-0.5400467535186013
-0.4763177415577467,-0.4763177415577467
-0.508182247538174,-0.508182247538174
-0.5400467535186013,-0.5400467535186013
-0.377537773018422,-0.377537773018422
-0.27875780447909737,-0.27875780447909737
-0.052519812018063425,-0.052519812018063425
-0.020655306037636115,-0.020655306037636115
0.20876913702144054,0.20876913702144054
0.2756845995803379,0.2756845995803379
0.43819358008051723,0.43819358008051723
0.7632115410808759,0.7632115410808759
0.8938560156006278,0.8938560156006278
0.8619915096202004,0.8619915096202004
0.7632115410808759,0.7632115410808759
0.7313470351004485,0.7313470351004485
0.6325670665611238,0.6325670665611238
0.5337870980217991,0.5337870980217991
0.5019225920413718,0.5019225920413718
0.43819358008051723,0.43819358008051723
0.33941361154119254,0.33941361154119254
0.24063364300186785,0.24063364300186785
0.14504012506058592,0.14504012506058592
0.10998916848211587,0.10998916848211587
0.046260156521261246,0.046260156521261246
0.014395650540833933,0.014395650540833933
0.10998916848211587,0.10998916848211587
0.046260156521261246,0.046260156521261246
-0.020655306037636115,-0.020655306037636115
-0.08438431799849073,-0.08438431799849073
-0.052519812018063425,-0.052519812018063425
-0.1831642865378154,-0.1831642865378154
-0.08438431799849073,-0.08438431799849073
-0.11624882397891806,-0.11624882397891806
-0.020655306037636115,-0.020655306037636115
-0.052519812018063425,-0.052519812018063425
-0.08438431799849073,-0.08438431799849073
-0.020655306037636115,-0.020655306037636115
-0.052519812018063425,-0.052519812018063425
-0.1512997805573881,-0.1512997805573881
-0.11624882397891806,-0.11624882397891806
-0.08438431799849073,-0.08438431799849073
-0.052519812018063425,-0.052519812018063425
-0.020655306037636115,-0.020655306037636115
0.014395650540833933,0.014395650540833933
-0.020655306037636115,-0.020655306037636115
-0.052519812018063425,-0.052519812018063425
0.07812466250168856,0.07812466250168856
0.10998916848211587,0.10998916848211587
0.3075491055607652,0.3075491055607652
0.43819358008051723,0.43819358008051723
0.4700580860609445,0.4700580860609445
0.5337870980217991,0.5337870980217991
0.20876913702144054,0.20876913702144054
0.07812466250168856,0.07812466250168856
-0.08438431799849073,-0.08438431799849073
-0.11624882397891806,-0.11624882397891806
-0.21502879251824272,-0.21502879251824272
-0.27875780447909737,-0.27875780447909737
-0.377537773018422,-0.377537773018422
-0.3456732670379947,-0.3456732670379947
-0.3138087610575674,-0.3138087610575674
-0.377537773018422,-0.377537773018422
-0.44445323557731936,-0.44445323557731936
-0.5400467535186013,-0.5400467535186013
-1.030760145617182,-1.030760145617182
-1.292049094656686,-1.292049094656686
0.4700580860609445,0.4700580860609445
3.6023390239369495,3.6023390239369495
6.310822032273271,6.310822032273271
3.2104056003776935,3.2104056003776935
-0.1831642865378154,-0.1831642865378154
-1.5533380436961899,-1.5533380436961899
-0.9638446830582846,-0.9638446830582846
-0.8682511651170026,-0.8682511651170026
-0.8013357025581053,-0.8013357025581053
-0.769471196577678,-0.769471196577678
-0.6706912280383533,-0.6706912280383533
-0.6706912280383533,-0.6706912280383533
-0.8013357025581053,-0.8013357025581053
-0.8013357025581053,-0.8013357025581053
-0.7057421846168234,-0.7057421846168234
-0.638826722057926,-0.638826722057926
-0.6069622160774987,-0.6069622160774987
-0.5400467535186013,-0.5400467535186013
-0.508182247538174,-0.508182247538174
-0.4763177415577467,-0.4763177415577467
-0.508182247538174,-0.508182247538174
-0.44445323557731936,-0.44445323557731936
-0.44445323557731936,-0.44445323557731936
-0.508182247538174,-0.508182247538174
-0.5400467535186013,-0.5400467535186013
-0.508182247538174,-0.508182247538174
-0.5400467535186013,-0.5400467535186013
-0.4763177415577467,-0.4763177415577467
-0.4763177415577467,-0.4763177415577467
-0.40940227899884934,-0.40940227899884934
-0.4763177415577467,-0.4763177415577467
-0.4763177415577467,-0.4763177415577467
-0.5750977100970713,-0.5750977100970713
-0.4763177415577467,-0.4763177415577467
-0.4763177415577467,-0.4763177415577467
-0.3456732670379947,-0.3456732670379947
-0.21502879251824272,-0.21502879251824272
-0.020655306037636115,-0.020655306037636115
0.14504012506058592,0.14504012506058592
0.33941361154119254,0.33941361154119254
0.5688380546002691,0.5688380546002691
0.7950760470613031,0.7950760470613031
1.056364996100807,1.056364996100807
1.3845694076992083,1.3845694076992083
1.6108074001602424,1.6108074001602424
1.8083673372388918,1.8083673372388918
1.9390118117586437,1.9390118117586437
2.002740823719498,2.002740823719498
2.069656286278396,2.069656286278396
1.970876317739071,1.970876317739071
1.8720963491997464,1.8720963491997464
1.7733163806604217,1.7733163806604217
1.709587368699567,1.709587368699567
1.6108074001602424,1.6108074001602424
1.5152138822189605,1.5152138822189605
1.3495184511207383,1.3495184511207383
1.2857894391598839,1.2857894391598839
1.1870094706205592,1.1870094706205592
1.056364996100807,1.056364996100807
0.8938560156006278,0.8938560156006278
0.8301270036397732,0.8301270036397732
0.6325670665611238,0.6325670665611238
0.6007025605806965,0.6007025605806965
0.4700580860609445,0.4700580860609445
0.43819358008051723,0.43819358008051723
0.3075491055607652,0.3075491055607652
0.24063364300186785,0.24063364300186785
0.14504012506058592,0.14504012506058592
0.10998916848211587,0.10998916848211587
0.046260156521261246,0.046260156521261246
-0.020655306037636115,-0.020655306037636115
-0.020655306037636115,-0.020655306037636115
-0.052519812018063425,-0.052519812018063425
-0.11624882397891806,-0.11624882397891806
-0.27875780447909737,-0.27875780447909737
-0.3138087610575674,-0.3138087610575674
-0.3138087610575674,-0.3138087610575674
-0.21502879251824272,-0.21502879251824272
-0.3138087610575674,-0.3138087610575674
-0.3138087610575674,-0.3138087610575674
-0.24689329849867003,-0.24689329849867003
-0.020655306037636115,-0.020655306037636115
-0.08438431799849073,-0.08438431799849073
-0.11624882397891806,-0.11624882397891806
-0.3138087610575674,-0.3138087610575674
-0.44445323557731936,-0.44445323557731936
-0.8013357025581053,-0.8013357025581053
-0.90011567109743,-0.90011567109743
-0.9988956396367547,-0.9988956396367547
-1.0944891575780367,-1.0944891575780367
-1.161404620136934,-1.161404620136934
-1.161404620136934,-1.161404620136934
-1.292049094656686,-1.292049094656686
-1.3908290631960105,-1.3908290631960105
-1.422693569176438,-1.422693569176438
-1.5533380436961899,-1.5533380436961899
-1.779576036157224,-1.779576036157224
-2.1396449537360525,-2.1396449537360525
-1.292049094656686,-1.292049094656686
1.091415952679277,1.091415952679277
4.873732812555999,4.873732812555999
5.495090679174332,5.495090679174332
0.6007025605806965,0.6007025605806965
-2.1396449537360525,-2.1396449537360525
-2.4327984087559837,-2.4327984087559837
-1.814626992735694,-1.814626992735694
-1.814626992735694,-1.814626992735694
-1.8464914987161212,-1.8464914987161212
-1.6489315616374718,-1.6489315616374718
-1.7158470241963693,-1.7158470241963693
-1.6839825182159418,-1.6839825182159418
-1.5852025496766173,-1.5852025496766173
-1.6489315616374718,-1.6489315616374718
-1.8464914987161212,-1.8464914987161212
-2.0408649851967278,-2.0408649851967278
-2.203373965696907,-2.203373965696907
-2.238424922275377,-2.238424922275377
-2.203373965696907,-2.203373965696907
-2.238424922275377,-2.238424922275377
-2.0408649851967278,-2.0408649851967278
-1.814626992735694,-1.814626992735694
-1.4864225811372926,-1.4864225811372926
-1.3908290631960105,-1.3908290631960105
-1.3557781066175405,-1.3557781066175405
-1.161404620136934,-1.161404620136934
-0.8013357025581053,-0.8013357025581053
-0.638826722057926,-0.638826722057926
-0.44445323557731936,-0.44445323557731936
-0.377537773018422,-0.377537773018422
-0.21502879251824272,-0.21502879251824272
-0.1512997805573881,-0.1512997805573881
0.014395650540833933,0.014395650540833933
0.07812466250168856,0.07812466250168856
0.14504012506058592,0.14504012506058592
0.10998916848211587,0.10998916848211587
0.2756845995803379,0.2756845995803379
0.43819358008051723,0.43819358008051723
0.5688380546002691,0.5688380546002691
0.6644315725415512,0.6644315725415512
0.7313470351004485,0.7313470351004485
0.8301270036397732,0.8301270036397732
1.0245004901203798,1.0245004901203798
1.1551449646401317,1.1551449646401317
1.091415952679277,1.091415952679277
1.1551449646401317,1.1551449646401317
1.091415952679277,1.091415952679277
1.056364996100807,1.056364996100807
0.9926359841399525,0.9926359841399525
0.8619915096202004,0.8619915096202004
0.7313470351004485,0.7313470351004485
0.6007025605806965,0.6007025605806965
0.4063290741000899,0.4063290741000899
0.3712781175216198,0.3712781175216198
0.3075491055607652,0.3075491055607652
0.20876913702144054,0.20876913702144054
0.14504012506058592,0.14504012506058592
0.2756845995803379,0.2756845995803379
0.2756845995803379,0.2756845995803379
0.20876913702144054,0.20876913702144054
0.14504012506058592,0.14504012506058592
0.14504012506058592,0.14504012506058592
0.14504012506058592,0.14504012506058592
0.20876913702144054,0.20876913702144054
0.24063364300186785,0.24063364300186785
0.14504012506058592,0.14504012506058592
0.14504012506058592,0.14504012506058592
0.24063364300186785,0.24063364300186785
0.2756845995803379,0.2756845995803379
0.10998916848211587,0.10998916848211587
0.10998916848211587,0.10998916848211587
0.20876913702144054,0.20876913702144054
0.2756845995803379,0.2756845995803379
0.20876913702144054,0.20876913702144054
0.2756845995803379,0.2756845995803379
0.2756845995803379,0.2756845995803379
0.2756845995803379,0.2756845995803379
0.3712781175216198,0.3712781175216198
0.43819358008051723,0.43819358008051723
0.5337870980217991,0.5337870980217991
0.7632115410808759,0.7632115410808759
0.8619915096202004,0.8619915096202004
1.0245004901203798,1.0245004901203798
0.9926359841399525,0.9926359841399525
0.8938560156006278,0.8938560156006278
0.6994825291200212,0.6994825291200212
0.4700580860609445,0.4700580860609445
0.33941361154119254,0.33941361154119254
0.2756845995803379,0.2756845995803379
0.14504012506058592,0.14504012506058592
0.14504012506058592,0.14504012506058592
0.046260156521261246,0.046260156521261246
0.20876913702144054,0.20876913702144054
0.2756845995803379,0.2756845995803379
0.14504012506058592,0.14504012506058592
-0.052519812018063425,-0.052519812018063425
-0.5750977100970713,-0.5750977100970713
-0.8363866591365754,-0.8363866591365754
0.5688380546002691,0.5688380546002691
3.796712510417556,3.796712510417556
6.310822032273271,6.310822032273271
4.905597318536427,4.905597318536427
1.1870094706205592,1.1870094706205592
-0.90011567109743,-0.90011567109743
-0.5400467535186013,-0.5400467535186013
-0.40940227899884934,-0.40940227899884934
-0.6069622160774987,-0.6069622160774987
-0.7376066905972507,-0.7376066905972507
-0.8013357025581053,-0.8013357025581053
-0.7376066905972507,-0.7376066905972507
-0.8682511651170026,-0.8682511651170026
-0.9319801770778573,-0.9319801770778573
-0.9988956396367547,-0.9988956396367547
-0.9319801770778573,-0.9319801770778573
-0.8682511651170026,-0.8682511651170026
-0.769471196577678,-0.769471196577678
-0.8682511651170026,-0.8682511651170026
-1.030760145617182,-1.030760145617182
-1.1932691261173614,-1.1932691261173614
-1.2601845886762586,-1.2601845886762586
-1.0626246515976092,-1.0626246515976092
-1.0944891575780367,-1.0944891575780367
-1.0944891575780367,-1.0944891575780367
-1.0626246515976092,-1.0626246515976092
-0.9988956396367547,-0.9988956396367547
-0.9638446830582846,-0.9638446830582846
-0.9319801770778573,-0.9319801770778573
-0.9319801770778573,-0.9319801770778573
-0.8363866591365754,-0.8363866591365754
-0.8013357025581053,-0.8013357025581053
-0.7057421846168234,-0.7057421846168234
-0.638826722057926,-0.638826722057926
-0.5400467535186013,-0.5400467535186013
-0.6069622160774987,-0.6069622160774987
-0.508182247538174,-0.508182247538174
-0.44445323557731936,-0.44445323557731936
-0.27875780447909737,-0.27875780447909737
-0.1512997805573881,-0.1512997805573881
0.07812466250168856,0.07812466250168856
0.24063364300186785,0.24063364300186785
0.4063290741000899,0.4063290741000899
0.43819358008051723,0.43819358008051723
0.6994825291200212,0.6994825291200212
0.7950760470613031,0.7950760470613031
0.8938560156006278,0.8938560156006278
0.9257205215810551,0.9257205215810551
0.8938560156006278,0.8938560156006278
0.7632115410808759,0.7632115410808759
0.6644315725415512,0.6644315725415512
0.5688380546002691,0.5688380546002691
0.5019225920413718,0.5019225920413718
0.43819358008051723,0.43819358008051723
0.3712781175216198,0.3712781175216198
0.3712781175216198,0.3712781175216198
0.33941361154119254,0.33941361154119254
0.4063290741000899,0.4063290741000899
0.2756845995803379,0.2756845995803379
0.2756845995803379,0.2756845995803379
0.20876913702144054,0.20876913702144054
0.24063364300186785,0.24063364300186785
0.20876913702144054,0.20876913702144054
0.24063364300186785,0.24063364300186785
0.17690463104101323,0.17690463104101323
0.20876913702144054,0.20876913702144054
0.20876913702144054,0.20876913702144054
0.24063364300186785,0.24063364300186785
0.20876913702144054,0.20876913702144054
0.20876913702144054,0.20876913702144054
0.14504012506058592,0.14504012506058592
0.14504012506058592,0.14504012506058592
0.10998916848211587,0.10998916848211587
0.10998916848211587,0.10998916848211587
0.14504012506058592,0.14504012506058592
0.07812466250168856,0.07812466250168856
0.17690463104101323,0.17690463104101323
0.20876913702144054,0.20876913702144054
0.3075491055607652,0.3075491055607652
0.4063290741000899,0.4063290741000899
0.6007025605806965,0.6007025605806965
0.6007025605806965,0.6007025605806965
0.6644315725415512,0.6644315725415512
0.4700580860609445,0.4700580860609445
0.3075491055607652,0.3075491055607652
0.046260156521261246,0.046260156521261246
-0.08438431799849073,-0.08438431799849073
-0.1831642865378154,-0.1831642865378154
-0.1831642865378154,-0.1831642865378154
-0.21502879251824272,-0.21502879251824272
-0.1831642865378154,-0.1831642865378154
-0.27875780447909737,-0.27875780447909737
-0.24689329849867003,-0.24689329849867003
-0.21502879251824272,-0.21502879251824272
-0.24689329849867003,-0.24689329849867003
-0.6069622160774987,-0.6069622160774987
-0.90011567109743,-0.90011567109743
0.10998916848211587,0.10998916848211587
2.850336682798865,2.850336682798865
6.310822032273271,6.310822032273271
4.679359326075392,4.679359326075392
1.056364996100807,1.056364996100807
-1.1932691261173614,-1.1932691261173614
-0.8363866591365754,-0.8363866591365754
-0.638826722057926,-0.638826722057926
-0.638826722057926,-0.638826722057926
-0.638826722057926,-0.638826722057926
-0.638826722057926,-0.638826722057926
-0.7376066905972507,-0.7376066905972507
-0.638826722057926,-0.638826722057926
-0.7057421846168234,-0.7057421846168234
-0.7376066905972507,-0.7376066905972507
-0.8013357025581053,-0.8013357025581053
-0.7376066905972507,-0.7376066905972507
-0.769471196577678,-0.769471196577678
-0.7057421846168234,-0.7057421846168234
-0.8013357025581053,-0.8013357025581053
-0.769471196577678,-0.769471196577678
-0.8013357025581053,-0.8013357025581053
-0.7376066905972507,-0.7376066905972507
-0.7376066905972507,-0.7376066905972507
-0.7057421846168234,-0.7057421846168234
-0.7376066905972507,-0.7376066905972507
-0.7057421846168234,-0.7057421846168234
-0.7376066905972507,-0.7376066905972507
-0.6706912280383533,-0.6706912280383533
-0.638826722057926,-0.638826722057926
-0.5750977100970713,-0.5750977100970713
-0.6069622160774987,-0.6069622160774987
-0.5750977100970713,-0.5750977100970713
-0.4763177415577467,-0.4763177415577467
-0.508182247538174,-0.508182247538174
-0.377537773018422,-0.377537773018422
-0.40940227899884934,-0.40940227899884934
-0.24689329849867003,-0.24689329849867003
-0.24689329849867003,-0.24689329849867003
-0.11624882397891806,-0.11624882397891806
-0.052519812018063425,-0.052519812018063425
0.07812466250168856,0.07812466250168856
0.14504012506058592,0.14504012506058592
0.4063290741000899,0.4063290741000899
0.5337870980217991,0.5337870980217991
0.6325670665611238,0.6325670665611238
0.7313470351004485,0.7313470351004485
0.7313470351004485,0.7313470351004485
0.6325670665611238,0.6325670665611238
0.6007025605806965,0.6007025605806965
0.5337870980217991,0.5337870980217991
0.43819358008051723,0.43819358008051723
0.3712781175216198,0.3712781175216198
0.24063364300186785,0.24063364300186785
0.14504012506058592,0.14504012506058592
0.10998916848211587,0.10998916848211587
0.07812466250168856,0.07812466250168856
0.014395650540833933,0.014395650540833933
-0.020655306037636115,-0.020655306037636115
-0.020655306037636115,-0.020655306037636115
0.046260156521261246,0.046260156521261246
0.014395650540833933,0.014395650540833933
0.14504012506058592,0.14504012506058592
0.046260156521261246,0.046260156521261246
0.10998916848211587,0.10998916848211587
0.07812466250168856,0.07812466250168856
0.14504012506058592,0.14504012506058592
0.07812466250168856,0.07812466250168856
0.17690463104101323,0.17690463104101323
0.10998916848211587,0.10998916848211587
0.07812466250168856,0.07812466250168856
-0.052519812018063425,-0.052519812018063425
-0.1512997805573881,-0.1512997805573881
-0.24689329849867003,-0.24689329849867003
-0.21502879251824272,-0.21502879251824272
-0.1831642865378154,-0.1831642865378154
-0.24689329849867003,-0.24689329849867003
-0.3138087610575674,-0.3138087610575674
-0.3456732670379947,-0.3456732670379947
-0.3456732670379947,-0.3456732670379947
-0.21502879251824272,-0.21502879251824272
-0.1831642865378154,-0.1831642865378154
-0.11624882397891806,-0.11624882397891806
-0.08438431799849073,-0.08438431799849073
-0.27875780447909737,-0.27875780447909737
-0.377537773018422,-0.377537773018422
-0.8363866591365754,-0.8363866591365754
-0.9988956396367547,-0.9988956396367547
-1.1295401141565067,-1.1295401141565067
-1.0944891575780367,-1.0944891575780367
-1.2251336320977886,-1.2251336320977886
-1.1932691261173614,-1.1932691261173614
-1.2251336320977886,-1.2251336320977886
-0.9319801770778573,-0.9319801770778573
-0.8363866591365754,-0.8363866591365754
-0.638826722057926,-0.638826722057926
-0.5750977100970713,-0.5750977100970713
-0.9988956396367547,-0.9988956396367547
-1.0944891575780367,-1.0944891575780367
1.0245004901203798,1.0245004901203798
4.188645933976812,4.188645933976812
6.310822032273271,6.310822032273271
2.9172521453577622,2.9172521453577622
-0.3138087610575674,-0.3138087610575674
-1.3557781066175405,-1.3557781066175405
-0.7376066905972507,-0.7376066905972507
-0.6069622160774987,-0.6069622160774987
-0.4763177415577467,-0.4763177415577467
-0.377537773018422,-0.377537773018422
-0.377537773018422,-0.377537773018422
-0.21502879251824272,-0.21502879251824272
-0.052519812018063425,-0.052519812018063425
0.17690463104101323,0.17690463104101323
0.3075491055607652,0.3075491055607652
0.5337870980217991,0.5337870980217991
0.5337870980217991,0.5337870980217991
0.6644315725415512,0.6644315725415512
0.6325670665611238,0.6325670665611238
0.6644315725415512,0.6644315725415512
0.6994825291200212,0.6994825291200212
0.5019225920413718,0.5019225920413718
0.4063290741000899,0.4063290741000899
0.3712781175216198,0.3712781175216198
0.2756845995803379,0.2756845995803379
0.24063364300186785,0.24063364300186785
0.2756845995803379,0.2756845995803379
0.14504012506058592,0.14504012506058592
0.14504012506058592,0.14504012506058592
0.10998916848211587,0.10998916848211587
-0.08438431799849073,-0.08438431799849073
-0.11624882397891806,-0.11624882397891806
-0.08438431799849073,-0.08438431799849073
-0.1831642865378154,-0.1831642865378154
-0.1512997805573881,-0.1512997805573881
-0.1831642865378154,-0.1831642865378154
-0.020655306037636115,-0.020655306037636115
-0.020655306037636115,-0.020655306037636115
0.046260156521261246,0.046260156521261246
0.10998916848211587,0.10998916848211587
0.2756845995803379,0.2756845995803379
0.4063290741000899,0.4063290741000899
0.5688380546002691,0.5688380546002691
0.5337870980217991,0.5337870980217991
0.7632115410808759,0.7632115410808759
0.7950760470613031,0.7950760470613031
0.7313470351004485,0.7313470351004485
0.7632115410808759,0.7632115410808759
0.6007025605806965,0.6007025605806965
0.43819358008051723,0.43819358008051723
0.2756845995803379,0.2756845995803379
0.17690463104101323,0.17690463104101323
0.10998916848211587,0.10998916848211587
0.014395650540833933,0.014395650540833933
-0.020655306037636115,-0.020655306037636115
-0.1512997805573881,-0.1512997805573881
-0.11624882397891806,-0.11624882397891806
-0.1512997805573881,-0.1512997805573881
-0.24689329849867003,-0.24689329849867003
-0.1831642865378154,-0.1831642865378154
-0.24689329849867003,-0.24689329849867003
-0.1512997805573881,-0.1512997805573881
-0.24689329849867003,-0.24689329849867003
-0.21502879251824272,-0.21502879251824272
-0.24689329849867003,-0.24689329849867003
-0.1831642865378154,-0.1831642865378154
-0.3138087610575674,-0.3138087610575674
-0.1512997805573881,-0.1512997805573881
-0.1831642865378154,-0.1831642865378154
-0.1831642865378154,-0.1831642865378154
-0.11624882397891806,-0.11624882397891806
-0.1512997805573881,-0.1512997805573881
-0.1831642865378154,-0.1831642865378154
-0.11624882397891806,-0.11624882397891806
-0.08438431799849073,-0.08438431799849073
-0.11624882397891806,-0.11624882397891806
-0.1831642865378154,-0.1831642865378154
-0.1831642865378154,-0.1831642865378154
-0.1512997805573881,-0.1512997805573881
-0.08438431799849073,-0.08438431799849073
0.14504012506058592,0.14504012506058592
0.3075491055607652,0.3075491055607652
0.5337870980217991,0.5337870980217991
0.5019225920413718,0.5019225920413718
0.6007025605806965,0.6007025605806965
0.33941361154119254,0.33941361154119254
0.3075491055607652,0.3075491055607652
-0.020655306037636115,-0.020655306037636115
-0.08438431799849073,-0.08438431799849073
-0.1512997805573881,-0.1512997805573881
-0.11624882397891806,-0.11624882397891806
-0.3138087610575674,-0.3138087610575674
-0.27875780447909737,-0.27875780447909737
-0.24689329849867003,-0.24689329849867003
-0.21502879251824272,-0.21502879251824272
-0.3456732670379947,-0.3456732670379947
-0.27875780447909737,-0.27875780447909737
-0.5400467535186013,-0.5400467535186013
-1.1295401141565067,-1.1295401141565067
-0.40940227899884934,-0.40940227899884934
2.3309452353178997,2.3309452353178997
6.212042063733946,6.212042063733946
6.310822032273271,6.310822032273271
1.1551449646401317,1.1551449646401317
-1.292049094656686,-1.292049094656686
-1.4545580751568652,-1.4545580751568652
-0.7057421846168234,-0.7057421846168234
-0.6706912280383533,-0.6706912280383533
-0.8013357025581053,-0.8013357025581053
-0.7376066905972507,-0.7376066905972507
-0.6706912280383533,-0.6706912280383533
-0.638826722057926,-0.638826722057926
-0.769471196577678,-0.769471196577678
-0.7057421846168234,-0.7057421846168234
-0.8682511651170026,-0.8682511651170026
-0.7376066905972507,-0.7376066905972507
-0.769471196577678,-0.769471196577678
-0.638826722057926,-0.638826722057926
-0.769471196577678,-0.769471196577678
-0.8013357025581053,-0.8013357025581053
-0.7376066905972507,-0.7376066905972507
-0.7057421846168234,-0.7057421846168234
-0.8013357025581053,-0.8013357025581053
-0.8363866591365754,-0.8363866591365754
-0.638826722057926,-0.638826722057926
-0.638826722057926,-0.638826722057926
-0.6706912280383533,-0.6706912280383533
-0.7376066905972507,-0.7376066905972507
-0.6706912280383533,-0.6706912280383533
-0.5750977100970713,-0.5750977100970713
-0.508182247538174,-0.508182247538174
-0.4763177415577467,-0.4763177415577467
-0.4763177415577467,-0.4763177415577467
-0.4763177415577467,-0.4763177415577467
-0.44445323557731936,-0.44445323557731936
-0.4763177415577467,-0.4763177415577467
-0.377537773018422,-0.377537773018422
-0.27875780447909737,-0.27875780447909737
-0.21502879251824272,-0.21502879251824272
-0.052519812018063425,-0.052519812018063425
0.10998916848211587,0.10998916848211587
0.2756845995803379,0.2756845995803379
0.43819358008051723,0.43819358008051723
0.5688380546002691,0.5688380546002691
0.6994825291200212,0.6994825291200212
0.7313470351004485,0.7313470351004485
0.7632115410808759,0.7632115410808759
0.7313470351004485,0.7313470351004485
0.6994825291200212,0.6994825291200212
0.5337870980217991,0.5337870980217991
0.43819358008051723,0.43819358008051723
0.2756845995803379,0.2756845995803379
0.17690463104101323,0.17690463104101323
0.20876913702144054,0.20876913702144054
0.14504012506058592,0.14504012506058592
0.10998916848211587,0.10998916848211587
0.046260156521261246,0.046260156521261246
-0.020655306037636115,-0.020655306037636115
-0.052519812018063425,-0.052519812018063425
-0.11624882397891806,-0.11624882397891806
-0.1831642865378154,-0.1831642865378154
-0.11624882397891806,-0.11624882397891806
-0.08438431799849073,-0.08438431799849073
-0.020655306037636115,-0.020655306037636115
-0.052519812018063425,-0.052519812018063425
-0.052519812018063425,-0.052519812018063425
-0.08438431799849073,-0.08438431799849073
-0.020655306037636115,-0.020655306037636115
-0.052519812018063425,-0.052519812018063425
-0.020655306037636115,-0.020655306037636115
-0.020655306037636115,-0.020655306037636115
0.014395650540833933,0.014395650540833933
-0.020655306037636115,-0.020655306037636115
0.014395650540833933,0.014395650540833933
-0.052519812018063425,-0.052519812018063425
-0.020655306037636115,-0.020655306037636115
-0.020655306037636115,-0.020655306037636115
0.10998916848211587,0.10998916848211587
0.14504012506058592,0.14504012506058592
0.24063364300186785,0.24063364300186785
0.4063290741000899,0.4063290741000899
0.5337870980217991,0.5337870980217991
0.5688380546002691,0.5688380546002691
0.5019225920413718,0.5019225920413718
0.43819358008051723,0.43819358008051723
0.17690463104101323,0.17690463104101323
0.046260156521261246,0.046260156521261246
-0.1512997805573881,-0.1512997805573881
-0.1831642865378154,-0.1831642865378154
-0.24689329849867003,-0.24689329849867003
-0.21502879251824272,-0.21502879251824272
-0.3456732670379947,-0.3456732670379947
-0.27875780447909737,-0.27875780447909737
-0.24689329849867003,-0.24689329849867003
-0.27875780447909737,-0.27875780447909737
-0.4763177415577467,-0.4763177415577467
-0.9638446830582846,-0.9638446830582846
-1.030760145617182,-1.030760145617182
1.2539249331794564,1.2539249331794564
4.810003800595145,4.810003800595145
6.310822032273271,6.310822032273271
2.9172521453577622,2.9172521453577622
-0.3138087610575674,-0.3138087610575674
-1.1932691261173614,-1.1932691261173614
-0.6706912280383533,-0.6706912280383533
-0.638826722057926,-0.638826722057926
-0.7376066905972507,-0.7376066905972507
-0.7057421846168234,-0.7057421846168234
-0.769471196577678,-0.769471196577678
-0.8013357025581053,-0.8013357025581053
-0.90011567109743,-0.90011567109743
-0.90011567109743,-0.90011567109743
-0.9319801770778573,-0.9319801770778573
-0.8013357025581053,-0.8013357025581053
-0.8013357025581053,-0.8013357025581053
-0.8013357025581053,-0.8013357025581053
-0.8013357025581053,-0.8013357025581053
-0.7376066905972507,-0.7376066905972507
-0.8013357025581053,-0.8013357025581053
-0.7376066905972507,-0.7376066905972507
-0.769471196577678,-0.769471196577678
-0.8013357025581053,-0.8013357025581053
-0.769471196577678,-0.769471196577678
-0.7376066905972507,-0.7376066905972507
-0.6706912280383533,-0.6706912280383533
-0.638826722057926,-0.638826722057926
-0.6706912280383533,-0.6706912280383533
-0.638826722057926,-0.638826722057926
-0.638826722057926,-0.638826722057926
-0.6069622160774987,-0.6069622160774987
-0.5400467535186013,-0.5400467535186013
-0.5750977100970713,-0.5750977100970713
-0.4763177415577467,-0.4763177415577467
-0.4763177415577467,-0.4763177415577467
-0.3456732670379947,-0.3456732670379947
-0.24689329849867003,-0.24689329849867003
-0.11624882397891806,-0.11624882397891806
-0.052519812018063425,-0.052519812018063425
0.07812466250168856,0.07812466250168856
0.14504012506058592,0.14504012506058592
0.33941361154119254,0.33941361154119254
0.4063290741000899,0.4063290741000899
0.6325670665611238,0.6325670665611238
0.7313470351004485,0.7313470351004485
0.7632115410808759,0.7632115410808759
0.7313470351004485,0.7313470351004485
0.6325670665611238,0.6325670665611238
0.5019225920413718,0.5019225920413718
0.43819358008051723,0.43819358008051723
0.33941361154119254,0.33941361154119254
0.24063364300186785,0.24063364300186785
0.14504012506058592,0.14504012506058592
0.14504012506058592,0.14504012506058592
0.046260156521261246,0.046260156521261246
0.014395650540833933,0.014395650540833933
0.07812466250168856,0.07812466250168856
0.046260156521261246,0.046260156521261246
0.07812466250168856,0.07812466250168856
0.046260156521261246,0.046260156521261246
0.10998916848211587,0.10998916848211587
0.046260156521261246,0.046260156521261246
0.07812466250168856,0.07812466250168856
0.014395650540833933,0.014395650540833933
0.07812466250168856,0.07812466250168856
0.046260156521261246,0.046260156521261246
0.10998916848211587,0.10998916848211587
0.07812466250168856,0.07812466250168856
0.14504012506058592,0.14504012506058592
0.07812466250168856,0.07812466250168856
0.14504012506058592,0.14504012506058592
0.046260156521261246,0.046260156521261246
0.014395650540833933,0.014395650540833933
-0.020655306037636115,-0.020655306037636115
-0.020655306037636115,-0.020655306037636115
-0.052519812018063425,-0.052519812018063425
-0.08438431799849073,-0.08438431799849073
0.014395650540833933,0.014395650540833933
0.14504012506058592,0.14504012506058592
0.14504012506058592,0.14504012506058592
0.2756845995803379,0.2756845995803379
0.43819358008051723,0.43819358008051723
0.5019225920413718,0.5019225920413718
0.5019225920413718,0.5019225920413718
0.43819358008051723,0.43819358008051723
0.43819358008051723,0.43819358008051723
0.20876913702144054,0.20876913702144054
0.07812466250168856,0.07812466250168856
-0.08438431799849073,-0.08438431799849073
-0.11624882397891806,-0.11624882397891806
-0.1512997805573881,-0.1512997805573881
-0.08438431799849073,-0.08438431799849073
-0.1831642865378154,-0.1831642865378154
-0.21502879251824272,-0.21502879251824272
-0.24689329849867003,-0.24689329849867003
-0.24689329849867003,-0.24689329849867003
-0.377537773018422,-0.377537773018422
-0.8363866591365754,-0.8363866591365754
-0.9319801770778573,-0.9319801770778573
1.056364996100807,1.056364996100807
4.319290408496564,4.319290408496564
6.310822032273271,6.310822032273271
3.274134612338548,3.274134612338548
-0.08438431799849073,-0.08438431799849073
-1.2601845886762586,-1.2601845886762586
-0.6069622160774987,-0.6069622160774987
-0.4763177415577467,-0.4763177415577467
-0.44445323557731936,-0.44445323557731936
-0.377537773018422,-0.377537773018422
-0.377537773018422,-0.377537773018422
-0.44445323557731936,-0.44445323557731936
-0.638826722057926,-0.638826722057926
-0.769471196577678,-0.769471196577678
-0.8363866591365754,-0.8363866591365754
-0.8363866591365754,-0.8363866591365754
-0.8682511651170026,-0.8682511651170026
-0.8013357025581053,-0.8013357025581053
-0.8013357025581053,-0.8013357025581053
-0.769471196577678,-0.769471196577678
-0.7376066905972507,-0.7376066905972507
-0.769471196577678,-0.769471196577678
-0.6706912280383533,-0.6706912280383533
-0.638826722057926,-0.638826722057926
-0.7057421846168234,-0.7057421846168234
-0.638826722057926,-0.638826722057926
-0.638826722057926,-0.638826722057926
-0.638826722057926,-0.638826722057926
-0.5750977100970713,-0.5750977100970713
-0.4763177415577467,-0.4763177415577467
-0.40940227899884934,-0.40940227899884934
-0.4763177415577467,-0.4763177415577467
-0.508182247538174,-0.508182247538174
-0.4763177415577467,-0.4763177415577467
-0.40940227899884934,-0.40940227899884934
-0.24689329849867003,-0.24689329849867003
-0.21502879251824272,-0.21502879251824272
-0.24689329849867003,-0.24689329849867003
-0.1512997805573881,-0.1512997805573881
-0.052519812018063425,-0.052519812018063425
0.14504012506058592,0.14504012506058592
0.20876913702144054,0.20876913702144054
0.3712781175216198,0.3712781175216198
0.5019225920413718,0.5019225920413718
0.6994825291200212,0.6994825291200212
0.7313470351004485,0.7313470351004485
0.8301270036397732,0.8301270036397732
0.7950760470613031,0.7950760470613031
0.7313470351004485,0.7313470351004485
0.6007025605806965,0.6007025605806965
0.4700580860609445,0.4700580860609445
0.43819358008051723,0.43819358008051723
0.3712781175216198,0.3712781175216198
0.24063364300186785,0.24063364300186785
0.20876913702144054,0.20876913702144054
0.10998916848211587,0.10998916848211587
-0.020655306037636115,-0.020655306037636115
-0.020655306037636115,-0.020655306037636115
-0.11624882397891806,-0.11624882397891806
-0.1512997805573881,-0.1512997805573881
-0.1831642865378154,-0.1831642865378154
-0.052519812018063425,-0.052519812018063425
-0.08438431799849073,-0.08438431799849073
-0.052519812018063425,-0.052519812018063425
-0.11624882397891806,-0.11624882397891806
-0.020655306037636115,-0.020655306037636115
-0.08438431799849073,-0.08438431799849073
-0.11624882397891806,-0.11624882397891806
-0.11624882397891806,-0.11624882397891806
-0.1512997805573881,-0.1512997805573881
-0.21502879251824272,-0.21502879251824272
-0.08438431799849073,-0.08438431799849073
-0.020655306037636115,-0.020655306037636115
-0.052519812018063425,-0.052519812018063425
-0.1512997805573881,-0.1512997805573881
-0.1831642865378154,-0.1831642865378154
-0.08438431799849073,-0.08438431799849073
-0.1512997805573881,-0.1512997805573881
-0.08438431799849073,-0.08438431799849073
0.014395650540833933,0.014395650540833933
0.10998916848211587,0.10998916848211587
0.014395650540833933,0.014395650540833933
0.2756845995803379,0.2756845995803379
0.4700580860609445,0.4700580860609445
0.5688380546002691,0.5688380546002691
0.6325670665611238,0.6325670665611238
0.5019225920413718,0.5019225920413718
0.4063290741000899,0.4063290741000899
0.14504012506058592,0.14504012506058592
-0.020655306037636115,-0.020655306037636115
-0.11624882397891806,-0.11624882397891806
-0.27875780447909737,-0.27875780447909737
-0.1831642865378154,-0.1831642865378154
-0.1831642865378154,-0.1831642865378154
-0.24689329849867003,-0.24689329849867003
-0.3138087610575674,-0.3138087610575674
-0.27875780447909737,-0.27875780447909737
-0.27875780447909737,-0.27875780447909737
-0.44445323557731936,-0.44445323557731936
-0.9319801770778573,-0.9319801770778573
-0.9638446830582846,-0.9638446830582846
1.5470783881993877,1.5470783881993877
5.297530742095683,5.297530742095683
6.310822032273271,6.310822032273271
2.101520792258823,2.101520792258823
-0.9988956396367547,-0.9988956396367547
-1.6489315616374718,-1.6489315616374718
-0.9319801770778573,-0.9319801770778573
-0.8682511651170026,-0.8682511651170026
-0.90011567109743,-0.90011567109743
-0.9319801770778573,-0.9319801770778573
-0.9319801770778573,-0.9319801770778573
-0.9638446830582846,-0.9638446830582846
-1.0944891575780367,-1.0944891575780367
-1.2601845886762586,-1.2601845886762586
-1.2251336320977886,-1.2251336320977886
-1.1295401141565067,-1.1295401141565067
-1.030760145617182,-1.030760145617182
-1.0626246515976092,-1.0626246515976092
-0.9638446830582846,-0.9638446830582846
-0.9319801770778573,-0.9319801770778573
-0.8013357025581053,-0.8013357025581053
-0.769471196577678,-0.769471196577678
-0.638826722057926,-0.638826722057926
-0.638826722057926,-0.638826722057926
-0.6706912280383533,-0.6706912280383533
-0.6069622160774987,-0.6069622160774987
-0.5750977100970713,-0.5750977100970713
-0.5750977100970713,-0.5750977100970713
-0.508182247538174,-0.508182247538174
-0.44445323557731936,-0.44445323557731936
-0.377537773018422,-0.377537773018422
-0.3456732670379947,-0.3456732670379947
-0.377537773018422,-0.377537773018422
-0.24689329849867003,-0.24689329849867003
-0.27875780447909737,-0.27875780447909737
-0.11624882397891806,-0.11624882397891806
-0.020655306037636115,-0.020655306037636115
0.046260156521261246,0.046260156521261246
0.014395650540833933,0.014395650540833933
0.20876913702144054,0.20876913702144054
0.2756845995803379,0.2756845995803379
0.4063290741000899,0.4063290741000899
0.5337870980217991,0.5337870980217991
0.6644315725415512,0.6644315725415512
0.8301270036397732,0.8301270036397732
0.9607714781595251,0.9607714781595251
0.8619915096202004,0.8619915096202004
0.7950760470613031,0.7950760470613031
0.6007025605806965,0.6007025605806965
0.5019225920413718,0.5019225920413718
0.3712781175216198,0.3712781175216198
0.24063364300186785,0.24063364300186785
0.14504012506058592,0.14504012506058592
0.14504012506058592,0.14504012506058592
0.14504012506058592,0.14504012506058592
0.14504012506058592,0.14504012506058592
0.014395650540833933,0.014395650540833933
-0.08438431799849073,-0.08438431799849073
-0.020655306037636115,-0.020655306037636115
-0.020655306037636115,-0.020655306037636115
0.046260156521261246,0.046260156521261246
0.14504012506058592,0.14504012506058592
0.2756845995803379,0.2756845995803379
0.33941361154119254,0.33941361154119254
0.5019225920413718,0.5019225920413718
0.6007025605806965,0.6007025605806965
0.7313470351004485,0.7313470351004485
0.8938560156006278,0.8938560156006278
1.0245004901203798,1.0245004901203798
1.056364996100807,1.056364996100807
1.1551449646401317,1.1551449646401317
1.1870094706205592,1.1870094706205592
1.2857894391598839,1.2857894391598839
1.317653945140311,1.317653945140311
1.3495184511207383,1.3495184511207383
1.4164339136796358,1.4164339136796358
1.3845694076992083,1.3845694076992083
1.3495184511207383,1.3495184511207383
1.3845694076992083,1.3845694076992083
1.448298419660063,1.448298419660063
1.4801629256404905,1.4801629256404905
1.6108074001602424,1.6108074001602424
1.7733163806604217,1.7733163806604217
1.840231843219319,1.840231843219319
1.840231843219319,1.840231843219319
1.6777228627191396,1.6777228627191396
1.4801629256404905,1.4801629256404905
1.1232804586597045,1.1232804586597045
0.7950760470613031,0.7950760470613031
0.6007025605806965,0.6007025605806965
0.4063290741000899,0.4063290741000899
0.24063364300186785,0.24063364300186785
0.07812466250168856,0.07812466250168856
-0.020655306037636115,-0.020655306037636115
-0.21502879251824272,-0.21502879251824272
-0.3456732670379947,-0.3456732670379947
-0.5400467535186013,-0.5400467535186013
-0.8013357025581053,-0.8013357025581053
-1.422693569176438,-1.422693569176438
-0.769471196577678,-0.769471196577678
1.4164339136796358,1.4164339136796358
5.103157255615076,5.103157255615076
6.014482126655297,6.014482126655297
1.2539249331794564,1.2539249331794564
-1.6839825182159418,-1.6839825182159418
-2.203373965696907,-2.203373965696907
-1.5533380436961899,-1.5533380436961899
-1.5533380436961899,-1.5533380436961899
-1.5852025496766173,-1.5852025496766173
-1.6170670556570446,-1.6170670556570446
-1.5852025496766173,-1.5852025496766173
-1.6839825182159418,-1.6839825182159418
-1.7477115301767965,-1.7477115301767965
-1.7477115301767965,-1.7477115301767965
-1.7158470241963693,-1.7158470241963693
-1.7477115301767965,-1.7477115301767965
-1.7477115301767965,-1.7477115301767965
-1.7158470241963693,-1.7158470241963693
-1.6489315616374718,-1.6489315616374718
-1.7158470241963693,-1.7158470241963693
-1.7158470241963693,-1.7158470241963693
-1.6839825182159418,-1.6839825182159418
-1.6170670556570446,-1.6170670556570446
-1.6489315616374718,-1.6489315616374718
-1.5852025496766173,-1.5852025496766173
-1.5852025496766173,-1.5852025496766173
-1.5533380436961899,-1.5533380436961899
-1.5533380436961899,-1.5533380436961899
-1.5182870871177199,-1.5182870871177199
-1.5533380436961899,-1.5533380436961899
-1.4864225811372926,-1.4864225811372926
-1.422693569176438,-1.422693569176438
-1.4545580751568652,-1.4545580751568652
-1.2601845886762586,-1.2601845886762586
-1.2601845886762586,-1.2601845886762586
-1.1932691261173614,-1.1932691261173614
-1.1295401141565067,-1.1295401141565067
-0.9988956396367547,-0.9988956396367547
-0.9319801770778573,-0.9319801770778573
-0.769471196577678,-0.769471196577678
-0.6706912280383533,-0.6706912280383533
-0.44445323557731936,-0.44445323557731936
-0.3138087610575674,-0.3138087610575674
-0.020655306037636115,-0.020655306037636115
0.10998916848211587,0.10998916848211587
0.2756845995803379,0.2756845995803379
0.33941361154119254,0.33941361154119254
0.2756845995803379,0.2756845995803379
0.33941361154119254,0.33941361154119254
0.17690463104101323,0.17690463104101323
0.07812466250168856,0.07812466250168856
0.10998916848211587,0.10998916848211587
0.07812466250168856,0.07812466250168856
0.046260156521261246,0.046260156521261246
0.014395650540833933,0.014395650540833933
-0.020655306037636115,-0.020655306037636115
-0.020655306037636115,-0.020655306037636115
-0.052519812018063425,-0.052519812018063425
-0.08438431799849073,-0.08438431799849073
-0.020655306037636115,-0.020655306037636115
-0.020655306037636115,-0.020655306037636115
-0.020655306037636115,-0.020655306037636115
0.046260156521261246,0.046260156521261246
-0.020655306037636115,-0.020655306037636115
0.046260156521261246,0.046260156521261246
0.07812466250168856,0.07812466250168856
0.14504012506058592,0.14504012506058592
0.14504012506058592,0.14504012506058592
0.24063364300186785,0.24063364300186785
0.14504012506058592,0.14504012506058592
0.17690463104101323,0.17690463104101323
0.10998916848211587,0.10998916848211587
0.17690463104101323,0.17690463104101323
0.20876913702144054,0.20876913702144054
0.14504012506058592,0.14504012506058592
0.20876913702144054,0.20876913702144054
0.24063364300186785,0.24063364300186785
0.20876913702144054,0.20876913702144054
0.33941361154119254,0.33941361154119254
0.43819358008051723,0.43819358008051723
0.5337870980217991,0.5337870980217991
0.6994825291200212,0.6994825291200212
0.7313470351004485,0.7313470351004485
0.7632115410808759,0.7632115410808759
0.7313470351004485,0.7313470351004485
0.6994825291200212,0.6994825291200212
0.5337870980217991,0.5337870980217991
0.4063290741000899,0.4063290741000899
0.2756845995803379,0.2756845995803379
0.24063364300186785,0.24063364300186785
0.14504012506058592,0.14504012506058592
0.20876913702144054,0.20876913702144054
0.14504012506058592,0.14504012506058592
0.14504012506058592,0.14504012506058592
0.10998916848211587,0.10998916848211587
0.17690463104101323,0.17690463104101323
0.10998916848211587,0.10998916848211587
-0.1512997805573881,-0.1512997805573881
-0.6706912280383533,-0.6706912280383533
-0.052519812018063425,-0.052519812018063425
2.1652498042196777,2.1652498042196777
5.721328671635366,5.721328671635366
6.310822032273271,6.310822032273271
2.5253187217985062,2.5253187217985062
-0.3456732670379947,-0.3456732670379947
-0.9319801770778573,-0.9319801770778573
-0.3138087610575674,-0.3138087610575674
-0.3138087610575674,-0.3138087610575674
-0.27875780447909737,-0.27875780447909737
