ECG,PPG
-0.026303822704184042,-0.026303822704184042
-0.1890750806976503,-0.1890750806976503
-0.06699663720255061,-0.06699663720255061
-0.0018881340051641016,-0.0018881340051641016
0.07949749499156904,0.07949749499156904
0.038804680493202466,0.038804680493202466
0.20157593848666874,0.20157593848666874
0.38876288517915497,0.38876288517915497
0.49456420287490804,0.49456420287490804
0.4782870770755614,0.4782870770755614
0.7875524672631473,0.7875524672631473
0.8119681559621673,0.8119681559621673
1.2026191751464863,1.2026191751464863
0.9991551026546535,0.9991551026546535
0.7468596527647807,0.7468596527647807
0.3724857593798083,0.3724857593798083
0.038804680493202466,0.038804680493202466
-0.12396657750026381,-0.12396657750026381
-0.14838226619928374,-0.14838226619928374
-0.2297678951960169,-0.2297678951960169
-0.21349076939667025,-0.21349076939667025
-0.31929208709242335,-0.31929208709242335
-0.45764765638686966,-0.45764765638686966
0.26668444168405525,0.26668444168405525
2.9768258872752686,2.9768258872752686
4.580122778510911,4.580122778510911
4.580122778510911,4.580122778510911
0.6003655205706611,0.6003655205706611
-1.3773052640499541,-1.3773052640499541
-0.9215457416682485,-0.9215457416682485
-0.8157444239724955,-0.8157444239724955
-0.7099431062767424,-0.7099431062767424
-0.7913287352734756,-0.7913287352734756
-0.8320215497718421,-0.8320215497718421
-0.750635920775109,-0.750635920775109
-0.8564372384708621,-0.8564372384708621
-0.7750516094741289,-0.7750516094741289
-0.6936659804773958,-0.6936659804773958
-0.6936659804773958,-0.6936659804773958
-0.7099431062767424,-0.7099431062767424
-0.5227561595842561,-0.5227561595842561
-0.37626202739013653,-0.37626202739013653
-0.3599849015907899,-0.3599849015907899
-0.37626202739013653,-0.37626202739013653
-0.21349076939667025,-0.21349076939667025
-0.10768945170091718,-0.10768945170091718
-0.0018881340051641016,-0.0018881340051641016
0.038804680493202466,0.038804680493202466
0.1201903094899356,0.1201903094899356
0.2259916271856887,0.2259916271856887
0.38876288517915497,0.38876288517915497
0.45387138837654145,0.45387138837654145
0.518979891573928,0.518979891573928
0.45387138837654145,0.45387138837654145
0.38876288517915497,0.38876288517915497
0.2911001303830752,0.2911001303830752
0.14460599818895553,0.14460599818895553
-0.06699663720255061,-0.06699663720255061
-0.08327376300189723,-0.08327376300189723
-0.08327376300189723,-0.08327376300189723
-0.06699663720255061,-0.06699663720255061
-0.026303822704184042,-0.026303822704184042
-0.08327376300189723,-0.08327376300189723
0.014388991794182526,0.014388991794182526
-0.0018881340051641016,-0.0018881340051641016
-0.04258094850353067,-0.04258094850353067
-0.14838226619928374,-0.14838226619928374
-0.12396657750026381,-0.12396657750026381
-0.1890750806976503,-0.1890750806976503
-0.2541835838950368,-0.2541835838950368
-0.27046070969438346,-0.27046070969438346
-0.2541835838950368,-0.2541835838950368
-0.37626202739013653,-0.37626202739013653
-0.27046070969438346,-0.27046070969438346
-0.1890750806976503,-0.1890750806976503
-0.12396657750026381,-0.12396657750026381
-0.0018881340051641016,-0.0018881340051641016
0.20157593848666874,0.20157593848666874
0.26668444168405525,0.26668444168405525
0.43759426257719486,0.43759426257719486
0.49456420287490804,0.49456420287490804
0.2911001303830752,0.2911001303830752
0.014388991794182526,0.014388991794182526
-0.31929208709242335,-0.31929208709242335
-0.4820633450858896,-0.4820633450858896
-0.5634489740826227,-0.5634489740826227
-0.5471718482832761,-0.5471718482832761
-0.4820633450858896,-0.4820633450858896
-0.5634489740826227,-0.5634489740826227
-0.880852927169882,-0.880852927169882
-0.8971300529692287,-0.8971300529692287
1.2433119896448528,1.2433119896448528
4.580122778510911,4.580122778510911
4.580122778510911,4.580122778510911
2.4966506761945433,2.4966506761945433
-1.4831065817457072,-1.4831065817457072
-1.8330647864316596,-1.8330647864316596
-1.2308111318558346,-1.2308111318558346
-1.1494255028591014,-1.1494255028591014
-1.1087326883607347,-1.1087326883607347
-1.0843169996617148,-1.0843169996617148
-1.0843169996617148,-1.0843169996617148
-1.1087326883607347,-1.1087326883607347
-1.0029313706649816,-1.0029313706649816
-0.9622385561666151,-0.9622385561666151
-0.8971300529692287,-0.8971300529692287
-0.7913287352734756,-0.7913287352734756
-0.7913287352734756,-0.7913287352734756
-0.7343587949757623,-0.7343587949757623
-0.6285574772800092,-0.6285574772800092
-0.5227561595842561,-0.5227561595842561
-0.4820633450858896,-0.4820633450858896
-0.31929208709242335,-0.31929208709242335
-0.14838226619928374,-0.14838226619928374
0.014388991794182526,0.014388991794182526
0.038804680493202466,0.038804680493202466
0.10391318369058898,0.10391318369058898
0.20157593848666874,0.20157593848666874
0.38876288517915497,0.38876288517915497
0.5596727060722946,0.5596727060722946
0.6003655205706611,0.6003655205706611
0.45387138837654145,0.45387138837654145
0.26668444168405525,0.26668444168405525
0.14460599818895553,0.14460599818895553
0.0632203691922224,0.0632203691922224
-0.0018881340051641016,-0.0018881340051641016
-0.06699663720255061,-0.06699663720255061
-0.12396657750026381,-0.12396657750026381
-0.17279795489830369,-0.17279795489830369
-0.04258094850353067,-0.04258094850353067
-0.08327376300189723,-0.08327376300189723
-0.12396657750026381,-0.12396657750026381
-0.12396657750026381,-0.12396657750026381
-0.14838226619928374,-0.14838226619928374
-0.08327376300189723,-0.08327376300189723
-0.2297678951960169,-0.2297678951960169
-0.2297678951960169,-0.2297678951960169
-0.27046070969438346,-0.27046070969438346
-0.1890750806976503,-0.1890750806976503
-0.10768945170091718,-0.10768945170091718
-0.08327376300189723,-0.08327376300189723
0.10391318369058898,0.10391318369058898
0.2259916271856887,0.2259916271856887
0.30737725618242184,0.30737725618242184
0.43759426257719486,0.43759426257719486
0.5759498318716412,0.5759498318716412
0.6247812092696811,0.6247812092696811
0.7631367785641274,0.7631367785641274
0.6247812092696811,0.6247812092696811
0.33179294488144173,0.33179294488144173
-0.04258094850353067,-0.04258094850353067
-0.33556921289176994,-0.33556921289176994
-0.4820633450858896,-0.4820633450858896
-0.6285574772800092,-0.6285574772800092
-0.6448346030793559,-0.6448346030793559
-0.6692502917783758,-0.6692502917783758
-0.8157444239724955,-0.8157444239724955
-0.9785156819659617,-0.9785156819659617
-0.17279795489830369,-0.17279795489830369
2.602451993890296,2.602451993890296
4.580122778510911,4.580122778510911
4.580122778510911,4.580122778510911
0.6817511495673942,0.6817511495673942
-1.4586908930466873,-1.4586908930466873
-1.165702628658448,-1.165702628658448
-1.0436241851633483,-1.0436241851633483
-1.0029313706649816,-1.0029313706649816
-1.0680398738623682,-1.0680398738623682
-1.0192084964643282,-1.0192084964643282
-1.0029313706649816,-1.0029313706649816
-0.9622385561666151,-0.9622385561666151
-0.9215457416682485,-0.9215457416682485
-0.8320215497718421,-0.8320215497718421
-0.7750516094741289,-0.7750516094741289
-0.7750516094741289,-0.7750516094741289
-0.6692502917783758,-0.6692502917783758
-0.6285574772800092,-0.6285574772800092
-0.5227561595842561,-0.5227561595842561
-0.5471718482832761,-0.5471718482832761
-0.33556921289176994,-0.33556921289176994
-0.1890750806976503,-0.1890750806976503
-0.21349076939667025,-0.21349076939667025
-0.0018881340051641016,-0.0018881340051641016
0.14460599818895553,0.14460599818895553
0.2911001303830752,0.2911001303830752
0.45387138837654145,0.45387138837654145
0.5759498318716412,0.5759498318716412
0.6654740237680477,0.6654740237680477
0.5759498318716412,0.5759498318716412
0.4782870770755614,0.4782870770755614
0.30737725618242184,0.30737725618242184
0.16088312398830218,0.16088312398830218
0.014388991794182526,0.014388991794182526
-0.06699663720255061,-0.06699663720255061
-0.10768945170091718,-0.10768945170091718
-0.14838226619928374,-0.14838226619928374
-0.10768945170091718,-0.10768945170091718
-0.08327376300189723,-0.08327376300189723
-0.14838226619928374,-0.14838226619928374
-0.1890750806976503,-0.1890750806976503
-0.12396657750026381,-0.12396657750026381
-0.1890750806976503,-0.1890750806976503
-0.21349076939667025,-0.21349076939667025
-0.27046070969438346,-0.27046070969438346
-0.27046070969438346,-0.27046070969438346
-0.1890750806976503,-0.1890750806976503
-0.2297678951960169,-0.2297678951960169
-0.2541835838950368,-0.2541835838950368
-0.1890750806976503,-0.1890750806976503
-0.12396657750026381,-0.12396657750026381
-0.026303822704184042,-0.026303822704184042
0.10391318369058898,0.10391318369058898
0.2911001303830752,0.2911001303830752
0.49456420287490804,0.49456420287490804
0.5759498318716412,0.5759498318716412
0.7875524672631473,0.7875524672631473
0.6003655205706611,0.6003655205706611
0.2259916271856887,0.2259916271856887
-0.12396657750026381,-0.12396657750026381
-0.37626202739013653,-0.37626202739013653
-0.5227561595842561,-0.5227561595842561
-0.5634489740826227,-0.5634489740826227
-0.6692502917783758,-0.6692502917783758
-0.6041417885809893,-0.6041417885809893
-0.750635920775109,-0.750635920775109
-0.8157444239724955,-0.8157444239724955
0.07949749499156904,0.07949749499156904
2.871024569579516,2.871024569579516
4.580122778510911,4.580122778510911
4.327827328621039,4.327827328621039
0.0632203691922224,0.0632203691922224
-1.68657065423754,-1.68657065423754
-1.4179980785483206,-1.4179980785483206
-1.2552268205548545,-1.2552268205548545
-1.2552268205548545,-1.2552268205548545
-1.1494255028591014,-1.1494255028591014
-1.1494255028591014,-1.1494255028591014
-1.1901183173574679,-1.1901183173574679
-1.0680398738623682,-1.0680398738623682
-0.9622385561666151,-0.9622385561666151
-0.9378228674675951,-0.9378228674675951
-1.0029313706649816,-1.0029313706649816
-0.9378228674675951,-0.9378228674675951
-0.8157444239724955,-0.8157444239724955
-0.6936659804773958,-0.6936659804773958
-0.5471718482832761,-0.5471718482832761
-0.3599849015907899,-0.3599849015907899
-0.27046070969438346,-0.27046070969438346
-0.10768945170091718,-0.10768945170091718
-0.026303822704184042,-0.026303822704184042
0.07949749499156904,0.07949749499156904
0.2259916271856887,0.2259916271856887
0.30737725618242184,0.30737725618242184
0.43759426257719486,0.43759426257719486
0.5352570173732746,0.5352570173732746
0.6003655205706611,0.6003655205706611
0.5352570173732746,0.5352570173732746
0.43759426257719486,0.43759426257719486
0.30737725618242184,0.30737725618242184
0.10391318369058898,0.10391318369058898
-0.0018881340051641016,-0.0018881340051641016
-0.17279795489830369,-0.17279795489830369
-0.2297678951960169,-0.2297678951960169
-0.2297678951960169,-0.2297678951960169
-0.1890750806976503,-0.1890750806976503
-0.27046070969438346,-0.27046070969438346
-0.1890750806976503,-0.1890750806976503
-0.17279795489830369,-0.17279795489830369
-0.14838226619928374,-0.14838226619928374
-0.1890750806976503,-0.1890750806976503
-0.17279795489830369,-0.17279795489830369
-0.1890750806976503,-0.1890750806976503
-0.1890750806976503,-0.1890750806976503
-0.12396657750026381,-0.12396657750026381
-0.2297678951960169,-0.2297678951960169
-0.27046070969438346,-0.27046070969438346
-0.21349076939667025,-0.21349076939667025
-0.08327376300189723,-0.08327376300189723
0.07949749499156904,0.07949749499156904
0.20157593848666874,0.20157593848666874
0.45387138837654145,0.45387138837654145
0.5352570173732746,0.5352570173732746
0.518979891573928,0.518979891573928
0.7061668382664141,0.7061668382664141
0.4782870770755614,0.4782870770755614
0.16088312398830218,0.16088312398830218
-0.2541835838950368,-0.2541835838950368
-0.4006777160891565,-0.4006777160891565
-0.5227561595842561,-0.5227561595842561
-0.4820633450858896,-0.4820633450858896
-0.5064790337849095,-0.5064790337849095
-0.5227561595842561,-0.5227561595842561
-0.7750516094741289,-0.7750516094741289
-0.8157444239724955,-0.8157444239724955
0.5596727060722946,0.5596727060722946
3.7418507998445603,3.7418507998445603
4.580122778510911,4.580122778510911
3.4488625354563207,3.4488625354563207
-0.8320215497718421,-0.8320215497718421
-1.7923719719332931,-1.7923719719332931
-1.2552268205548545,-1.2552268205548545
-1.0843169996617148,-1.0843169996617148
-1.2308111318558346,-1.2308111318558346
-1.4424137672473407,-1.4424137672473407
-1.3366124495515876,-1.3366124495515876
-1.1494255028591014,-1.1494255028591014
-0.9785156819659617,-0.9785156819659617
-0.8564372384708621,-0.8564372384708621
-0.7913287352734756,-0.7913287352734756
-0.880852927169882,-0.880852927169882
-0.750635920775109,-0.750635920775109
-0.6285574772800092,-0.6285574772800092
-0.5227561595842561,-0.5227561595842561
-0.4169548418885031,-0.4169548418885031
-0.2948763983934034,-0.2948763983934034
-0.10768945170091718,-0.10768945170091718
0.1201903094899356,0.1201903094899356
0.2911001303830752,0.2911001303830752
0.43759426257719486,0.43759426257719486
0.5596727060722946,0.5596727060722946
0.49456420287490804,0.49456420287490804
0.6654740237680477,0.6654740237680477
0.7631367785641274,0.7631367785641274
0.7875524672631473,0.7875524672631473
0.6654740237680477,0.6654740237680477
0.49456420287490804,0.49456420287490804
0.33179294488144173,0.33179294488144173
0.26668444168405525,0.26668444168405525
0.1201903094899356,0.1201903094899356
-0.0018881340051641016,-0.0018881340051641016
-0.04258094850353067,-0.04258094850353067
-0.06699663720255061,-0.06699663720255061
-0.08327376300189723,-0.08327376300189723
-0.12396657750026381,-0.12396657750026381
-0.21349076939667025,-0.21349076939667025
-0.2297678951960169,-0.2297678951960169
-0.14838226619928374,-0.14838226619928374
-0.12396657750026381,-0.12396657750026381
-0.17279795489830369,-0.17279795489830369
-0.12396657750026381,-0.12396657750026381
-0.12396657750026381,-0.12396657750026381
-0.17279795489830369,-0.17279795489830369
-0.08327376300189723,-0.08327376300189723
-0.06699663720255061,-0.06699663720255061
-0.04258094850353067,-0.04258094850353067
0.07949749499156904,0.07949749499156904
0.2504073158847086,0.2504073158847086
0.30737725618242184,0.30737725618242184
0.5596727060722946,0.5596727060722946
0.6003655205706611,0.6003655205706611
0.6817511495673942,0.6817511495673942
0.7061668382664141,0.7061668382664141
0.45387138837654145,0.45387138837654145
0.038804680493202466,0.038804680493202466
-0.27046070969438346,-0.27046070969438346
-0.4006777160891565,-0.4006777160891565
-0.4169548418885031,-0.4169548418885031
-0.4820633450858896,-0.4820633450858896
-0.5227561595842561,-0.5227561595842561
-0.4820633450858896,-0.4820633450858896
-0.7913287352734756,-0.7913287352734756
-0.5878646627816427,-0.5878646627816427
1.1456492348487732,1.1456492348487732
4.409212957617772,4.409212957617772
4.580122778510911,4.580122778510911
2.41526504719781,2.41526504719781
-1.0436241851633483,-1.0436241851633483
-1.4586908930466873,-1.4586908930466873
-1.1250098141600813,-1.1250098141600813
-1.0192084964643282,-1.0192084964643282
-0.9378228674675951,-0.9378228674675951
-0.9215457416682485,-0.9215457416682485
-1.0436241851633483,-1.0436241851633483
-0.9785156819659617,-0.9785156819659617
-0.8971300529692287,-0.8971300529692287
-0.750635920775109,-0.750635920775109
-0.7750516094741289,-0.7750516094741289
-0.6041417885809893,-0.6041417885809893
-0.6285574772800092,-0.6285574772800092
-0.4820633450858896,-0.4820633450858896
-0.5064790337849095,-0.5064790337849095
-0.4006777160891565,-0.4006777160891565
-0.2948763983934034,-0.2948763983934034
-0.12396657750026381,-0.12396657750026381
-0.026303822704184042,-0.026303822704184042
0.18529881268732212,0.18529881268732212
0.30737725618242184,0.30737725618242184
0.3724857593798083,0.3724857593798083
0.49456420287490804,0.49456420287490804
0.6654740237680477,0.6654740237680477
0.7224439640657608,0.7224439640657608
0.7224439640657608,0.7224439640657608
0.518979891573928,0.518979891573928
0.38876288517915497,0.38876288517915497
0.2259916271856887,0.2259916271856887
0.14460599818895553,0.14460599818895553
0.14460599818895553,0.14460599818895553
0.07949749499156904,0.07949749499156904
0.0632203691922224,0.0632203691922224
0.038804680493202466,0.038804680493202466
0.038804680493202466,0.038804680493202466
-0.10768945170091718,-0.10768945170091718
-0.17279795489830369,-0.17279795489830369
-0.21349076939667025,-0.21349076939667025
-0.2541835838950368,-0.2541835838950368
-0.14838226619928374,-0.14838226619928374
-0.10768945170091718,-0.10768945170091718
-0.17279795489830369,-0.17279795489830369
-0.17279795489830369,-0.17279795489830369
-0.1890750806976503,-0.1890750806976503
-0.10768945170091718,-0.10768945170091718
-0.12396657750026381,-0.12396657750026381
-0.04258094850353067,-0.04258094850353067
0.18529881268732212,0.18529881268732212
0.3724857593798083,0.3724857593798083
0.5596727060722946,0.5596727060722946
0.8282452817615139,0.8282452817615139
0.9747394139556336,0.9747394139556336
1.0968178574507332,1.0968178574507332
0.9991551026546535,0.9991551026546535
0.6410583350690277,0.6410583350690277
0.1201903094899356,0.1201903094899356
-0.21349076939667025,-0.21349076939667025
-0.4169548418885031,-0.4169548418885031
-0.5471718482832761,-0.5471718482832761
-0.6448346030793559,-0.6448346030793559
-0.6692502917783758,-0.6692502917783758
-0.750635920775109,-0.750635920775109
-0.9622385561666151,-0.9622385561666151
-0.45764765638686966,-0.45764765638686966
1.8292885184213314,1.8292885184213314
4.580122778510911,4.580122778510911
4.580122778510911,4.580122778510911
1.430498936337339,1.430498936337339
-1.2063954431568145,-1.2063954431568145
-1.3121967608525675,-1.3121967608525675
-0.9785156819659617,-0.9785156819659617
-0.7913287352734756,-0.7913287352734756
-0.750635920775109,-0.750635920775109
-0.7750516094741289,-0.7750516094741289
-0.6936659804773958,-0.6936659804773958
-0.6285574772800092,-0.6285574772800092
-0.5878646627816427,-0.5878646627816427
-0.45764765638686966,-0.45764765638686966
-0.5634489740826227,-0.5634489740826227
-0.5064790337849095,-0.5064790337849095
-0.37626202739013653,-0.37626202739013653
-0.37626202739013653,-0.37626202739013653
-0.31929208709242335,-0.31929208709242335
-0.33556921289176994,-0.33556921289176994
-0.3599849015907899,-0.3599849015907899
-0.17279795489830369,-0.17279795489830369
-0.06699663720255061,-0.06699663720255061
0.014388991794182526,0.014388991794182526
0.1201903094899356,0.1201903094899356
0.16088312398830218,0.16088312398830218
0.2911001303830752,0.2911001303830752
0.4131785738781749,0.4131785738781749
0.5596727060722946,0.5596727060722946
0.6247812092696811,0.6247812092696811
0.5759498318716412,0.5759498318716412
0.4131785738781749,0.4131785738781749
0.2911001303830752,0.2911001303830752
0.18529881268732212,0.18529881268732212
0.16088312398830218,0.16088312398830218
0.18529881268732212,0.18529881268732212
0.1201903094899356,0.1201903094899356
0.1201903094899356,0.1201903094899356
0.10391318369058898,0.10391318369058898
0.1201903094899356,0.1201903094899356
0.07949749499156904,0.07949749499156904
0.10391318369058898,0.10391318369058898
-0.0018881340051641016,-0.0018881340051641016
-0.08327376300189723,-0.08327376300189723
-0.14838226619928374,-0.14838226619928374
-0.1890750806976503,-0.1890750806976503
-0.27046070969438346,-0.27046070969438346
-0.31929208709242335,-0.31929208709242335
-0.33556921289176994,-0.33556921289176994
-0.31929208709242335,-0.31929208709242335
-0.27046070969438346,-0.27046070969438346
-0.10768945170091718,-0.10768945170091718
-0.0018881340051641016,-0.0018881340051641016
0.26668444168405525,0.26668444168405525
0.4782870770755614,0.4782870770755614
0.6247812092696811,0.6247812092696811
0.8119681559621673,0.8119681559621673
0.8526609704605338,0.8526609704605338
0.6003655205706611,0.6003655205706611
0.2259916271856887,0.2259916271856887
0.014388991794182526,0.014388991794182526
-0.026303822704184042,-0.026303822704184042
-0.17279795489830369,-0.17279795489830369
-0.21349076939667025,-0.21349076939667025
-0.2297678951960169,-0.2297678951960169
-0.21349076939667025,-0.21349076939667025
-0.5878646627816427,-0.5878646627816427
0.1201903094899356,0.1201903094899356
2.9768258872752686,2.9768258872752686
4.580122778510911,4.580122778510911
4.580122778510911,4.580122778510911
0.20157593848666874,0.20157593848666874
-1.5644922107424404,-1.5644922107424404
-1.1494255028591014,-1.1494255028591014
-0.9622385561666151,-0.9622385561666151
-1.1494255028591014,-1.1494255028591014
-1.0192084964643282,-1.0192084964643282
-0.9785156819659617,-0.9785156819659617
-0.8320215497718421,-0.8320215497718421
-0.9622385561666151,-0.9622385561666151
-0.750635920775109,-0.750635920775109
-0.5227561595842561,-0.5227561595842561
-0.3599849015907899,-0.3599849015907899
-0.5471718482832761,-0.5471718482832761
-0.5634489740826227,-0.5634489740826227
-0.37626202739013653,-0.37626202739013653
-0.1890750806976503,-0.1890750806976503
-0.10768945170091718,-0.10768945170091718
-0.12396657750026381,-0.12396657750026381
0.2259916271856887,0.2259916271856887
0.4131785738781749,0.4131785738781749
0.45387138837654145,0.45387138837654145
0.518979891573928,0.518979891573928
0.6003655205706611,0.6003655205706611
0.5759498318716412,0.5759498318716412
0.7224439640657608,0.7224439640657608
0.7224439640657608,0.7224439640657608
0.7061668382664141,0.7061668382664141
0.49456420287490804,0.49456420287490804
0.3480700706807884,0.3480700706807884
0.2504073158847086,0.2504073158847086
0.14460599818895553,0.14460599818895553
0.014388991794182526,0.014388991794182526
-0.0018881340051641016,-0.0018881340051641016
-0.08327376300189723,-0.08327376300189723
0.014388991794182526,0.014388991794182526
0.10391318369058898,0.10391318369058898
0.1201903094899356,0.1201903094899356
0.014388991794182526,0.014388991794182526
0.07949749499156904,0.07949749499156904
0.014388991794182526,0.014388991794182526
-0.04258094850353067,-0.04258094850353067
-0.08327376300189723,-0.08327376300189723
-0.08327376300189723,-0.08327376300189723
-0.08327376300189723,-0.08327376300189723
-0.08327376300189723,-0.08327376300189723
-0.17279795489830369,-0.17279795489830369
-0.12396657750026381,-0.12396657750026381
-0.08327376300189723,-0.08327376300189723
0.038804680493202466,0.038804680493202466
0.07949749499156904,0.07949749499156904
0.30737725618242184,0.30737725618242184
0.38876288517915497,0.38876288517915497
0.4782870770755614,0.4782870770755614
0.5759498318716412,0.5759498318716412
0.38876288517915497,0.38876288517915497
0.0632203691922224,0.0632203691922224
-0.27046070969438346,-0.27046070969438346
-0.441370530587523,-0.441370530587523
-0.4820633450858896,-0.4820633450858896
-0.4820633450858896,-0.4820633450858896
-0.5064790337849095,-0.5064790337849095
-0.45764765638686966,-0.45764765638686966
-0.8320215497718421,-0.8320215497718421
-0.8564372384708621,-0.8564372384708621
0.8933537849589004,0.8933537849589004
4.3441044544203855,4.3441044544203855
4.580122778510911,4.580122778510911
2.9117173840778823,2.9117173840778823
-1.2552268205548545,-1.2552268205548545
-1.8574804751306797,-1.8574804751306797
-1.271503946354201,-1.271503946354201
-1.1494255028591014,-1.1494255028591014
-1.1901183173574679,-1.1901183173574679
-1.1494255028591014,-1.1494255028591014
-1.0680398738623682,-1.0680398738623682
-1.0843169996617148,-1.0843169996617148
-0.9622385561666151,-0.9622385561666151
-0.8971300529692287,-0.8971300529692287
-0.8320215497718421,-0.8320215497718421
-0.7750516094741289,-0.7750516094741289
-0.750635920775109,-0.750635920775109
-0.7343587949757623,-0.7343587949757623
-0.7343587949757623,-0.7343587949757623
-0.6041417885809893,-0.6041417885809893
-0.5227561595842561,-0.5227561595842561
-0.4006777160891565,-0.4006777160891565
-0.2541835838950368,-0.2541835838950368
-0.08327376300189723,-0.08327376300189723
0.038804680493202466,0.038804680493202466
0.14460599818895553,0.14460599818895553
0.2504073158847086,0.2504073158847086
0.3724857593798083,0.3724857593798083
0.49456420287490804,0.49456420287490804
0.518979891573928,0.518979891573928
0.3724857593798083,0.3724857593798083
0.2504073158847086,0.2504073158847086
0.07949749499156904,0.07949749499156904
-0.06699663720255061,-0.06699663720255061
-0.1890750806976503,-0.1890750806976503
-0.2948763983934034,-0.2948763983934034
-0.37626202739013653,-0.37626202739013653
-0.4006777160891565,-0.4006777160891565
-0.2948763983934034,-0.2948763983934034
-0.27046070969438346,-0.27046070969438346
-0.27046070969438346,-0.27046070969438346
-0.2541835838950368,-0.2541835838950368
-0.27046070969438346,-0.27046070969438346
-0.21349076939667025,-0.21349076939667025
-0.1890750806976503,-0.1890750806976503
-0.2297678951960169,-0.2297678951960169
-0.2541835838950368,-0.2541835838950368
-0.2948763983934034,-0.2948763983934034
-0.27046070969438346,-0.27046070969438346
-0.31929208709242335,-0.31929208709242335
-0.2541835838950368,-0.2541835838950368
-0.08327376300189723,-0.08327376300189723
0.0632203691922224,0.0632203691922224
0.18529881268732212,0.18529881268732212
0.4131785738781749,0.4131785738781749
0.49456420287490804,0.49456420287490804
0.5759498318716412,0.5759498318716412
0.6003655205706611,0.6003655205706611
0.3480700706807884,0.3480700706807884
-0.026303822704184042,-0.026303822704184042
-0.3599849015907899,-0.3599849015907899
-0.5227561595842561,-0.5227561595842561
-0.5064790337849095,-0.5064790337849095
-0.6692502917783758,-0.6692502917783758
-0.6285574772800092,-0.6285574772800092
-0.6448346030793559,-0.6448346030793559
-0.9378228674675951,-0.9378228674675951
-0.7099431062767424,-0.7099431062767424
1.1456492348487732,1.1456492348487732
4.580122778510911,4.580122778510911
4.580122778510911,4.580122778510911
2.602451993890296,2.602451993890296
-1.1087326883607347,-1.1087326883607347
-1.5400765220434205,-1.5400765220434205
-1.1494255028591014,-1.1494255028591014
-1.0680398738623682,-1.0680398738623682
-1.0029313706649816,-1.0029313706649816
-1.0192084964643282,-1.0192084964643282
-1.0192084964643282,-1.0192084964643282
-0.9785156819659617,-0.9785156819659617
-0.9785156819659617,-0.9785156819659617
-0.880852927169882,-0.880852927169882
-0.9215457416682485,-0.9215457416682485
-0.8564372384708621,-0.8564372384708621
-0.880852927169882,-0.880852927169882
-0.6936659804773958,-0.6936659804773958
-0.6285574772800092,-0.6285574772800092
-0.5227561595842561,-0.5227561595842561
-0.4006777160891565,-0.4006777160891565
-0.27046070969438346,-0.27046070969438346
-0.17279795489830369,-0.17279795489830369
0.014388991794182526,0.014388991794182526
0.14460599818895553,0.14460599818895553
0.2911001303830752,0.2911001303830752
0.38876288517915497,0.38876288517915497
0.518979891573928,0.518979891573928
0.6410583350690277,0.6410583350690277
0.6817511495673942,0.6817511495673942
0.6003655205706611,0.6003655205706611
0.4782870770755614,0.4782870770755614
0.3480700706807884,0.3480700706807884
0.20157593848666874,0.20157593848666874
0.0632203691922224,0.0632203691922224
-0.04258094850353067,-0.04258094850353067
-0.08327376300189723,-0.08327376300189723
-0.12396657750026381,-0.12396657750026381
-0.06699663720255061,-0.06699663720255061
-0.08327376300189723,-0.08327376300189723
-0.04258094850353067,-0.04258094850353067
-0.026303822704184042,-0.026303822704184042
0.014388991794182526,0.014388991794182526
-0.06699663720255061,-0.06699663720255061
-0.17279795489830369,-0.17279795489830369
-0.17279795489830369,-0.17279795489830369
-0.21349076939667025,-0.21349076939667025
-0.2541835838950368,-0.2541835838950368
-0.1890750806976503,-0.1890750806976503
-0.1890750806976503,-0.1890750806976503
-0.14838226619928374,-0.14838226619928374
-0.08327376300189723,-0.08327376300189723
-0.0018881340051641016,-0.0018881340051641016
0.0632203691922224,0.0632203691922224
0.26668444168405525,0.26668444168405525
0.45387138837654145,0.45387138837654145
0.5759498318716412,0.5759498318716412
0.6410583350690277,0.6410583350690277
0.43759426257719486,0.43759426257719486
0.07949749499156904,0.07949749499156904
-0.10768945170091718,-0.10768945170091718
-0.2948763983934034,-0.2948763983934034
-0.31929208709242335,-0.31929208709242335
-0.27046070969438346,-0.27046070969438346
-0.33556921289176994,-0.33556921289176994
-0.31929208709242335,-0.31929208709242335
-0.5878646627816427,-0.5878646627816427
-0.5227561595842561,-0.5227561595842561
0.7875524672631473,0.7875524672631473
4.059254752931819,4.059254752931819
4.580122778510911,4.580122778510911
3.220982774265468,3.220982774265468
-0.7750516094741289,-0.7750516094741289
-1.5889078994414603,-1.5889078994414603
-1.271503946354201,-1.271503946354201
-1.1250098141600813,-1.1250098141600813
-1.165702628658448,-1.165702628658448
-1.1250098141600813,-1.1250098141600813
-1.1494255028591014,-1.1494255028591014
-1.1087326883607347,-1.1087326883607347
-1.0436241851633483,-1.0436241851633483
-0.8564372384708621,-0.8564372384708621
-0.8157444239724955,-0.8157444239724955
-0.750635920775109,-0.750635920775109
-0.6936659804773958,-0.6936659804773958
-0.5634489740826227,-0.5634489740826227
-0.45764765638686966,-0.45764765638686966
-0.31929208709242335,-0.31929208709242335
-0.17279795489830369,-0.17279795489830369
0.014388991794182526,0.014388991794182526
0.1201903094899356,0.1201903094899356
0.2911001303830752,0.2911001303830752
0.38876288517915497,0.38876288517915497
0.43759426257719486,0.43759426257719486
0.49456420287490804,0.49456420287490804
0.5759498318716412,0.5759498318716412
0.7468596527647807,0.7468596527647807
0.7061668382664141,0.7061668382664141
0.6247812092696811,0.6247812092696811
0.43759426257719486,0.43759426257719486
0.2259916271856887,0.2259916271856887
0.16088312398830218,0.16088312398830218
0.038804680493202466,0.038804680493202466
0.0632203691922224,0.0632203691922224
-0.0018881340051641016,-0.0018881340051641016
0.014388991794182526,0.014388991794182526
0.014388991794182526,0.014388991794182526
-0.08327376300189723,-0.08327376300189723
0.014388991794182526,0.014388991794182526
0.0632203691922224,0.0632203691922224
0.14460599818895553,0.14460599818895553
0.07949749499156904,0.07949749499156904
0.038804680493202466,0.038804680493202466
0.0632203691922224,0.0632203691922224
0.1201903094899356,0.1201903094899356
0.0632203691922224,0.0632203691922224
0.014388991794182526,0.014388991794182526
0.038804680493202466,0.038804680493202466
-0.026303822704184042,-0.026303822704184042
0.07949749499156904,0.07949749499156904
0.20157593848666874,0.20157593848666874
0.26668444168405525,0.26668444168405525
0.49456420287490804,0.49456420287490804
0.6003655205706611,0.6003655205706611
0.6654740237680477,0.6654740237680477
0.7631367785641274,0.7631367785641274
0.49456420287490804,0.49456420287490804
0.18529881268732212,0.18529881268732212
-0.14838226619928374,-0.14838226619928374
-0.4006777160891565,-0.4006777160891565
-0.4820633450858896,-0.4820633450858896
-0.5064790337849095,-0.5064790337849095
-0.441370530587523,-0.441370530587523
-0.4169548418885031,-0.4169548418885031
-0.6936659804773958,-0.6936659804773958
-0.7750516094741289,-0.7750516094741289
0.45387138837654145,0.45387138837654145
3.4488625354563207,3.4488625354563207
4.580122778510911,4.580122778510911
3.872067806239333,3.872067806239333
-0.17279795489830369,-0.17279795489830369
-1.4424137672473407,-1.4424137672473407
-1.1250098141600813,-1.1250098141600813
-1.0680398738623682,-1.0680398738623682
-1.0436241851633483,-1.0436241851633483
-1.0843169996617148,-1.0843169996617148
-1.0843169996617148,-1.0843169996617148
-1.0680398738623682,-1.0680398738623682
-1.1250098141600813,-1.1250098141600813
-0.9622385561666151,-0.9622385561666151
-0.8320215497718421,-0.8320215497718421
-0.7750516094741289,-0.7750516094741289
-0.6692502917783758,-0.6692502917783758
-0.5471718482832761,-0.5471718482832761
-0.45764765638686966,-0.45764765638686966
-0.33556921289176994,-0.33556921289176994
-0.21349076939667025,-0.21349076939667025
-0.04258094850353067,-0.04258094850353067
0.14460599818895553,0.14460599818895553
0.33179294488144173,0.33179294488144173
0.4131785738781749,0.4131785738781749
0.518979891573928,0.518979891573928
0.6247812092696811,0.6247812092696811
0.6410583350690277,0.6410583350690277
0.7875524672631473,0.7875524672631473
0.7061668382664141,0.7061668382664141
0.6003655205706611,0.6003655205706611
0.49456420287490804,0.49456420287490804
0.2911001303830752,0.2911001303830752
0.1201903094899356,0.1201903094899356
-0.026303822704184042,-0.026303822704184042
-0.08327376300189723,-0.08327376300189723
-0.026303822704184042,-0.026303822704184042
-0.06699663720255061,-0.06699663720255061
-0.026303822704184042,-0.026303822704184042
-0.0018881340051641016,-0.0018881340051641016
-0.0018881340051641016,-0.0018881340051641016
-0.04258094850353067,-0.04258094850353067
0.10391318369058898,0.10391318369058898
0.1201903094899356,0.1201903094899356
0.038804680493202466,0.038804680493202466
0.10391318369058898,0.10391318369058898
0.0632203691922224,0.0632203691922224
0.1201903094899356,0.1201903094899356
0.0632203691922224,0.0632203691922224
0.014388991794182526,0.014388991794182526
0.0632203691922224,0.0632203691922224
0.10391318369058898,0.10391318369058898
0.20157593848666874,0.20157593848666874
0.2504073158847086,0.2504073158847086
0.43759426257719486,0.43759426257719486
0.5352570173732746,0.5352570173732746
0.6654740237680477,0.6654740237680477
0.7875524672631473,0.7875524672631473
0.6247812092696811,0.6247812092696811
0.33179294488144173,0.33179294488144173
-0.026303822704184042,-0.026303822704184042
-0.21349076939667025,-0.21349076939667025
-0.2948763983934034,-0.2948763983934034
-0.37626202739013653,-0.37626202739013653
-0.1890750806976503,-0.1890750806976503
-0.2541835838950368,-0.2541835838950368
-0.2297678951960169,-0.2297678951960169
-0.4820633450858896,-0.4820633450858896
0.38876288517915497,0.38876288517915497
3.0337958275729817,3.0337958275729817
4.580122778510911,4.580122778510911
4.555707089811891,4.555707089811891
0.5596727060722946,0.5596727060722946
-1.3121967608525675,-1.3121967608525675
-1.0436241851633483,-1.0436241851633483
-0.9622385561666151,-0.9622385561666151
-1.0029313706649816,-1.0029313706649816
-0.9785156819659617,-0.9785156819659617
-0.9215457416682485,-0.9215457416682485
-0.9215457416682485,-0.9215457416682485
-0.9622385561666151,-0.9622385561666151
-0.8320215497718421,-0.8320215497718421
-0.880852927169882,-0.880852927169882
-0.6936659804773958,-0.6936659804773958
-0.5878646627816427,-0.5878646627816427
-0.5471718482832761,-0.5471718482832761
-0.4169548418885031,-0.4169548418885031
-0.2948763983934034,-0.2948763983934034
-0.10768945170091718,-0.10768945170091718
-0.06699663720255061,-0.06699663720255061
0.14460599818895553,0.14460599818895553
0.33179294488144173,0.33179294488144173
0.4782870770755614,0.4782870770755614
0.5352570173732746,0.5352570173732746
0.5759498318716412,0.5759498318716412
0.6817511495673942,0.6817511495673942
0.7631367785641274,0.7631367785641274
0.8119681559621673,0.8119681559621673
0.7061668382664141,0.7061668382664141
0.518979891573928,0.518979891573928
0.38876288517915497,0.38876288517915497
0.2911001303830752,0.2911001303830752
0.20157593848666874,0.20157593848666874
0.1201903094899356,0.1201903094899356
0.10391318369058898,0.10391318369058898
0.14460599818895553,0.14460599818895553
0.2504073158847086,0.2504073158847086
0.26668444168405525,0.26668444168405525
0.14460599818895553,0.14460599818895553
0.1201903094899356,0.1201903094899356
0.26668444168405525,0.26668444168405525
0.2259916271856887,0.2259916271856887
0.30737725618242184,0.30737725618242184
0.2259916271856887,0.2259916271856887
0.45387138837654145,0.45387138837654145
0.07949749499156904,0.07949749499156904
0.014388991794182526,0.014388991794182526
0.10391318369058898,0.10391318369058898
0.1201903094899356,0.1201903094899356
-0.0018881340051641016,-0.0018881340051641016
0.33179294488144173,0.33179294488144173
0.45387138837654145,0.45387138837654145
0.4131785738781749,0.4131785738781749
0.7061668382664141,0.7061668382664141
0.8689380962598805,0.8689380962598805
1.015432228454,1.015432228454
1.0805407316513866,1.0805407316513866
0.6410583350690277,0.6410583350690277
0.2911001303830752,0.2911001303830752
-0.04258094850353067,-0.04258094850353067
-0.026303822704184042,-0.026303822704184042
-0.1890750806976503,-0.1890750806976503
-0.14838226619928374,-0.14838226619928374
-0.1890750806976503,-0.1890750806976503
-0.27046070969438346,-0.27046070969438346
-0.31929208709242335,-0.31929208709242335
0.18529881268732212,0.18529881268732212
2.602451993890296,2.602451993890296
4.580122778510911,4.580122778510911
4.580122778510911,4.580122778510911
1.5607159427321122,1.5607159427321122
-1.1250098141600813,-1.1250098141600813
-1.2308111318558346,-1.2308111318558346
-0.8320215497718421,-0.8320215497718421
-0.8564372384708621,-0.8564372384708621
-0.750635920775109,-0.750635920775109
-0.6692502917783758,-0.6692502917783758
-0.8157444239724955,-0.8157444239724955
-0.7913287352734756,-0.7913287352734756
-0.6692502917783758,-0.6692502917783758
-0.6041417885809893,-0.6041417885809893
-0.5634489740826227,-0.5634489740826227
-0.5064790337849095,-0.5064790337849095
-0.5227561595842561,-0.5227561595842561
-0.4006777160891565,-0.4006777160891565
-0.441370530587523,-0.441370530587523
-0.31929208709242335,-0.31929208709242335
-0.17279795489830369,-0.17279795489830369
0.014388991794182526,0.014388991794182526
0.20157593848666874,0.20157593848666874
0.30737725618242184,0.30737725618242184
0.3480700706807884,0.3480700706807884
0.518979891573928,0.518979891573928
0.5759498318716412,0.5759498318716412
0.7224439640657608,0.7224439640657608
0.7631367785641274,0.7631367785641274
0.7468596527647807,0.7468596527647807
0.6003655205706611,0.6003655205706611
0.7468596527647807,0.7468596527647807
0.4131785738781749,0.4131785738781749
0.10391318369058898,0.10391318369058898
0.16088312398830218,0.16088312398830218
-0.026303822704184042,-0.026303822704184042
0.2911001303830752,0.2911001303830752
0.07949749499156904,0.07949749499156904
-0.08327376300189723,-0.08327376300189723
-0.026303822704184042,-0.026303822704184042
0.10391318369058898,0.10391318369058898
-0.06699663720255061,-0.06699663720255061
-0.08327376300189723,-0.08327376300189723
-0.06699663720255061,-0.06699663720255061
-0.04258094850353067,-0.04258094850353067
-0.1890750806976503,-0.1890750806976503
-0.27046070969438346,-0.27046070969438346
-0.12396657750026381,-0.12396657750026381
0.038804680493202466,0.038804680493202466
-0.1890750806976503,-0.1890750806976503
-0.04258094850353067,-0.04258094850353067
0.26668444168405525,0.26668444168405525
0.2911001303830752,0.2911001303830752
0.20157593848666874,0.20157593848666874
0.5596727060722946,0.5596727060722946
0.49456420287490804,0.49456420287490804
0.7061668382664141,0.7061668382664141
0.5352570173732746,0.5352570173732746
0.18529881268732212,0.18529881268732212
-0.2948763983934034,-0.2948763983934034
-0.5634489740826227,-0.5634489740826227
-0.7750516094741289,-0.7750516094741289
-0.8157444239724955,-0.8157444239724955
-0.8320215497718421,-0.8320215497718421
-0.7913287352734756,-0.7913287352734756
-0.8564372384708621,-0.8564372384708621
-1.0436241851633483,-1.0436241851633483
-0.5064790337849095,-0.5064790337849095
1.845565644220678,1.845565644220678
4.580122778510911,4.580122778510911
4.580122778510911,4.580122778510911
1.2270348638455062,1.2270348638455062
-1.8574804751306797,-1.8574804751306797
-1.9388661041274127,-1.9388661041274127
-1.2308111318558346,-1.2308111318558346
-1.1494255028591014,-1.1494255028591014
-1.1901183173574679,-1.1901183173574679
-1.2308111318558346,-1.2308111318558346
-1.1901183173574679,-1.1901183173574679
-1.1494255028591014,-1.1494255028591014
-1.1494255028591014,-1.1494255028591014
-1.1250098141600813,-1.1250098141600813
-1.0843169996617148,-1.0843169996617148
-0.9622385561666151,-0.9622385561666151
-0.9378228674675951,-0.9378228674675951
-0.8157444239724955,-0.8157444239724955
-0.6936659804773958,-0.6936659804773958
-0.6285574772800092,-0.6285574772800092
-0.5227561595842561,-0.5227561595842561
-0.2948763983934034,-0.2948763983934034
-0.14838226619928374,-0.14838226619928374
-0.04258094850353067,-0.04258094850353067
0.1201903094899356,0.1201903094899356
0.18529881268732212,0.18529881268732212
0.2911001303830752,0.2911001303830752
0.43759426257719486,0.43759426257719486
0.5352570173732746,0.5352570173732746
0.5759498318716412,0.5759498318716412
0.45387138837654145,0.45387138837654145
0.30737725618242184,0.30737725618242184
0.1201903094899356,0.1201903094899356
-0.0018881340051641016,-0.0018881340051641016
-0.08327376300189723,-0.08327376300189723
-0.1890750806976503,-0.1890750806976503
-0.27046070969438346,-0.27046070969438346
-0.27046070969438346,-0.27046070969438346
-0.2948763983934034,-0.2948763983934034
-0.2948763983934034,-0.2948763983934034
-0.33556921289176994,-0.33556921289176994
-0.33556921289176994,-0.33556921289176994
-0.3599849015907899,-0.3599849015907899
-0.2948763983934034,-0.2948763983934034
-0.2948763983934034,-0.2948763983934034
-0.33556921289176994,-0.33556921289176994
-0.27046070969438346,-0.27046070969438346
-0.2948763983934034,-0.2948763983934034
-0.3599849015907899,-0.3599849015907899
-0.2948763983934034,-0.2948763983934034
-0.21349076939667025,-0.21349076939667025
-0.08327376300189723,-0.08327376300189723
0.014388991794182526,0.014388991794182526
0.16088312398830218,0.16088312398830218
0.43759426257719486,0.43759426257719486
0.45387138837654145,0.45387138837654145
0.5352570173732746,0.5352570173732746
0.5596727060722946,0.5596727060722946
0.2504073158847086,0.2504073158847086
-0.12396657750026381,-0.12396657750026381
-0.4006777160891565,-0.4006777160891565
-0.5064790337849095,-0.5064790337849095
-0.6285574772800092,-0.6285574772800092
-0.6041417885809893,-0.6041417885809893
-0.6285574772800092,-0.6285574772800092
-0.6692502917783758,-0.6692502917783758
-0.9785156819659617,-0.9785156819659617
-0.5471718482832761,-0.5471718482832761
1.5200231282337455,1.5200231282337455
4.580122778510911,4.580122778510911
4.580122778510911,4.580122778510911
1.9350898361170845,1.9350898361170845
-1.5400765220434205,-1.5400765220434205
-1.68657065423754,-1.68657065423754
-1.2308111318558346,-1.2308111318558346
-1.1901183173574679,-1.1901183173574679
-1.1494255028591014,-1.1494255028591014
-1.1494255028591014,-1.1494255028591014
-1.1087326883607347,-1.1087326883607347
-1.0843169996617148,-1.0843169996617148
-1.0192084964643282,-1.0192084964643282
-1.0029313706649816,-1.0029313706649816
-0.9622385561666151,-0.9622385561666151
-0.8971300529692287,-0.8971300529692287
-0.8320215497718421,-0.8320215497718421
-0.750635920775109,-0.750635920775109
-0.7343587949757623,-0.7343587949757623
-0.6448346030793559,-0.6448346030793559
-0.5227561595842561,-0.5227561595842561
-0.4169548418885031,-0.4169548418885031
-0.2541835838950368,-0.2541835838950368
-0.10768945170091718,-0.10768945170091718
0.0632203691922224,0.0632203691922224
0.20157593848666874,0.20157593848666874
0.3480700706807884,0.3480700706807884
0.4782870770755614,0.4782870770755614
0.5759498318716412,0.5759498318716412
0.6003655205706611,0.6003655205706611
0.45387138837654145,0.45387138837654145
0.3480700706807884,0.3480700706807884
0.2259916271856887,0.2259916271856887
0.0632203691922224,0.0632203691922224
-0.17279795489830369,-0.17279795489830369
-0.31929208709242335,-0.31929208709242335
-0.4006777160891565,-0.4006777160891565
-0.33556921289176994,-0.33556921289176994
-0.31929208709242335,-0.31929208709242335
-0.2948763983934034,-0.2948763983934034
-0.3599849015907899,-0.3599849015907899
-0.2541835838950368,-0.2541835838950368
-0.17279795489830369,-0.17279795489830369
-0.10768945170091718,-0.10768945170091718
-0.12396657750026381,-0.12396657750026381
-0.10768945170091718,-0.10768945170091718
-0.17279795489830369,-0.17279795489830369
-0.1890750806976503,-0.1890750806976503
-0.10768945170091718,-0.10768945170091718
-0.21349076939667025,-0.21349076939667025
-0.12396657750026381,-0.12396657750026381
-0.06699663720255061,-0.06699663720255061
-0.026303822704184042,-0.026303822704184042
0.014388991794182526,0.014388991794182526
0.16088312398830218,0.16088312398830218
0.20157593848666874,0.20157593848666874
0.2259916271856887,0.2259916271856887
0.26668444168405525,0.26668444168405525
0.0632203691922224,0.0632203691922224
-0.2948763983934034,-0.2948763983934034
-0.5634489740826227,-0.5634489740826227
-0.7750516094741289,-0.7750516094741289
-0.7750516094741289,-0.7750516094741289
-0.7913287352734756,-0.7913287352734756
-0.8320215497718421,-0.8320215497718421
-0.8564372384708621,-0.8564372384708621
-1.0192084964643282,-1.0192084964643282
-1.0843169996617148,-1.0843169996617148
0.07949749499156904,0.07949749499156904
3.4081697209579542,3.4081697209579542
4.580122778510911,4.580122778510911
3.7418507998445603,3.7418507998445603
-0.6285574772800092,-0.6285574772800092
-1.7272634687359065,-1.7272634687359065
-1.3773052640499541,-1.3773052640499541
-1.2552268205548545,-1.2552268205548545
-1.2552268205548545,-1.2552268205548545
-1.2552268205548545,-1.2552268205548545
-1.2063954431568145,-1.2063954431568145
-1.3121967608525675,-1.3121967608525675
-1.2552268205548545,-1.2552268205548545
-1.2552268205548545,-1.2552268205548545
-1.295919635053221,-1.295919635053221
-1.295919635053221,-1.295919635053221
-1.2552268205548545,-1.2552268205548545
-1.165702628658448,-1.165702628658448
-1.0680398738623682,-1.0680398738623682
-0.9378228674675951,-0.9378228674675951
-0.8157444239724955,-0.8157444239724955
-0.6285574772800092,-0.6285574772800092
-0.441370530587523,-0.441370530587523
-0.2541835838950368,-0.2541835838950368
-0.12396657750026381,-0.12396657750026381
0.0632203691922224,0.0632203691922224
0.038804680493202466,0.038804680493202466
0.18529881268732212,0.18529881268732212
0.33179294488144173,0.33179294488144173
0.38876288517915497,0.38876288517915497
0.26668444168405525,0.26668444168405525
0.1201903094899356,0.1201903094899356
-0.04258094850353067,-0.04258094850353067
-0.1890750806976503,-0.1890750806976503
-0.37626202739013653,-0.37626202739013653
-0.37626202739013653,-0.37626202739013653
-0.45764765638686966,-0.45764765638686966
-0.5064790337849095,-0.5064790337849095
-0.5471718482832761,-0.5471718482832761
-0.5471718482832761,-0.5471718482832761
-0.4820633450858896,-0.4820633450858896
-0.45764765638686966,-0.45764765638686966
-0.4169548418885031,-0.4169548418885031
-0.37626202739013653,-0.37626202739013653
-0.37626202739013653,-0.37626202739013653
-0.37626202739013653,-0.37626202739013653
-0.2948763983934034,-0.2948763983934034
-0.3599849015907899,-0.3599849015907899
-0.33556921289176994,-0.33556921289176994
-0.4169548418885031,-0.4169548418885031
-0.3599849015907899,-0.3599849015907899
-0.2948763983934034,-0.2948763983934034
-0.2541835838950368,-0.2541835838950368
-0.21349076939667025,-0.21349076939667025
-0.04258094850353067,-0.04258094850353067
0.1201903094899356,0.1201903094899356
0.14460599818895553,0.14460599818895553
0.2259916271856887,0.2259916271856887
0.16088312398830218,0.16088312398830218
-0.21349076939667025,-0.21349076939667025
-0.5878646627816427,-0.5878646627816427
-0.8320215497718421,-0.8320215497718421
-0.9622385561666151,-0.9622385561666151
-0.9785156819659617,-0.9785156819659617
-0.9622385561666151,-0.9622385561666151
-0.9622385561666151,-0.9622385561666151
-0.9785156819659617,-0.9785156819659617
-1.1250098141600813,-1.1250098141600813
-0.6448346030793559,-0.6448346030793559
1.7641800152239449,1.7641800152239449
4.580122778510911,4.580122778510911
4.580122778510911,4.580122778510911
0.9991551026546535,0.9991551026546535
-1.6296007139398268,-1.6296007139398268
-1.6702935284381935,-1.6702935284381935
-1.271503946354201,-1.271503946354201
-1.1901183173574679,-1.1901183173574679
-1.1494255028591014,-1.1494255028591014
-1.1494255028591014,-1.1494255028591014
-1.0843169996617148,-1.0843169996617148
-1.1494255028591014,-1.1494255028591014
-1.0680398738623682,-1.0680398738623682
-1.0192084964643282,-1.0192084964643282
-0.9785156819659617,-0.9785156819659617
-1.0029313706649816,-1.0029313706649816
-0.9378228674675951,-0.9378228674675951
-0.8320215497718421,-0.8320215497718421
-0.750635920775109,-0.750635920775109
-0.6936659804773958,-0.6936659804773958
-0.4820633450858896,-0.4820633450858896
-0.3599849015907899,-0.3599849015907899
-0.14838226619928374,-0.14838226619928374
-0.04258094850353067,-0.04258094850353067
0.1201903094899356,0.1201903094899356
0.2504073158847086,0.2504073158847086
0.3724857593798083,0.3724857593798083
0.5352570173732746,0.5352570173732746
0.5759498318716412,0.5759498318716412
0.49456420287490804,0.49456420287490804
0.4131785738781749,0.4131785738781749
0.2911001303830752,0.2911001303830752
0.10391318369058898,0.10391318369058898
0.038804680493202466,0.038804680493202466
-0.04258094850353067,-0.04258094850353067
-0.12396657750026381,-0.12396657750026381
-0.2297678951960169,-0.2297678951960169
-0.27046070969438346,-0.27046070969438346
-0.21349076939667025,-0.21349076939667025
-0.21349076939667025,-0.21349076939667025
-0.2297678951960169,-0.2297678951960169
-0.21349076939667025,-0.21349076939667025
-0.21349076939667025,-0.21349076939667025
-0.2297678951960169,-0.2297678951960169
-0.31929208709242335,-0.31929208709242335
-0.3599849015907899,-0.3599849015907899
-0.2541835838950368,-0.2541835838950368
-0.21349076939667025,-0.21349076939667025
-0.2297678951960169,-0.2297678951960169
-0.2541835838950368,-0.2541835838950368
-0.1890750806976503,-0.1890750806976503
-0.06699663720255061,-0.06699663720255061
0.038804680493202466,0.038804680493202466
0.1201903094899356,0.1201903094899356
0.43759426257719486,0.43759426257719486
0.49456420287490804,0.49456420287490804
0.6003655205706611,0.6003655205706611
0.6817511495673942,0.6817511495673942
0.43759426257719486,0.43759426257719486
0.014388991794182526,0.014388991794182526
-0.2541835838950368,-0.2541835838950368
-0.441370530587523,-0.441370530587523
-0.5064790337849095,-0.5064790337849095
-0.5227561595842561,-0.5227561595842561
-0.4169548418885031,-0.4169548418885031
-0.5227561595842561,-0.5227561595842561
-0.7099431062767424,-0.7099431062767424
-0.7343587949757623,-0.7343587949757623
0.7631367785641274,0.7631367785641274
4.099947567430186,4.099947567430186
4.580122778510911,4.580122778510911
3.1802899597671015,3.1802899597671015
-0.6936659804773958,-0.6936659804773958
-1.3528895753509342,-1.3528895753509342
-1.0436241851633483,-1.0436241851633483
-0.9622385561666151,-0.9622385561666151
-0.9785156819659617,-0.9785156819659617
-0.880852927169882,-0.880852927169882
-0.9378228674675951,-0.9378228674675951
-0.9378228674675951,-0.9378228674675951
-0.8157444239724955,-0.8157444239724955
-0.750635920775109,-0.750635920775109
-0.7750516094741289,-0.7750516094741289
-0.7343587949757623,-0.7343587949757623
-0.6285574772800092,-0.6285574772800092
-0.5064790337849095,-0.5064790337849095
-0.4820633450858896,-0.4820633450858896
-0.3599849015907899,-0.3599849015907899
-0.2541835838950368,-0.2541835838950368
-0.12396657750026381,-0.12396657750026381
0.0632203691922224,0.0632203691922224
0.2259916271856887,0.2259916271856887
0.3480700706807884,0.3480700706807884
0.4782870770755614,0.4782870770755614
0.5596727060722946,0.5596727060722946
0.6817511495673942,0.6817511495673942
0.8119681559621673,0.8119681559621673
0.8282452817615139,0.8282452817615139
0.7468596527647807,0.7468596527647807
0.6410583350690277,0.6410583350690277
0.518979891573928,0.518979891573928
0.38876288517915497,0.38876288517915497
0.30737725618242184,0.30737725618242184
0.2911001303830752,0.2911001303830752
0.30737725618242184,0.30737725618242184
0.30737725618242184,0.30737725618242184
0.33179294488144173,0.33179294488144173
0.3724857593798083,0.3724857593798083
0.33179294488144173,0.33179294488144173
0.30737725618242184,0.30737725618242184
0.30737725618242184,0.30737725618242184
0.2504073158847086,0.2504073158847086
0.1201903094899356,0.1201903094899356
0.2911001303830752,0.2911001303830752
0.16088312398830218,0.16088312398830218
0.07949749499156904,0.07949749499156904
0.1201903094899356,0.1201903094899356
0.038804680493202466,0.038804680493202466
0.014388991794182526,0.014388991794182526
0.30737725618242184,0.30737725618242184
0.45387138837654145,0.45387138837654145
0.5596727060722946,0.5596727060722946
0.7468596527647807,0.7468596527647807
1.015432228454,1.015432228454
1.0805407316513866,1.0805407316513866
1.2026191751464863,1.2026191751464863
1.267727678343873,1.267727678343873
0.8689380962598805,0.8689380962598805
0.38876288517915497,0.38876288517915497
0.26668444168405525,0.26668444168405525
0.07949749499156904,0.07949749499156904
-0.10768945170091718,-0.10768945170091718
-0.17279795489830369,-0.17279795489830369
0.07949749499156904,0.07949749499156904
-0.2297678951960169,-0.2297678951960169
-0.33556921289176994,-0.33556921289176994
0.33179294488144173,0.33179294488144173
2.871024569579516,2.871024569579516
4.580122778510911,4.580122778510911
4.580122778510911,4.580122778510911
1.2840048041432195,1.2840048041432195
-1.2552268205548545,-1.2552268205548545
-0.9622385561666151,-0.9622385561666151
-0.6285574772800092,-0.6285574772800092
-0.5878646627816427,-0.5878646627816427
-0.5634489740826227,-0.5634489740826227
-0.6041417885809893,-0.6041417885809893
-0.5634489740826227,-0.5634489740826227
-0.5634489740826227,-0.5634489740826227
-0.45764765638686966,-0.45764765638686966
-0.4169548418885031,-0.4169548418885031
-0.45764765638686966,-0.45764765638686966
-0.31929208709242335,-0.31929208709242335
-0.3599849015907899,-0.3599849015907899
-0.17279795489830369,-0.17279795489830369
-0.21349076939667025,-0.21349076939667025
-0.10768945170091718,-0.10768945170091718
-0.0018881340051641016,-0.0018881340051641016
0.18529881268732212,0.18529881268732212
0.30737725618242184,0.30737725618242184
0.3724857593798083,0.3724857593798083
0.43759426257719486,0.43759426257719486
0.49456420287490804,0.49456420287490804
0.6247812092696811,0.6247812092696811
0.7061668382664141,0.7061668382664141
0.7631367785641274,0.7631367785641274
0.7224439640657608,0.7224439640657608
0.5759498318716412,0.5759498318716412
0.43759426257719486,0.43759426257719486
0.2911001303830752,0.2911001303830752
0.20157593848666874,0.20157593848666874
0.14460599818895553,0.14460599818895553
0.038804680493202466,0.038804680493202466
-0.0018881340051641016,-0.0018881340051641016
0.014388991794182526,0.014388991794182526
0.0632203691922224,0.0632203691922224
0.10391318369058898,0.10391318369058898
0.0632203691922224,0.0632203691922224
0.014388991794182526,0.014388991794182526
0.038804680493202466,0.038804680493202466
-0.0018881340051641016,-0.0018881340051641016
-0.026303822704184042,-0.026303822704184042
-0.04258094850353067,-0.04258094850353067
-0.12396657750026381,-0.12396657750026381
-0.1890750806976503,-0.1890750806976503
-0.14838226619928374,-0.14838226619928374
-0.1890750806976503,-0.1890750806976503
-0.1890750806976503,-0.1890750806976503
-0.12396657750026381,-0.12396657750026381
-0.04258094850353067,-0.04258094850353067
0.07949749499156904,0.07949749499156904
0.2911001303830752,0.2911001303830752
0.43759426257719486,0.43759426257719486
0.6003655205706611,0.6003655205706611
0.7061668382664141,0.7061668382664141
0.4782870770755614,0.4782870770755614
0.16088312398830218,0.16088312398830218
-0.06699663720255061,-0.06699663720255061
-0.1890750806976503,-0.1890750806976503
-0.2948763983934034,-0.2948763983934034
-0.31929208709242335,-0.31929208709242335
-0.37626202739013653,-0.37626202739013653
-0.45764765638686966,-0.45764765638686966
-0.7750516094741289,-0.7750516094741289
-0.8564372384708621,-0.8564372384708621
0.6817511495673942,0.6817511495673942
4.197610322226266,4.197610322226266
4.580122778510911,4.580122778510911
3.3674769064595877,3.3674769064595877
-1.2308111318558346,-1.2308111318558346
-2.0853602363215322,-2.0853602363215322
-1.5889078994414603,-1.5889078994414603
-1.3773052640499541,-1.3773052640499541
-1.2552268205548545,-1.2552268205548545
-1.1250098141600813,-1.1250098141600813
-1.1087326883607347,-1.1087326883607347
-1.0192084964643282,-1.0192084964643282
-0.880852927169882,-0.880852927169882
-0.7750516094741289,-0.7750516094741289
-0.6692502917783758,-0.6692502917783758
-0.5471718482832761,-0.5471718482832761
-0.4169548418885031,-0.4169548418885031
-0.441370530587523,-0.441370530587523
-0.3599849015907899,-0.3599849015907899
-0.27046070969438346,-0.27046070969438346
-0.1890750806976503,-0.1890750806976503
-0.04258094850353067,-0.04258094850353067
0.0632203691922224,0.0632203691922224
0.10391318369058898,0.10391318369058898
0.16088312398830218,0.16088312398830218
0.1201903094899356,0.1201903094899356
0.20157593848666874,0.20157593848666874
0.18529881268732212,0.18529881268732212
0.30737725618242184,0.30737725618242184
0.33179294488144173,0.33179294488144173
0.2504073158847086,0.2504073158847086
0.10391318369058898,0.10391318369058898
0.0632203691922224,0.0632203691922224
-0.12396657750026381,-0.12396657750026381
-0.21349076939667025,-0.21349076939667025
-0.21349076939667025,-0.21349076939667025
0.014388991794182526,0.014388991794182526
0.0632203691922224,0.0632203691922224
-0.026303822704184042,-0.026303822704184042
-0.0018881340051641016,-0.0018881340051641016
0.014388991794182526,0.014388991794182526
0.038804680493202466,0.038804680493202466
0.2259916271856887,0.2259916271856887
0.2504073158847086,0.2504073158847086
0.18529881268732212,0.18529881268732212
0.2259916271856887,0.2259916271856887
0.16088312398830218,0.16088312398830218
0.1201903094899356,0.1201903094899356
0.0632203691922224,0.0632203691922224
0.07949749499156904,0.07949749499156904
-0.0018881340051641016,-0.0018881340051641016
0.0632203691922224,0.0632203691922224
0.14460599818895553,0.14460599818895553
0.16088312398830218,0.16088312398830218
0.14460599818895553,0.14460599818895553
0.49456420287490804,0.49456420287490804
0.5352570173732746,0.5352570173732746
0.7061668382664141,0.7061668382664141
0.6247812092696811,0.6247812092696811
0.33179294488144173,0.33179294488144173
-0.026303822704184042,-0.026303822704184042
-0.1890750806976503,-0.1890750806976503
-0.3599849015907899,-0.3599849015907899
-0.37626202739013653,-0.37626202739013653
-0.37626202739013653,-0.37626202739013653
-0.3599849015907899,-0.3599849015907899
-0.31929208709242335,-0.31929208709242335
-0.5471718482832761,-0.5471718482832761
-0.12396657750026381,-0.12396657750026381
2.285048040803037,2.285048040803037
4.580122778510911,4.580122778510911
4.580122778510911,4.580122778510911
1.7234872007255784,1.7234872007255784
-1.2308111318558346,-1.2308111318558346
-1.2552268205548545,-1.2552268205548545
-0.9378228674675951,-0.9378228674675951
-0.880852927169882,-0.880852927169882
-0.8971300529692287,-0.8971300529692287
-0.7913287352734756,-0.7913287352734756
-0.9378228674675951,-0.9378228674675951
-0.8564372384708621,-0.8564372384708621
-0.7913287352734756,-0.7913287352734756
-0.7343587949757623,-0.7343587949757623
-0.6692502917783758,-0.6692502917783758
-0.5878646627816427,-0.5878646627816427
-0.5227561595842561,-0.5227561595842561
-0.45764765638686966,-0.45764765638686966
-0.4169548418885031,-0.4169548418885031
-0.27046070969438346,-0.27046070969438346
-0.14838226619928374,-0.14838226619928374
-0.0018881340051641016,-0.0018881340051641016
0.1201903094899356,0.1201903094899356
0.2259916271856887,0.2259916271856887
0.2504073158847086,0.2504073158847086
0.38876288517915497,0.38876288517915497
0.45387138837654145,0.45387138837654145
0.5759498318716412,0.5759498318716412
0.6817511495673942,0.6817511495673942
0.7061668382664141,0.7061668382664141
0.6003655205706611,0.6003655205706611
0.4782870770755614,0.4782870770755614
0.4131785738781749,0.4131785738781749
0.3480700706807884,0.3480700706807884
0.26668444168405525,0.26668444168405525
0.2504073158847086,0.2504073158847086
0.26668444168405525,0.26668444168405525
0.2911001303830752,0.2911001303830752
0.33179294488144173,0.33179294488144173
0.2911001303830752,0.2911001303830752
0.20157593848666874,0.20157593848666874
0.18529881268732212,0.18529881268732212
0.1201903094899356,0.1201903094899356
0.014388991794182526,0.014388991794182526
-0.10768945170091718,-0.10768945170091718
-0.1890750806976503,-0.1890750806976503
-0.2297678951960169,-0.2297678951960169
-0.27046070969438346,-0.27046070969438346
-0.31929208709242335,-0.31929208709242335
-0.33556921289176994,-0.33556921289176994
-0.2541835838950368,-0.2541835838950368
-0.06699663720255061,-0.06699663720255061
0.07949749499156904,0.07949749499156904
0.2504073158847086,0.2504073158847086
0.43759426257719486,0.43759426257719486
0.7468596527647807,0.7468596527647807
0.909630910758247,0.909630910758247
1.1619263606481198,1.1619263606481198
1.015432228454,1.015432228454
0.7224439640657608,0.7224439640657608
0.3480700706807884,0.3480700706807884
0.1201903094899356,0.1201903094899356
-0.08327376300189723,-0.08327376300189723
-0.12396657750026381,-0.12396657750026381
-0.21349076939667025,-0.21349076939667025
-0.2297678951960169,-0.2297678951960169
-0.4006777160891565,-0.4006777160891565
-0.6285574772800092,-0.6285574772800092
-0.1890750806976503,-0.1890750806976503
2.3257408553014036,2.3257408553014036
4.580122778510911,4.580122778510911
4.580122778510911,4.580122778510911
1.0968178574507332,1.0968178574507332
-1.4586908930466873,-1.4586908930466873
-1.2063954431568145,-1.2063954431568145
-0.9785156819659617,-0.9785156819659617
-0.9378228674675951,-0.9378228674675951
-0.8971300529692287,-0.8971300529692287
-0.7913287352734756,-0.7913287352734756
-0.7099431062767424,-0.7099431062767424
-0.7099431062767424,-0.7099431062767424
-0.6692502917783758,-0.6692502917783758
-0.5471718482832761,-0.5471718482832761
-0.5634489740826227,-0.5634489740826227
-0.5064790337849095,-0.5064790337849095
-0.4169548418885031,-0.4169548418885031
-0.37626202739013653,-0.37626202739013653
-0.3599849015907899,-0.3599849015907899
-0.2541835838950368,-0.2541835838950368
-0.12396657750026381,-0.12396657750026381
0.038804680493202466,0.038804680493202466
0.18529881268732212,0.18529881268732212
0.33179294488144173,0.33179294488144173
0.4131785738781749,0.4131785738781749
0.4782870770755614,0.4782870770755614
0.5759498318716412,0.5759498318716412
0.6654740237680477,0.6654740237680477
0.7631367785641274,0.7631367785641274
0.7061668382664141,0.7061668382664141
0.6247812092696811,0.6247812092696811
0.4782870770755614,0.4782870770755614
0.3480700706807884,0.3480700706807884
0.2259916271856887,0.2259916271856887
0.16088312398830218,0.16088312398830218
0.0632203691922224,0.0632203691922224
0.07949749499156904,0.07949749499156904
0.1201903094899356,0.1201903094899356
0.14460599818895553,0.14460599818895553
0.18529881268732212,0.18529881268732212
0.16088312398830218,0.16088312398830218
0.1201903094899356,0.1201903094899356
0.14460599818895553,0.14460599818895553
0.10391318369058898,0.10391318369058898
0.014388991794182526,0.014388991794182526
-0.0018881340051641016,-0.0018881340051641016
-0.04258094850353067,-0.04258094850353067
0.0632203691922224,0.0632203691922224
-0.0018881340051641016,-0.0018881340051641016
-0.08327376300189723,-0.08327376300189723
-0.08327376300189723,-0.08327376300189723
0.014388991794182526,0.014388991794182526
0.16088312398830218,0.16088312398830218
0.20157593848666874,0.20157593848666874
0.43759426257719486,0.43759426257719486
0.5759498318716412,0.5759498318716412
0.5596727060722946,0.5596727060722946
0.7061668382664141,0.7061668382664141
0.5759498318716412,0.5759498318716412
0.2911001303830752,0.2911001303830752
-0.026303822704184042,-0.026303822704184042
-0.27046070969438346,-0.27046070969438346
-0.37626202739013653,-0.37626202739013653
-0.4006777160891565,-0.4006777160891565
-0.441370530587523,-0.441370530587523
-0.4006777160891565,-0.4006777160891565
-0.5227561595842561,-0.5227561595842561
-0.6692502917783758,-0.6692502917783758
-0.0018881340051641016,-0.0018881340051641016
2.51292780199389,2.51292780199389
4.580122778510911,4.580122778510911
4.580122778510911,4.580122778510911
0.8689380962598805,0.8689380962598805
-1.401720952748974,-1.401720952748974
-1.1494255028591014,-1.1494255028591014
-0.9785156819659617,-0.9785156819659617
-0.9378228674675951,-0.9378228674675951
-0.8971300529692287,-0.8971300529692287
-0.880852927169882,-0.880852927169882
-0.8971300529692287,-0.8971300529692287
-0.8320215497718421,-0.8320215497718421
-0.8157444239724955,-0.8157444239724955
-0.7750516094741289,-0.7750516094741289
-0.7343587949757623,-0.7343587949757623
-0.6936659804773958,-0.6936659804773958
-0.5878646627816427,-0.5878646627816427
-0.5064790337849095,-0.5064790337849095
-0.4006777160891565,-0.4006777160891565
-0.31929208709242335,-0.31929208709242335
-0.17279795489830369,-0.17279795489830369
-0.0018881340051641016,-0.0018881340051641016
0.14460599818895553,0.14460599818895553
0.33179294488144173,0.33179294488144173
0.30737725618242184,0.30737725618242184
0.45387138837654145,0.45387138837654145
0.5596727060722946,0.5596727060722946
0.7631367785641274,0.7631367785641274
0.8282452817615139,0.8282452817615139
0.8689380962598805,0.8689380962598805
0.6247812092696811,0.6247812092696811
0.49456420287490804,0.49456420287490804
0.2911001303830752,0.2911001303830752
0.1201903094899356,0.1201903094899356
0.038804680493202466,0.038804680493202466
0.014388991794182526,0.014388991794182526
0.014388991794182526,0.014388991794182526
0.014388991794182526,0.014388991794182526
0.038804680493202466,0.038804680493202466
0.038804680493202466,0.038804680493202466
0.014388991794182526,0.014388991794182526
0.038804680493202466,0.038804680493202466
-0.0018881340051641016,-0.0018881340051641016
-0.04258094850353067,-0.04258094850353067
-0.026303822704184042,-0.026303822704184042
-0.10768945170091718,-0.10768945170091718
-0.08327376300189723,-0.08327376300189723
-0.12396657750026381,-0.12396657750026381
-0.04258094850353067,-0.04258094850353067
-0.06699663720255061,-0.06699663720255061
-0.026303822704184042,-0.026303822704184042
0.038804680493202466,0.038804680493202466
0.16088312398830218,0.16088312398830218
0.18529881268732212,0.18529881268732212
0.45387138837654145,0.45387138837654145
0.6003655205706611,0.6003655205706611
0.6817511495673942,0.6817511495673942
0.7875524672631473,0.7875524672631473
0.6247812092696811,0.6247812092696811
0.18529881268732212,0.18529881268732212
-0.08327376300189723,-0.08327376300189723
-0.33556921289176994,-0.33556921289176994
-0.4006777160891565,-0.4006777160891565
-0.4820633450858896,-0.4820633450858896
-0.4820633450858896,-0.4820633450858896
-0.4820633450858896,-0.4820633450858896
-0.6285574772800092,-0.6285574772800092
-0.750635920775109,-0.750635920775109
0.1201903094899356,0.1201903094899356
2.9117173840778823,2.9117173840778823
4.580122778510911,4.580122778510911
4.580122778510911,4.580122778510911
0.38876288517915497,0.38876288517915497
-1.4424137672473407,-1.4424137672473407
-1.1901183173574679,-1.1901183173574679
-0.9622385561666151,-0.9622385561666151
-0.9622385561666151,-0.9622385561666151
-0.9622385561666151,-0.9622385561666151
-0.9622385561666151,-0.9622385561666151
-0.9215457416682485,-0.9215457416682485
-0.9378228674675951,-0.9378228674675951
-0.7913287352734756,-0.7913287352734756
-0.7750516094741289,-0.7750516094741289
-0.7343587949757623,-0.7343587949757623
-0.6448346030793559,-0.6448346030793559
-0.5634489740826227,-0.5634489740826227
-0.5471718482832761,-0.5471718482832761
-0.4169548418885031,-0.4169548418885031
-0.37626202739013653,-0.37626202739013653
-0.1890750806976503,-0.1890750806976503
-0.026303822704184042,-0.026303822704184042
0.1201903094899356,0.1201903094899356
0.2504073158847086,0.2504073158847086
0.3724857593798083,0.3724857593798083
0.4782870770755614,0.4782870770755614
0.6003655205706611,0.6003655205706611
0.7224439640657608,0.7224439640657608
0.7631367785641274,0.7631367785641274
0.6817511495673942,0.6817511495673942
0.5596727060722946,0.5596727060722946
0.3724857593798083,0.3724857593798083
0.20157593848666874,0.20157593848666874
0.1201903094899356,0.1201903094899356
-0.04258094850353067,-0.04258094850353067
-0.08327376300189723,-0.08327376300189723
-0.04258094850353067,-0.04258094850353067
-0.08327376300189723,-0.08327376300189723
-0.04258094850353067,-0.04258094850353067
-0.10768945170091718,-0.10768945170091718
-0.14838226619928374,-0.14838226619928374
-0.08327376300189723,-0.08327376300189723
-0.14838226619928374,-0.14838226619928374
-0.21349076939667025,-0.21349076939667025
-0.2541835838950368,-0.2541835838950368
-0.1890750806976503,-0.1890750806976503
-0.21349076939667025,-0.21349076939667025
-0.2297678951960169,-0.2297678951960169
-0.33556921289176994,-0.33556921289176994
-0.4169548418885031,-0.4169548418885031
-0.27046070969438346,-0.27046070969438346
-0.08327376300189723,-0.08327376300189723
0.14460599818895553,0.14460599818895553
0.20157593848666874,0.20157593848666874
0.3724857593798083,0.3724857593798083
0.518979891573928,0.518979891573928
0.6817511495673942,0.6817511495673942
0.8689380962598805,0.8689380962598805
0.6654740237680477,0.6654740237680477
0.30737725618242184,0.30737725618242184
0.038804680493202466,0.038804680493202466
-0.21349076939667025,-0.21349076939667025
-0.31929208709242335,-0.31929208709242335
-0.3599849015907899,-0.3599849015907899
-0.37626202739013653,-0.37626202739013653
-0.4006777160891565,-0.4006777160891565
-0.6285574772800092,-0.6285574772800092
-0.7750516094741289,-0.7750516094741289
0.20157593848666874,0.20157593848666874
3.139597145268735,3.139597145268735
4.580122778510911,4.580122778510911
4.116224693229532,4.116224693229532
0.014388991794182526,0.014388991794182526
-1.4586908930466873,-1.4586908930466873
-1.165702628658448,-1.165702628658448
-0.9785156819659617,-0.9785156819659617
-0.8564372384708621,-0.8564372384708621
-0.7913287352734756,-0.7913287352734756
-0.7750516094741289,-0.7750516094741289
-0.8564372384708621,-0.8564372384708621
-0.7750516094741289,-0.7750516094741289
-0.7099431062767424,-0.7099431062767424
-0.6285574772800092,-0.6285574772800092
-0.5634489740826227,-0.5634489740826227
-0.5227561595842561,-0.5227561595842561
-0.441370530587523,-0.441370530587523
-0.37626202739013653,-0.37626202739013653
-0.441370530587523,-0.441370530587523
-0.3599849015907899,-0.3599849015907899
-0.33556921289176994,-0.33556921289176994
-0.27046070969438346,-0.27046070969438346
-0.14838226619928374,-0.14838226619928374
0.014388991794182526,0.014388991794182526
0.10391318369058898,0.10391318369058898
0.20157593848666874,0.20157593848666874
0.33179294488144173,0.33179294488144173
0.49456420287490804,0.49456420287490804
0.6003655205706611,0.6003655205706611
0.6410583350690277,0.6410583350690277
0.49456420287490804,0.49456420287490804
0.38876288517915497,0.38876288517915497
0.20157593848666874,0.20157593848666874
0.1201903094899356,0.1201903094899356
0.014388991794182526,0.014388991794182526
0.014388991794182526,0.014388991794182526
-0.0018881340051641016,-0.0018881340051641016
0.07949749499156904,0.07949749499156904
0.014388991794182526,0.014388991794182526
-0.026303822704184042,-0.026303822704184042
-0.06699663720255061,-0.06699663720255061
-0.026303822704184042,-0.026303822704184042
-0.12396657750026381,-0.12396657750026381
-0.10768945170091718,-0.10768945170091718
-0.2541835838950368,-0.2541835838950368
-0.27046070969438346,-0.27046070969438346
-0.2948763983934034,-0.2948763983934034
-0.2948763983934034,-0.2948763983934034
-0.33556921289176994,-0.33556921289176994
-0.3599849015907899,-0.3599849015907899
-0.27046070969438346,-0.27046070969438346
-0.08327376300189723,-0.08327376300189723
0.14460599818895553,0.14460599818895553
0.2504073158847086,0.2504073158847086
0.45387138837654145,0.45387138837654145
0.5352570173732746,0.5352570173732746
0.6654740237680477,0.6654740237680477
0.7631367785641274,0.7631367785641274
0.49456420287490804,0.49456420287490804
0.16088312398830218,0.16088312398830218
-0.14838226619928374,-0.14838226619928374
-0.4169548418885031,-0.4169548418885031
-0.4820633450858896,-0.4820633450858896
-0.4820633450858896,-0.4820633450858896
-0.5064790337849095,-0.5064790337849095
-0.5471718482832761,-0.5471718482832761
-0.750635920775109,-0.750635920775109
-0.8320215497718421,-0.8320215497718421
0.38876288517915497,0.38876288517915497
3.7255736740452137,3.7255736740452137
4.580122778510911,4.580122778510911
3.88834493203868,3.88834493203868
-0.5064790337849095,-0.5064790337849095
-1.5237993962440737,-1.5237993962440737
-1.1901183173574679,-1.1901183173574679
-1.0843169996617148,-1.0843169996617148
-1.0029313706649816,-1.0029313706649816
-0.9622385561666151,-0.9622385561666151
-0.8564372384708621,-0.8564372384708621
-0.7913287352734756,-0.7913287352734756
-0.7750516094741289,-0.7750516094741289
-0.6285574772800092,-0.6285574772800092
-0.5878646627816427,-0.5878646627816427
-0.441370530587523,-0.441370530587523
-0.5471718482832761,-0.5471718482832761
-0.4820633450858896,-0.4820633450858896
-0.45764765638686966,-0.45764765638686966
-0.27046070969438346,-0.27046070969438346
-0.2541835838950368,-0.2541835838950368
-0.1890750806976503,-0.1890750806976503
-0.04258094850353067,-0.04258094850353067
0.07949749499156904,0.07949749499156904
0.20157593848666874,0.20157593848666874
0.30737725618242184,0.30737725618242184
0.3480700706807884,0.3480700706807884
0.4131785738781749,0.4131785738781749
0.6247812092696811,0.6247812092696811
0.518979891573928,0.518979891573928
0.49456420287490804,0.49456420287490804
0.5596727060722946,0.5596727060722946
0.16088312398830218,0.16088312398830218
0.10391318369058898,0.10391318369058898
0.18529881268732212,0.18529881268732212
-0.0018881340051641016,-0.0018881340051641016
-0.08327376300189723,-0.08327376300189723
0.038804680493202466,0.038804680493202466
0.14460599818895553,0.14460599818895553
0.20157593848666874,0.20157593848666874
0.2259916271856887,0.2259916271856887
0.2911001303830752,0.2911001303830752
0.038804680493202466,0.038804680493202466
0.14460599818895553,0.14460599818895553
0.16088312398830218,0.16088312398830218
-0.0018881340051641016,-0.0018881340051641016
-0.12396657750026381,-0.12396657750026381
-0.10768945170091718,-0.10768945170091718
-0.2297678951960169,-0.2297678951960169
-0.3599849015907899,-0.3599849015907899
-0.37626202739013653,-0.37626202739013653
-0.2297678951960169,-0.2297678951960169
-0.08327376300189723,-0.08327376300189723
0.014388991794182526,0.014388991794182526
0.14460599818895553,0.14460599818895553
0.3724857593798083,0.3724857593798083
0.4782870770755614,0.4782870770755614
0.6003655205706611,0.6003655205706611
0.7061668382664141,0.7061668382664141
0.45387138837654145,0.45387138837654145
0.07949749499156904,0.07949749499156904
-0.17279795489830369,-0.17279795489830369
-0.3599849015907899,-0.3599849015907899
-0.45764765638686966,-0.45764765638686966
-0.45764765638686966,-0.45764765638686966
-0.5064790337849095,-0.5064790337849095
-0.6041417885809893,-0.6041417885809893
-0.880852927169882,-0.880852927169882
-0.5634489740826227,-0.5634489740826227
1.454914625036359,1.454914625036359
4.580122778510911,4.580122778510911
4.580122778510911,4.580122778510911
1.7234872007255784,1.7234872007255784
-1.7272634687359065,-1.7272634687359065
-2.0039746073247993,-2.0039746073247993
-1.271503946354201,-1.271503946354201
-1.1250098141600813,-1.1250098141600813
-1.0843169996617148,-1.0843169996617148
-1.1087326883607347,-1.1087326883607347
-0.9622385561666151,-0.9622385561666151
-0.9785156819659617,-0.9785156819659617
-0.880852927169882,-0.880852927169882
-0.880852927169882,-0.880852927169882
-0.8320215497718421,-0.8320215497718421
-0.7099431062767424,-0.7099431062767424
-0.5471718482832761,-0.5471718482832761
-0.4820633450858896,-0.4820633450858896
-0.5064790337849095,-0.5064790337849095
-0.441370530587523,-0.441370530587523
-0.37626202739013653,-0.37626202739013653
-0.2948763983934034,-0.2948763983934034
-0.14838226619928374,-0.14838226619928374
-0.026303822704184042,-0.026303822704184042
0.0632203691922224,0.0632203691922224
0.18529881268732212,0.18529881268732212
0.2504073158847086,0.2504073158847086
0.38876288517915497,0.38876288517915497
0.518979891573928,0.518979891573928
0.518979891573928,0.518979891573928
0.43759426257719486,0.43759426257719486
0.30737725618242184,0.30737725618242184
0.18529881268732212,0.18529881268732212
0.038804680493202466,0.038804680493202466
-0.10768945170091718,-0.10768945170091718
-0.1890750806976503,-0.1890750806976503
-0.17279795489830369,-0.17279795489830369
-0.1890750806976503,-0.1890750806976503
-0.1890750806976503,-0.1890750806976503
-0.21349076939667025,-0.21349076939667025
-0.1890750806976503,-0.1890750806976503
-0.2297678951960169,-0.2297678951960169
-0.1890750806976503,-0.1890750806976503
-0.2541835838950368,-0.2541835838950368
-0.27046070969438346,-0.27046070969438346
-0.27046070969438346,-0.27046070969438346
-0.31929208709242335,-0.31929208709242335
-0.31929208709242335,-0.31929208709242335
-0.2541835838950368,-0.2541835838950368
-0.33556921289176994,-0.33556921289176994
-0.2541835838950368,-0.2541835838950368
-0.21349076939667025,-0.21349076939667025
-0.10768945170091718,-0.10768945170091718
0.038804680493202466,0.038804680493202466
0.14460599818895553,0.14460599818895553
0.3724857593798083,0.3724857593798083
0.45387138837654145,0.45387138837654145
0.5759498318716412,0.5759498318716412
0.6003655205706611,0.6003655205706611
0.3480700706807884,0.3480700706807884
-0.14838226619928374,-0.14838226619928374
-0.4006777160891565,-0.4006777160891565
-0.5471718482832761,-0.5471718482832761
-0.5878646627816427,-0.5878646627816427
-0.6285574772800092,-0.6285574772800092
-0.5227561595842561,-0.5227561595842561
-0.5634489740826227,-0.5634489740826227
-0.880852927169882,-0.880852927169882
-0.6692502917783758,-0.6692502917783758
1.2433119896448528,1.2433119896448528
4.580122778510911,4.580122778510911
4.580122778510911,4.580122778510911
2.5536206164922564,2.5536206164922564
-1.1494255028591014,-1.1494255028591014
-1.5400765220434205,-1.5400765220434205
-1.0843169996617148,-1.0843169996617148
-0.9785156819659617,-0.9785156819659617
-0.9215457416682485,-0.9215457416682485
-0.8971300529692287,-0.8971300529692287
-0.8157444239724955,-0.8157444239724955
-0.8157444239724955,-0.8157444239724955
-0.6936659804773958,-0.6936659804773958
-0.6692502917783758,-0.6692502917783758
-0.6285574772800092,-0.6285574772800092
-0.6692502917783758,-0.6692502917783758
-0.5634489740826227,-0.5634489740826227
-0.5634489740826227,-0.5634489740826227
-0.5064790337849095,-0.5064790337849095
-0.4006777160891565,-0.4006777160891565
-0.3599849015907899,-0.3599849015907899
-0.1890750806976503,-0.1890750806976503
-0.08327376300189723,-0.08327376300189723
0.0632203691922224,0.0632203691922224
0.16088312398830218,0.16088312398830218
0.14460599818895553,0.14460599818895553
0.33179294488144173,0.33179294488144173
0.4782870770755614,0.4782870770755614
0.6247812092696811,0.6247812092696811
0.7061668382664141,0.7061668382664141
0.43759426257719486,0.43759426257719486
0.2911001303830752,0.2911001303830752
-0.0018881340051641016,-0.0018881340051641016
-0.21349076939667025,-0.21349076939667025
-0.37626202739013653,-0.37626202739013653
-0.45764765638686966,-0.45764765638686966
-0.4820633450858896,-0.4820633450858896
-0.441370530587523,-0.441370530587523
-0.37626202739013653,-0.37626202739013653
-0.33556921289176994,-0.33556921289176994
-0.31929208709242335,-0.31929208709242335
-0.1890750806976503,-0.1890750806976503
-0.12396657750026381,-0.12396657750026381
-0.04258094850353067,-0.04258094850353067
-0.10768945170091718,-0.10768945170091718
0.07949749499156904,0.07949749499156904
0.10391318369058898,0.10391318369058898
0.038804680493202466,0.038804680493202466
0.07949749499156904,0.07949749499156904
0.0632203691922224,0.0632203691922224
0.1201903094899356,0.1201903094899356
0.16088312398830218,0.16088312398830218
0.33179294488144173,0.33179294488144173
0.43759426257719486,0.43759426257719486
0.5759498318716412,0.5759498318716412
0.7468596527647807,0.7468596527647807
0.7468596527647807,0.7468596527647807
0.8933537849589004,0.8933537849589004
0.9503237252566136,0.9503237252566136
0.518979891573928,0.518979891573928
0.14460599818895553,0.14460599818895553
-0.21349076939667025,-0.21349076939667025
-0.4006777160891565,-0.4006777160891565
-0.5471718482832761,-0.5471718482832761
-0.5471718482832761,-0.5471718482832761
-0.5878646627816427,-0.5878646627816427
-0.5471718482832761,-0.5471718482832761
-0.7913287352734756,-0.7913287352734756
-0.5471718482832761,-0.5471718482832761
1.1619263606481198,1.1619263606481198
4.580122778510911,4.580122778510911
4.580122778510911,4.580122778510911
2.51292780199389,2.51292780199389
-1.2308111318558346,-1.2308111318558346
-1.6458778397391736,-1.6458778397391736
-1.1494255028591014,-1.1494255028591014
-1.1087326883607347,-1.1087326883607347
-1.1087326883607347,-1.1087326883607347
-1.0680398738623682,-1.0680398738623682
-1.0436241851633483,-1.0436241851633483
-1.0680398738623682,-1.0680398738623682
-1.0029313706649816,-1.0029313706649816
-1.0436241851633483,-1.0436241851633483
-1.0680398738623682,-1.0680398738623682
-0.9785156819659617,-0.9785156819659617
-0.8564372384708621,-0.8564372384708621
-0.8157444239724955,-0.8157444239724955
-0.750635920775109,-0.750635920775109
-0.6448346030793559,-0.6448346030793559
-0.5064790337849095,-0.5064790337849095
-0.37626202739013653,-0.37626202739013653
-0.12396657750026381,-0.12396657750026381
-0.04258094850353067,-0.04258094850353067
0.07949749499156904,0.07949749499156904
0.18529881268732212,0.18529881268732212
0.3724857593798083,0.3724857593798083
0.4782870770755614,0.4782870770755614
0.6247812092696811,0.6247812092696811
0.7061668382664141,0.7061668382664141
0.6003655205706611,0.6003655205706611
0.43759426257719486,0.43759426257719486
0.26668444168405525,0.26668444168405525
0.0632203691922224,0.0632203691922224
-0.04258094850353067,-0.04258094850353067
-0.12396657750026381,-0.12396657750026381
-0.21349076939667025,-0.21349076939667025
-0.17279795489830369,-0.17279795489830369
-0.1890750806976503,-0.1890750806976503
-0.17279795489830369,-0.17279795489830369
-0.37626202739013653,-0.37626202739013653
0.20157593848666874,0.20157593848666874
0.2259916271856887,0.2259916271856887
0.014388991794182526,0.014388991794182526
-0.441370530587523,-0.441370530587523
-0.7099431062767424,-0.7099431062767424
-0.8157444239724955,-0.8157444239724955
-0.6692502917783758,-0.6692502917783758
-0.4820633450858896,-0.4820633450858896
-0.12396657750026381,-0.12396657750026381
0.2911001303830752,0.2911001303830752
0.6410583350690277,0.6410583350690277
0.8119681559621673,0.8119681559621673
0.6654740237680477,0.6654740237680477
0.6247812092696811,0.6247812092696811
0.7468596527647807,0.7468596527647807
0.7875524672631473,0.7875524672631473
0.7631367785641274,0.7631367785641274
0.5352570173732746,0.5352570173732746
0.14460599818895553,0.14460599818895553
-0.0018881340051641016,-0.0018881340051641016
-0.026303822704184042,-0.026303822704184042
0.6003655205706611,0.6003655205706611
0.6410583350690277,0.6410583350690277
0.18529881268732212,0.18529881268732212
0.0632203691922224,0.0632203691922224
0.3724857593798083,0.3724857593798083
0.10391318369058898,0.10391318369058898
0.0632203691922224,0.0632203691922224
2.309463729502057,2.309463729502057
4.580122778510911,4.580122778510911
4.580122778510911,4.580122778510911
2.0571682796121844,2.0571682796121844
-0.9378228674675951,-0.9378228674675951
-1.1087326883607347,-1.1087326883607347
-0.6936659804773958,-0.6936659804773958
-0.7343587949757623,-0.7343587949757623
-0.5634489740826227,-0.5634489740826227
-0.6285574772800092,-0.6285574772800092
-0.6448346030793559,-0.6448346030793559
-0.6692502917783758,-0.6692502917783758
-0.441370530587523,-0.441370530587523
-0.37626202739013653,-0.37626202739013653
-0.27046070969438346,-0.27046070969438346
-0.2297678951960169,-0.2297678951960169
-0.1890750806976503,-0.1890750806976503
-0.33556921289176994,-0.33556921289176994
-0.2297678951960169,-0.2297678951960169
-0.21349076939667025,-0.21349076939667025
-0.026303822704184042,-0.026303822704184042
0.1201903094899356,0.1201903094899356
0.3724857593798083,0.3724857593798083
0.4131785738781749,0.4131785738781749
0.6410583350690277,0.6410583350690277
0.7224439640657608,0.7224439640657608
0.8282452817615139,0.8282452817615139
0.8526609704605338,0.8526609704605338
0.7875524672631473,0.7875524672631473
0.8119681559621673,0.8119681559621673
0.6654740237680477,0.6654740237680477
0.43759426257719486,0.43759426257719486
0.2911001303830752,0.2911001303830752
0.038804680493202466,0.038804680493202466
-0.1890750806976503,-0.1890750806976503
0.07949749499156904,0.07949749499156904
0.2911001303830752,0.2911001303830752
0.30737725618242184,0.30737725618242184
0.18529881268732212,0.18529881268732212
0.20157593848666874,0.20157593848666874
0.1201903094899356,0.1201903094899356
0.20157593848666874,0.20157593848666874
0.14460599818895553,0.14460599818895553
0.18529881268732212,0.18529881268732212
0.18529881268732212,0.18529881268732212
0.1201903094899356,0.1201903094899356
0.014388991794182526,0.014388991794182526
-0.026303822704184042,-0.026303822704184042
-0.06699663720255061,-0.06699663720255061
0.014388991794182526,0.014388991794182526
-0.04258094850353067,-0.04258094850353067
0.07949749499156904,0.07949749499156904
0.18529881268732212,0.18529881268732212
0.2911001303830752,0.2911001303830752
0.49456420287490804,0.49456420287490804
0.7468596527647807,0.7468596527647807
0.7061668382664141,0.7061668382664141
0.8282452817615139,0.8282452817615139
0.6410583350690277,0.6410583350690277
0.2911001303830752,0.2911001303830752
-0.04258094850353067,-0.04258094850353067
-0.31929208709242335,-0.31929208709242335
-0.31929208709242335,-0.31929208709242335
-0.3599849015907899,-0.3599849015907899
-0.31929208709242335,-0.31929208709242335
-0.2948763983934034,-0.2948763983934034
-0.441370530587523,-0.441370530587523
-0.6448346030793559,-0.6448346030793559
0.30737725618242184,0.30737725618242184
3.139597145268735,3.139597145268735
4.580122778510911,4.580122778510911
4.571984215611238,4.571984215611238
0.5596727060722946,0.5596727060722946
-1.2552268205548545,-1.2552268205548545
-0.9785156819659617,-0.9785156819659617
-0.8157444239724955,-0.8157444239724955
-0.7913287352734756,-0.7913287352734756
-0.7750516094741289,-0.7750516094741289
-0.8564372384708621,-0.8564372384708621
-0.7750516094741289,-0.7750516094741289
-0.880852927169882,-0.880852927169882
-0.6936659804773958,-0.6936659804773958
-0.6448346030793559,-0.6448346030793559
-0.6692502917783758,-0.6692502917783758
-0.6041417885809893,-0.6041417885809893
-0.4820633450858896,-0.4820633450858896
-0.4820633450858896,-0.4820633450858896
-0.2948763983934034,-0.2948763983934034
-0.31929208709242335,-0.31929208709242335
-0.10768945170091718,-0.10768945170091718
0.038804680493202466,0.038804680493202466
0.2504073158847086,0.2504073158847086
0.30737725618242184,0.30737725618242184
0.5352570173732746,0.5352570173732746
0.49456420287490804,0.49456420287490804
0.6817511495673942,0.6817511495673942
0.6654740237680477,0.6654740237680477
0.8689380962598805,0.8689380962598805
0.7875524672631473,0.7875524672631473
0.7061668382664141,0.7061668382664141
0.49456420287490804,0.49456420287490804
0.38876288517915497,0.38876288517915497
0.2911001303830752,0.2911001303830752
0.20157593848666874,0.20157593848666874
0.10391318369058898,0.10391318369058898
-0.026303822704184042,-0.026303822704184042
0.1201903094899356,0.1201903094899356
0.20157593848666874,0.20157593848666874
0.2259916271856887,0.2259916271856887
0.1201903094899356,0.1201903094899356
0.1201903094899356,0.1201903094899356
0.1201903094899356,0.1201903094899356
0.14460599818895553,0.14460599818895553
0.07949749499156904,0.07949749499156904
0.1201903094899356,0.1201903094899356
0.20157593848666874,0.20157593848666874
0.18529881268732212,0.18529881268732212
0.0632203691922224,0.0632203691922224
0.014388991794182526,0.014388991794182526
-0.026303822704184042,-0.026303822704184042
0.2259916271856887,0.2259916271856887
0.26668444168405525,0.26668444168405525
0.3724857593798083,0.3724857593798083
0.518979891573928,0.518979891573928
0.6247812092696811,0.6247812092696811
0.7061668382664141,0.7061668382664141
0.7224439640657608,0.7224439640657608
0.43759426257719486,0.43759426257719486
0.1201903094899356,0.1201903094899356
-0.2297678951960169,-0.2297678951960169
-0.441370530587523,-0.441370530587523
-0.5064790337849095,-0.5064790337849095
-0.5064790337849095,-0.5064790337849095
-0.5471718482832761,-0.5471718482832761
-0.5064790337849095,-0.5064790337849095
-0.8157444239724955,-0.8157444239724955
-0.8564372384708621,-0.8564372384708621
0.8119681559621673,0.8119681559621673
4.034839064232799,4.034839064232799
4.580122778510911,4.580122778510911
2.7896389405827824,2.7896389405827824
-0.7913287352734756,-0.7913287352734756
-1.4179980785483206,-1.4179980785483206
-1.0680398738623682,-1.0680398738623682
-1.1087326883607347,-1.1087326883607347
-1.0192084964643282,-1.0192084964643282
-1.0436241851633483,-1.0436241851633483
-0.9622385561666151,-0.9622385561666151
-0.9785156819659617,-0.9785156819659617
-0.8320215497718421,-0.8320215497718421
-0.7750516094741289,-0.7750516094741289
-0.6936659804773958,-0.6936659804773958
-0.5634489740826227,-0.5634489740826227
-0.45764765638686966,-0.45764765638686966
-0.4169548418885031,-0.4169548418885031
-0.31929208709242335,-0.31929208709242335
-0.2541835838950368,-0.2541835838950368
-0.27046070969438346,-0.27046070969438346
0.014388991794182526,0.014388991794182526
0.16088312398830218,0.16088312398830218
0.3724857593798083,0.3724857593798083
0.3480700706807884,0.3480700706807884
0.49456420287490804,0.49456420287490804
0.5759498318716412,0.5759498318716412
0.7224439640657608,0.7224439640657608
0.7468596527647807,0.7468596527647807
0.8119681559621673,0.8119681559621673
0.6247812092696811,0.6247812092696811
0.518979891573928,0.518979891573928
0.3724857593798083,0.3724857593798083
0.2259916271856887,0.2259916271856887
-0.0018881340051641016,-0.0018881340051641016
0.038804680493202466,0.038804680493202466
-0.04258094850353067,-0.04258094850353067
-0.08327376300189723,-0.08327376300189723
-0.06699663720255061,-0.06699663720255061
-0.08327376300189723,-0.08327376300189723
0.0632203691922224,0.0632203691922224
-0.04258094850353067,-0.04258094850353067
-0.026303822704184042,-0.026303822704184042
-0.10768945170091718,-0.10768945170091718
-0.17279795489830369,-0.17279795489830369
-0.2297678951960169,-0.2297678951960169
-0.14838226619928374,-0.14838226619928374
-0.21349076939667025,-0.21349076939667025
-0.12396657750026381,-0.12396657750026381
-0.27046070969438346,-0.27046070969438346
-0.2297678951960169,-0.2297678951960169
-0.17279795489830369,-0.17279795489830369
0.014388991794182526,0.014388991794182526
0.014388991794182526,0.014388991794182526
0.2504073158847086,0.2504073158847086
0.43759426257719486,0.43759426257719486
0.6247812092696811,0.6247812092696811
0.7631367785641274,0.7631367785641274
0.7875524672631473,0.7875524672631473
0.43759426257719486,0.43759426257719486
0.16088312398830218,0.16088312398830218
-0.12396657750026381,-0.12396657750026381
-0.10768945170091718,-0.10768945170091718
-0.2541835838950368,-0.2541835838950368
-0.1890750806976503,-0.1890750806976503
-0.2297678951960169,-0.2297678951960169
-0.4169548418885031,-0.4169548418885031
-0.6285574772800092,-0.6285574772800092
0.14460599818895553,0.14460599818895553
2.8466088808804955,2.8466088808804955
4.580122778510911,4.580122778510911
4.580122778510911,4.580122778510911
0.7061668382664141,0.7061668382664141
-1.3773052640499541,-1.3773052640499541
-1.0436241851633483,-1.0436241851633483
-0.8971300529692287,-0.8971300529692287
-1.1087326883607347,-1.1087326883607347
-0.880852927169882,-0.880852927169882
-0.8971300529692287,-0.8971300529692287
-0.8157444239724955,-0.8157444239724955
-0.7343587949757623,-0.7343587949757623
-0.4820633450858896,-0.4820633450858896
-0.7343587949757623,-0.7343587949757623
-0.7750516094741289,-0.7750516094741289
-0.6692502917783758,-0.6692502917783758
-0.45764765638686966,-0.45764765638686966
-0.37626202739013653,-0.37626202739013653
-0.4169548418885031,-0.4169548418885031
-0.06699663720255061,-0.06699663720255061
0.14460599818895553,0.14460599818895553
0.18529881268732212,0.18529881268732212
0.49456420287490804,0.49456420287490804
0.6654740237680477,0.6654740237680477
0.7061668382664141,0.7061668382664141
0.6817511495673942,0.6817511495673942
0.6003655205706611,0.6003655205706611
0.8119681559621673,0.8119681559621673
0.9503237252566136,0.9503237252566136
0.8119681559621673,0.8119681559621673
0.6003655205706611,0.6003655205706611
0.3480700706807884,0.3480700706807884
0.18529881268732212,0.18529881268732212
0.07949749499156904,0.07949749499156904
-0.026303822704184042,-0.026303822704184042
0.0632203691922224,0.0632203691922224
-0.1890750806976503,-0.1890750806976503
-0.12396657750026381,-0.12396657750026381
-0.2541835838950368,-0.2541835838950368
-0.1890750806976503,-0.1890750806976503
-0.2948763983934034,-0.2948763983934034
-0.2297678951960169,-0.2297678951960169
-0.33556921289176994,-0.33556921289176994
-0.27046070969438346,-0.27046070969438346
-0.2297678951960169,-0.2297678951960169
-0.21349076939667025,-0.21349076939667025
-0.27046070969438346,-0.27046070969438346
-0.17279795489830369,-0.17279795489830369
-0.14838226619928374,-0.14838226619928374
-0.21349076939667025,-0.21349076939667025
-0.12396657750026381,-0.12396657750026381
-0.0018881340051641016,-0.0018881340051641016
0.07949749499156904,0.07949749499156904
0.2259916271856887,0.2259916271856887
0.4131785738781749,0.4131785738781749
0.5352570173732746,0.5352570173732746
0.6247812092696811,0.6247812092696811
0.4131785738781749,0.4131785738781749
0.14460599818895553,0.14460599818895553
-0.2297678951960169,-0.2297678951960169
-0.5064790337849095,-0.5064790337849095
-0.6692502917783758,-0.6692502917783758
-0.6041417885809893,-0.6041417885809893
-0.6692502917783758,-0.6692502917783758
-0.6285574772800092,-0.6285574772800092
-0.750635920775109,-0.750635920775109
-0.9378228674675951,-0.9378228674675951
-0.6448346030793559,-0.6448346030793559
1.6014087572304787,1.6014087572304787
4.580122778510911,4.580122778510911
4.580122778510911,4.580122778510911
1.4142218105379925,1.4142218105379925
-1.7760948461339465,-1.7760948461339465
-1.9388661041274127,-1.9388661041274127
-1.3121967608525675,-1.3121967608525675
-1.295919635053221,-1.295919635053221
-1.3528895753509342,-1.3528895753509342
-1.295919635053221,-1.295919635053221
-1.2063954431568145,-1.2063954431568145
-1.1494255028591014,-1.1494255028591014
-1.1087326883607347,-1.1087326883607347
-1.0436241851633483,-1.0436241851633483
-0.9622385561666151,-0.9622385561666151
-0.880852927169882,-0.880852927169882
-0.9215457416682485,-0.9215457416682485
-0.8157444239724955,-0.8157444239724955
-0.8564372384708621,-0.8564372384708621
-0.6285574772800092,-0.6285574772800092
-0.6041417885809893,-0.6041417885809893
-0.4820633450858896,-0.4820633450858896
-0.4006777160891565,-0.4006777160891565
-0.1890750806976503,-0.1890750806976503
-0.10768945170091718,-0.10768945170091718
0.07949749499156904,0.07949749499156904
0.1201903094899356,0.1201903094899356
0.26668444168405525,0.26668444168405525
0.30737725618242184,0.30737725618242184
0.3724857593798083,0.3724857593798083
0.26668444168405525,0.26668444168405525
0.1201903094899356,0.1201903094899356
-0.0018881340051641016,-0.0018881340051641016
-0.12396657750026381,-0.12396657750026381
-0.17279795489830369,-0.17279795489830369
-0.1890750806976503,-0.1890750806976503
-0.10768945170091718,-0.10768945170091718
-0.1890750806976503,-0.1890750806976503
-0.12396657750026381,-0.12396657750026381
-0.17279795489830369,-0.17279795489830369
-0.08327376300189723,-0.08327376300189723
-0.14838226619928374,-0.14838226619928374
-0.17279795489830369,-0.17279795489830369
-0.21349076939667025,-0.21349076939667025
-0.17279795489830369,-0.17279795489830369
-0.27046070969438346,-0.27046070969438346
-0.1890750806976503,-0.1890750806976503
-0.2948763983934034,-0.2948763983934034
-0.2541835838950368,-0.2541835838950368
-0.2541835838950368,-0.2541835838950368
-0.10768945170091718,-0.10768945170091718
-0.08327376300189723,-0.08327376300189723
0.1201903094899356,0.1201903094899356
0.20157593848666874,0.20157593848666874
0.43759426257719486,0.43759426257719486
0.49456420287490804,0.49456420287490804
0.6654740237680477,0.6654740237680477
0.7468596527647807,0.7468596527647807
0.6410583350690277,0.6410583350690277
0.2911001303830752,0.2911001303830752
-0.026303822704184042,-0.026303822704184042
-0.2541835838950368,-0.2541835838950368
-0.31929208709242335,-0.31929208709242335
-0.2948763983934034,-0.2948763983934034
-0.4169548418885031,-0.4169548418885031
-0.4006777160891565,-0.4006777160891565
-0.6448346030793559,-0.6448346030793559
-0.7099431062767424,-0.7099431062767424
0.3480700706807884,0.3480700706807884
3.579079541851094,3.579079541851094
4.580122778510911,4.580122778510911
4.034839064232799,4.034839064232799
-0.5064790337849095,-0.5064790337849095
-1.6296007139398268,-1.6296007139398268
-1.3773052640499541,-1.3773052640499541
-1.2063954431568145,-1.2063954431568145
-1.271503946354201,-1.271503946354201
-1.2308111318558346,-1.2308111318558346
-1.2552268205548545,-1.2552268205548545
-1.1901183173574679,-1.1901183173574679
-1.2063954431568145,-1.2063954431568145
-1.0680398738623682,-1.0680398738623682
-1.0192084964643282,-1.0192084964643282
-0.9378228674675951,-0.9378228674675951
-0.880852927169882,-0.880852927169882
-0.9622385561666151,-0.9622385561666151
-0.7750516094741289,-0.7750516094741289
-0.6285574772800092,-0.6285574772800092
-0.5227561595842561,-0.5227561595842561
-0.4169548418885031,-0.4169548418885031
-0.21349076939667025,-0.21349076939667025
-0.04258094850353067,-0.04258094850353067
0.1201903094899356,0.1201903094899356
0.2259916271856887,0.2259916271856887
0.38876288517915497,0.38876288517915497
0.518979891573928,0.518979891573928
0.6247812092696811,0.6247812092696811
0.5596727060722946,0.5596727060722946
0.5352570173732746,0.5352570173732746
0.3480700706807884,0.3480700706807884
0.26668444168405525,0.26668444168405525
0.038804680493202466,0.038804680493202466
-0.0018881340051641016,-0.0018881340051641016
-0.12396657750026381,-0.12396657750026381
-0.10768945170091718,-0.10768945170091718
-0.27046070969438346,-0.27046070969438346
-0.27046070969438346,-0.27046070969438346
-0.27046070969438346,-0.27046070969438346
-0.1890750806976503,-0.1890750806976503
-0.2541835838950368,-0.2541835838950368
-0.2297678951960169,-0.2297678951960169
-0.2948763983934034,-0.2948763983934034
-0.31929208709242335,-0.31929208709242335
-0.2948763983934034,-0.2948763983934034
-0.3599849015907899,-0.3599849015907899
-0.2948763983934034,-0.2948763983934034
-0.37626202739013653,-0.37626202739013653
-0.31929208709242335,-0.31929208709242335
-0.37626202739013653,-0.37626202739013653
-0.2541835838950368,-0.2541835838950368
-0.17279795489830369,-0.17279795489830369
-0.04258094850353067,-0.04258094850353067
0.0632203691922224,0.0632203691922224
0.3480700706807884,0.3480700706807884
0.4131785738781749,0.4131785738781749
0.5759498318716412,0.5759498318716412
0.4782870770755614,0.4782870770755614
0.2504073158847086,0.2504073158847086
-0.17279795489830369,-0.17279795489830369
-0.37626202739013653,-0.37626202739013653
-0.5878646627816427,-0.5878646627816427
-0.5471718482832761,-0.5471718482832761
-0.6448346030793559,-0.6448346030793559
-0.5878646627816427,-0.5878646627816427
-0.7099431062767424,-0.7099431062767424
-0.8971300529692287,-0.8971300529692287
-0.7099431062767424,-0.7099431062767424
1.1456492348487732,1.1456492348487732
4.474321460815158,4.474321460815158
4.580122778510911,4.580122778510911
2.0571682796121844,2.0571682796121844
-1.3528895753509342,-1.3528895753509342
-1.7272634687359065,-1.7272634687359065
-1.2552268205548545,-1.2552268205548545
-1.2063954431568145,-1.2063954431568145
-1.1901183173574679,-1.1901183173574679
-1.2308111318558346,-1.2308111318558346
-1.2063954431568145,-1.2063954431568145
-1.1494255028591014,-1.1494255028591014
-1.2308111318558346,-1.2308111318558346
-1.0680398738623682,-1.0680398738623682
-0.9622385561666151,-0.9622385561666151
-0.8564372384708621,-0.8564372384708621
-0.880852927169882,-0.880852927169882
-0.750635920775109,-0.750635920775109
-0.6936659804773958,-0.6936659804773958
-0.5064790337849095,-0.5064790337849095
-0.4820633450858896,-0.4820633450858896
-0.2948763983934034,-0.2948763983934034
-0.17279795489830369,-0.17279795489830369
-0.0018881340051641016,-0.0018881340051641016
0.1201903094899356,0.1201903094899356
0.2259916271856887,0.2259916271856887
0.30737725618242184,0.30737725618242184
0.45387138837654145,0.45387138837654145
0.4782870770755614,0.4782870770755614
0.4131785738781749,0.4131785738781749
0.45387138837654145,0.45387138837654145
0.2504073158847086,0.2504073158847086
0.10391318369058898,0.10391318369058898
-0.026303822704184042,-0.026303822704184042
-0.08327376300189723,-0.08327376300189723
-0.1890750806976503,-0.1890750806976503
-0.21349076939667025,-0.21349076939667025
-0.2297678951960169,-0.2297678951960169
-0.1890750806976503,-0.1890750806976503
-0.21349076939667025,-0.21349076939667025
-0.12396657750026381,-0.12396657750026381
-0.17279795489830369,-0.17279795489830369
-0.12396657750026381,-0.12396657750026381
-0.2297678951960169,-0.2297678951960169
-0.2541835838950368,-0.2541835838950368
-0.17279795489830369,-0.17279795489830369
-0.2297678951960169,-0.2297678951960169
-0.2948763983934034,-0.2948763983934034
-0.2541835838950368,-0.2541835838950368
-0.31929208709242335,-0.31929208709242335
-0.17279795489830369,-0.17279795489830369
-0.12396657750026381,-0.12396657750026381
-0.026303822704184042,-0.026303822704184042
0.0632203691922224,0.0632203691922224
0.2504073158847086,0.2504073158847086
0.4782870770755614,0.4782870770755614
0.45387138837654145,0.45387138837654145
0.5759498318716412,0.5759498318716412
0.45387138837654145,0.45387138837654145
0.0632203691922224,0.0632203691922224
-0.2948763983934034,-0.2948763983934034
-0.441370530587523,-0.441370530587523
-0.5634489740826227,-0.5634489740826227
-0.5634489740826227,-0.5634489740826227
-0.6448346030793559,-0.6448346030793559
-0.5634489740826227,-0.5634489740826227
-0.7750516094741289,-0.7750516094741289
-0.880852927169882,-0.880852927169882
-0.0018881340051641016,-0.0018881340051641016
2.724530437385396,2.724530437385396
4.580122778510911,4.580122778510911
4.2627188254236525,4.2627188254236525
0.14460599818895553,0.14460599818895553
-1.6051850252408069,-1.6051850252408069
-1.295919635053221,-1.295919635053221
-1.0843169996617148,-1.0843169996617148
-1.0680398738623682,-1.0680398738623682
-1.1901183173574679,-1.1901183173574679
-1.0680398738623682,-1.0680398738623682
-1.1250098141600813,-1.1250098141600813
-1.0029313706649816,-1.0029313706649816
-0.9622385561666151,-0.9622385561666151
-0.880852927169882,-0.880852927169882
-0.9378228674675951,-0.9378228674675951
-0.7913287352734756,-0.7913287352734756
-0.750635920775109,-0.750635920775109
-0.5878646627816427,-0.5878646627816427
-0.5227561595842561,-0.5227561595842561
-0.4006777160891565,-0.4006777160891565
-0.2948763983934034,-0.2948763983934034
-0.06699663720255061,-0.06699663720255061
0.038804680493202466,0.038804680493202466
0.2259916271856887,0.2259916271856887
0.26668444168405525,0.26668444168405525
0.3724857593798083,0.3724857593798083
0.49456420287490804,0.49456420287490804
0.5596727060722946,0.5596727060722946
0.6003655205706611,0.6003655205706611
0.6003655205706611,0.6003655205706611
0.43759426257719486,0.43759426257719486
0.2911001303830752,0.2911001303830752
0.16088312398830218,0.16088312398830218
0.014388991794182526,0.014388991794182526
-0.10768945170091718,-0.10768945170091718
-0.14838226619928374,-0.14838226619928374
-0.12396657750026381,-0.12396657750026381
-0.1890750806976503,-0.1890750806976503
-0.12396657750026381,-0.12396657750026381
-0.27046070969438346,-0.27046070969438346
-0.1890750806976503,-0.1890750806976503
-0.21349076939667025,-0.21349076939667025
-0.12396657750026381,-0.12396657750026381
-0.2297678951960169,-0.2297678951960169
-0.10768945170091718,-0.10768945170091718
-0.2297678951960169,-0.2297678951960169
-0.1890750806976503,-0.1890750806976503
-0.2541835838950368,-0.2541835838950368
-0.1890750806976503,-0.1890750806976503
-0.21349076939667025,-0.21349076939667025
-0.04258094850353067,-0.04258094850353067
-0.0018881340051641016,-0.0018881340051641016
0.16088312398830218,0.16088312398830218
0.26668444168405525,0.26668444168405525
0.518979891573928,0.518979891573928
0.49456420287490804,0.49456420287490804
0.7061668382664141,0.7061668382664141
0.7468596527647807,0.7468596527647807
0.3480700706807884,0.3480700706807884
0.014388991794182526,0.014388991794182526
-0.2541835838950368,-0.2541835838950368
-0.3599849015907899,-0.3599849015907899
-0.441370530587523,-0.441370530587523
-0.4006777160891565,-0.4006777160891565
-0.4820633450858896,-0.4820633450858896
-0.4169548418885031,-0.4169548418885031
-0.6936659804773958,-0.6936659804773958
-0.441370530587523,-0.441370530587523
1.2840048041432195,1.2840048041432195
4.580122778510911,4.580122778510911
4.580122778510911,4.580122778510911
2.3257408553014036,2.3257408553014036
-1.1087326883607347,-1.1087326883607347
-1.401720952748974,-1.401720952748974
-1.0436241851633483,-1.0436241851633483
-0.880852927169882,-0.880852927169882
-0.8320215497718421,-0.8320215497718421
-0.9215457416682485,-0.9215457416682485
-0.9378228674675951,-0.9378228674675951
-0.8971300529692287,-0.8971300529692287
-0.7913287352734756,-0.7913287352734756
-0.750635920775109,-0.750635920775109
-0.7343587949757623,-0.7343587949757623
-0.6692502917783758,-0.6692502917783758
-0.6041417885809893,-0.6041417885809893
-0.5227561595842561,-0.5227561595842561
-0.45764765638686966,-0.45764765638686966
-0.33556921289176994,-0.33556921289176994
-0.21349076939667025,-0.21349076939667025
-0.12396657750026381,-0.12396657750026381
0.014388991794182526,0.014388991794182526
0.20157593848666874,0.20157593848666874
0.3480700706807884,0.3480700706807884
0.3724857593798083,0.3724857593798083
0.4782870770755614,0.4782870770755614
0.45387138837654145,0.45387138837654145
0.5596727060722946,0.5596727060722946
0.6003655205706611,0.6003655205706611
0.4782870770755614,0.4782870770755614
0.26668444168405525,0.26668444168405525
0.20157593848666874,0.20157593848666874
0.07949749499156904,0.07949749499156904
0.038804680493202466,0.038804680493202466
-0.06699663720255061,-0.06699663720255061
-0.08327376300189723,-0.08327376300189723
-0.026303822704184042,-0.026303822704184042
-0.1890750806976503,-0.1890750806976503
-0.10768945170091718,-0.10768945170091718
-0.08327376300189723,-0.08327376300189723
-0.14838226619928374,-0.14838226619928374
-0.10768945170091718,-0.10768945170091718
-0.10768945170091718,-0.10768945170091718
-0.08327376300189723,-0.08327376300189723
-0.06699663720255061,-0.06699663720255061
-0.14838226619928374,-0.14838226619928374
-0.08327376300189723,-0.08327376300189723
-0.1890750806976503,-0.1890750806976503
-0.12396657750026381,-0.12396657750026381
-0.14838226619928374,-0.14838226619928374
0.07949749499156904,0.07949749499156904
0.16088312398830218,0.16088312398830218
0.26668444168405525,0.26668444168405525
0.4782870770755614,0.4782870770755614
0.6247812092696811,0.6247812092696811
0.7061668382664141,0.7061668382664141
0.8526609704605338,0.8526609704605338
0.5596727060722946,0.5596727060722946
0.2504073158847086,0.2504073158847086
-0.12396657750026381,-0.12396657750026381
-0.2948763983934034,-0.2948763983934034
-0.4006777160891565,-0.4006777160891565
-0.441370530587523,-0.441370530587523
-0.45764765638686966,-0.45764765638686966
-0.4820633450858896,-0.4820633450858896
-0.441370530587523,-0.441370530587523
-0.750635920775109,-0.750635920775109
0.3480700706807884,0.3480700706807884
3.351199780660241,3.351199780660241
4.580122778510911,4.580122778510911
4.075531878731166,4.075531878731166
-0.10768945170091718,-0.10768945170091718
-1.3773052640499541,-1.3773052640499541
-1.0680398738623682,-1.0680398738623682
-0.9622385561666151,-0.9622385561666151
-0.9378228674675951,-0.9378228674675951
-0.9785156819659617,-0.9785156819659617
-0.8564372384708621,-0.8564372384708621
-0.9215457416682485,-0.9215457416682485
-0.8157444239724955,-0.8157444239724955
-0.7750516094741289,-0.7750516094741289
-0.6041417885809893,-0.6041417885809893
-0.6692502917783758,-0.6692502917783758
-0.6041417885809893,-0.6041417885809893
-0.5634489740826227,-0.5634489740826227
-0.3599849015907899,-0.3599849015907899
-0.4006777160891565,-0.4006777160891565
-0.2541835838950368,-0.2541835838950368
-0.14838226619928374,-0.14838226619928374
0.038804680493202466,0.038804680493202466
0.1201903094899356,0.1201903094899356
0.33179294488144173,0.33179294488144173
0.4131785738781749,0.4131785738781749
0.49456420287490804,0.49456420287490804
0.5759498318716412,0.5759498318716412
0.6817511495673942,0.6817511495673942
0.7061668382664141,0.7061668382664141
0.5759498318716412,0.5759498318716412
0.6003655205706611,0.6003655205706611
0.30737725618242184,0.30737725618242184
0.18529881268732212,0.18529881268732212
0.1201903094899356,0.1201903094899356
0.038804680493202466,0.038804680493202466
-0.06699663720255061,-0.06699663720255061
-0.0018881340051641016,-0.0018881340051641016
-0.04258094850353067,-0.04258094850353067
0.014388991794182526,0.014388991794182526
-0.04258094850353067,-0.04258094850353067
0.014388991794182526,0.014388991794182526
-0.0018881340051641016,-0.0018881340051641016
0.10391318369058898,0.10391318369058898
0.1201903094899356,0.1201903094899356
0.16088312398830218,0.16088312398830218
0.07949749499156904,0.07949749499156904
0.1201903094899356,0.1201903094899356
0.038804680493202466,0.038804680493202466
-0.0018881340051641016,-0.0018881340051641016
-0.08327376300189723,-0.08327376300189723
0.07949749499156904,0.07949749499156904
0.16088312398830218,0.16088312398830218
0.2504073158847086,0.2504073158847086
0.33179294488144173,0.33179294488144173
0.43759426257719486,0.43759426257719486
0.49456420287490804,0.49456420287490804
0.4782870770755614,0.4782870770755614
0.7631367785641274,0.7631367785641274
0.4131785738781749,0.4131785738781749
-0.04258094850353067,-0.04258094850353067
-0.4006777160891565,-0.4006777160891565
-0.441370530587523,-0.441370530587523
-0.5227561595842561,-0.5227561595842561
-0.5634489740826227,-0.5634489740826227
-0.4820633450858896,-0.4820633450858896
-0.4169548418885031,-0.4169548418885031
-0.7099431062767424,-0.7099431062767424
0.0632203691922224,0.0632203691922224
2.4722349874955234,2.4722349874955234
4.580122778510911,4.580122778510911
4.580122778510911,4.580122778510911
1.3328361815412593,1.3328361815412593
-1.2063954431568145,-1.2063954431568145
-0.880852927169882,-0.880852927169882
-0.7099431062767424,-0.7099431062767424
-0.750635920775109,-0.750635920775109
-0.6936659804773958,-0.6936659804773958
-0.7750516094741289,-0.7750516094741289
-0.7343587949757623,-0.7343587949757623
-0.7750516094741289,-0.7750516094741289
-0.6692502917783758,-0.6692502917783758
-0.6936659804773958,-0.6936659804773958
-0.6041417885809893,-0.6041417885809893
-0.5634489740826227,-0.5634489740826227
-0.5064790337849095,-0.5064790337849095
-0.5227561595842561,-0.5227561595842561
-0.31929208709242335,-0.31929208709242335
-0.1890750806976503,-0.1890750806976503
-0.17279795489830369,-0.17279795489830369
-0.10768945170091718,-0.10768945170091718
0.10391318369058898,0.10391318369058898
0.18529881268732212,0.18529881268732212
0.26668444168405525,0.26668444168405525
0.20157593848666874,0.20157593848666874
0.18529881268732212,0.18529881268732212
0.518979891573928,0.518979891573928
0.7631367785641274,0.7631367785641274
0.6654740237680477,0.6654740237680477
0.6003655205706611,0.6003655205706611
0.45387138837654145,0.45387138837654145
0.30737725618242184,0.30737725618242184
0.07949749499156904,0.07949749499156904
0.014388991794182526,0.014388991794182526
0.10391318369058898,0.10391318369058898
-0.10768945170091718,-0.10768945170091718
-0.0018881340051641016,-0.0018881340051641016
-0.2297678951960169,-0.2297678951960169
-0.14838226619928374,-0.14838226619928374
-0.21349076939667025,-0.21349076939667025
-0.1890750806976503,-0.1890750806976503
-0.21349076939667025,-0.21349076939667025
-0.1890750806976503,-0.1890750806976503
-0.27046070969438346,-0.27046070969438346
-0.21349076939667025,-0.21349076939667025
-0.17279795489830369,-0.17279795489830369
-0.2297678951960169,-0.2297678951960169
-0.4820633450858896,-0.4820633450858896
-0.31929208709242335,-0.31929208709242335
-0.33556921289176994,-0.33556921289176994
-0.10768945170091718,-0.10768945170091718
0.038804680493202466,0.038804680493202466
0.18529881268732212,0.18529881268732212
0.2259916271856887,0.2259916271856887
0.518979891573928,0.518979891573928
0.7224439640657608,0.7224439640657608
0.7631367785641274,0.7631367785641274
0.5352570173732746,0.5352570173732746
0.2504073158847086,0.2504073158847086
-0.10768945170091718,-0.10768945170091718
-0.27046070969438346,-0.27046070969438346
-0.31929208709242335,-0.31929208709242335
-0.2948763983934034,-0.2948763983934034
-0.33556921289176994,-0.33556921289176994
-0.4169548418885031,-0.4169548418885031
-0.6692502917783758,-0.6692502917783758
-0.5064790337849095,-0.5064790337849095
1.1212335461497531,1.1212335461497531
4.580122778510911,4.580122778510911
4.580122778510911,4.580122778510911
3.286091277462855,3.286091277462855
-0.8971300529692287,-0.8971300529692287
-1.7272634687359065,-1.7272634687359065
-1.1250098141600813,-1.1250098141600813
-1.0436241851633483,-1.0436241851633483
-1.0680398738623682,-1.0680398738623682
-1.1250098141600813,-1.1250098141600813
-1.0680398738623682,-1.0680398738623682
-1.0436241851633483,-1.0436241851633483
-0.880852927169882,-0.880852927169882
-0.9622385561666151,-0.9622385561666151
-0.8320215497718421,-0.8320215497718421
-0.750635920775109,-0.750635920775109
-0.6448346030793559,-0.6448346030793559
-0.5634489740826227,-0.5634489740826227
-0.6448346030793559,-0.6448346030793559
-0.4820633450858896,-0.4820633450858896
-0.4006777160891565,-0.4006777160891565
-0.27046070969438346,-0.27046070969438346
-0.14838226619928374,-0.14838226619928374
0.014388991794182526,0.014388991794182526
0.1201903094899356,0.1201903094899356
0.2259916271856887,0.2259916271856887
0.26668444168405525,0.26668444168405525
0.518979891573928,0.518979891573928
0.6003655205706611,0.6003655205706611
0.6410583350690277,0.6410583350690277
0.49456420287490804,0.49456420287490804
0.4782870770755614,0.4782870770755614
0.2259916271856887,0.2259916271856887
0.07949749499156904,0.07949749499156904
-0.08327376300189723,-0.08327376300189723
-0.08327376300189723,-0.08327376300189723
-0.1890750806976503,-0.1890750806976503
-0.12396657750026381,-0.12396657750026381
-0.17279795489830369,-0.17279795489830369
-0.10768945170091718,-0.10768945170091718
-0.06699663720255061,-0.06699663720255061
-0.1890750806976503,-0.1890750806976503
-0.12396657750026381,-0.12396657750026381
-0.27046070969438346,-0.27046070969438346
-0.21349076939667025,-0.21349076939667025
-0.27046070969438346,-0.27046070969438346
-0.2948763983934034,-0.2948763983934034
-0.31929208709242335,-0.31929208709242335
-0.2948763983934034,-0.2948763983934034
-0.37626202739013653,-0.37626202739013653
-0.27046070969438346,-0.27046070969438346
-0.21349076939667025,-0.21349076939667025
-0.04258094850353067,-0.04258094850353067
-0.0018881340051641016,-0.0018881340051641016
0.2504073158847086,0.2504073158847086
0.4131785738781749,0.4131785738781749
0.518979891573928,0.518979891573928
0.6003655205706611,0.6003655205706611
0.49456420287490804,0.49456420287490804
0.20157593848666874,0.20157593848666874
-0.026303822704184042,-0.026303822704184042
-0.27046070969438346,-0.27046070969438346
-0.4006777160891565,-0.4006777160891565
-0.4820633450858896,-0.4820633450858896
-0.5634489740826227,-0.5634489740826227
-0.4820633450858896,-0.4820633450858896
-0.5634489740826227,-0.5634489740826227
-0.750635920775109,-0.750635920775109
-0.14838226619928374,-0.14838226619928374
2.4315421729971565,2.4315421729971565
4.580122778510911,4.580122778510911
4.580122778510911,4.580122778510911
0.934046599457267,0.934046599457267
-1.4831065817457072,-1.4831065817457072
-1.2063954431568145,-1.2063954431568145
-0.9622385561666151,-0.9622385561666151
-1.0192084964643282,-1.0192084964643282
-0.8564372384708621,-0.8564372384708621
-0.9622385561666151,-0.9622385561666151
-0.880852927169882,-0.880852927169882
-0.9622385561666151,-0.9622385561666151
-0.8564372384708621,-0.8564372384708621
-0.9215457416682485,-0.9215457416682485
-0.8157444239724955,-0.8157444239724955
-0.7913287352734756,-0.7913287352734756
-0.6692502917783758,-0.6692502917783758
-0.6041417885809893,-0.6041417885809893
-0.45764765638686966,-0.45764765638686966
-0.4169548418885031,-0.4169548418885031
-0.2541835838950368,-0.2541835838950368
-0.08327376300189723,-0.08327376300189723
0.014388991794182526,0.014388991794182526
0.1201903094899356,0.1201903094899356
0.2504073158847086,0.2504073158847086
0.30737725618242184,0.30737725618242184
0.3724857593798083,0.3724857593798083
0.5596727060722946,0.5596727060722946
0.5759498318716412,0.5759498318716412
0.6247812092696811,0.6247812092696811
0.43759426257719486,0.43759426257719486
0.38876288517915497,0.38876288517915497
0.16088312398830218,0.16088312398830218
0.0632203691922224,0.0632203691922224
-0.04258094850353067,-0.04258094850353067
-0.026303822704184042,-0.026303822704184042
-0.21349076939667025,-0.21349076939667025
-0.10768945170091718,-0.10768945170091718
-0.17279795489830369,-0.17279795489830369
-0.14838226619928374,-0.14838226619928374
-0.1890750806976503,-0.1890750806976503
-0.12396657750026381,-0.12396657750026381
-0.21349076939667025,-0.21349076939667025
-0.14838226619928374,-0.14838226619928374
-0.12396657750026381,-0.12396657750026381
-0.1890750806976503,-0.1890750806976503
-0.1890750806976503,-0.1890750806976503
-0.1890750806976503,-0.1890750806976503
-0.2948763983934034,-0.2948763983934034
-0.21349076939667025,-0.21349076939667025
-0.17279795489830369,-0.17279795489830369
-0.04258094850353067,-0.04258094850353067
0.1201903094899356,0.1201903094899356
0.10391318369058898,0.10391318369058898
0.38876288517915497,0.38876288517915497
0.43759426257719486,0.43759426257719486
0.49456420287490804,0.49456420287490804
0.49456420287490804,0.49456420287490804
0.38876288517915497,0.38876288517915497
-0.10768945170091718,-0.10768945170091718
-0.27046070969438346,-0.27046070969438346
-0.5227561595842561,-0.5227561595842561
-0.5064790337849095,-0.5064790337849095
-0.6285574772800092,-0.6285574772800092
-0.5634489740826227,-0.5634489740826227
-0.6448346030793559,-0.6448346030793559
-0.8320215497718421,-0.8320215497718421
-0.8971300529692287,-0.8971300529692287
0.4782870770755614,0.4782870770755614
3.8069593030419466,3.8069593030419466
4.580122778510911,4.580122778510911
3.0337958275729817,3.0337958275729817
-1.0436241851633483,-1.0436241851633483
-1.7272634687359065,-1.7272634687359065
-1.3121967608525675,-1.3121967608525675
-1.271503946354201,-1.271503946354201
-1.3528895753509342,-1.3528895753509342
-1.2308111318558346,-1.2308111318558346
-1.271503946354201,-1.271503946354201
-1.2063954431568145,-1.2063954431568145
-1.3366124495515876,-1.3366124495515876
-1.2308111318558346,-1.2308111318558346
-1.1901183173574679,-1.1901183173574679
-1.0436241851633483,-1.0436241851633483
-0.9622385561666151,-0.9622385561666151
-0.8320215497718421,-0.8320215497718421
-0.8320215497718421,-0.8320215497718421
-0.6285574772800092,-0.6285574772800092
-0.5878646627816427,-0.5878646627816427
-0.4006777160891565,-0.4006777160891565
-0.33556921289176994,-0.33556921289176994
-0.12396657750026381,-0.12396657750026381
-0.08327376300189723,-0.08327376300189723
0.07949749499156904,0.07949749499156904
0.20157593848666874,0.20157593848666874
0.38876288517915497,0.38876288517915497
0.4131785738781749,0.4131785738781749
0.4131785738781749,0.4131785738781749
0.2504073158847086,0.2504073158847086
0.0632203691922224,0.0632203691922224
-0.17279795489830369,-0.17279795489830369
-0.27046070969438346,-0.27046070969438346
-0.2297678951960169,-0.2297678951960169
-0.4006777160891565,-0.4006777160891565
-0.4820633450858896,-0.4820633450858896
-0.6285574772800092,-0.6285574772800092
-0.45764765638686966,-0.45764765638686966
-0.5634489740826227,-0.5634489740826227
-0.4820633450858896,-0.4820633450858896
-0.45764765638686966,-0.45764765638686966
