ECG,PPG
0.007783148906205366,0.007783148906205366
0.4753936746440393,0.4753936746440393
-0.11085137336431916,-0.11085137336431916
-0.4580954859955625,-0.4580954859955625
-0.2875042386430564,-0.2875042386430564
-0.23468156814304186,-0.23468156814304186
-0.4650230493398267,-0.4650230493398267
-0.5801937899382191,-0.5801937899382191
-0.4650230493398267,-0.4650230493398267
-0.4208598330201424,-0.4208598330201424
-0.5239073377660725,-0.5239073377660725
-0.5793278445201862,-0.5793278445201862
-0.5239073377660725,-0.5239073377660725
-0.49359924813491657,-0.49359924813491657
-0.5239073377660725,-0.5239073377660725
-0.5386284098726339,-0.5386284098726339
-0.5239073377660725,-0.5239073377660725
-0.5472878640529641,-0.5472878640529641
-0.642541860036597,-0.642541860036597
-0.7897525811022114,-0.7897525811022114
-0.9378292475858588,-0.9378292475858588
-1.0278875710612936,-1.0278875710612936
-0.9967135360121046,-0.9967135360121046
-0.8477709241104241,-0.8477709241104241
-0.5827916261923182,-0.5827916261923182
-0.24334102232337212,-0.24334102232337212
0.12555172575869689,0.12555172575869689
0.3818715694964725,0.3818715694964725
0.36195482488171293,0.36195482488171293
-0.08227517456922931,-0.08227517456922931
-0.878944959159613,-0.878944959159613
-1.7561476676270682,-1.7561476676270682
-2.414266185332168,-2.414266185332168
-2.859362130201143,-2.859362130201143
-3.2421100049717406,-3.2421100049717406
-3.5451909012832994,-3.5451909012832994
-3.4776471586767235,-3.4776471586767235
-2.964141525783139,-2.964141525783139
-2.2964976084796764,-2.2964976084796764
-1.8141660106352808,-1.8141660106352808
-1.4695197342581365,-1.4695197342581365
-1.108420494938365,-1.108420494938365
-0.7603104368890885,-0.7603104368890885
-0.5853894624464173,-0.5853894624464173
-0.5239073377660725,-0.5239073377660725
-0.43558090512670383,-0.43558090512670383
-0.2875042386430564,-0.2875042386430564
-0.1853226793151594,-0.1853226793151594
-0.11085137336431916,-0.11085137336431916
-0.02598872239708264,-0.02598872239708264
0.06666743733245112,0.06666743733245112
0.10130525405377215,0.10130525405377215
0.12555172575869689,0.12555172575869689
0.17924034167674446,0.17924034167674446
0.2441862480292214,0.2441862480292214
0.2545775930456177,0.2545775930456177
0.2441862480292214,0.2441862480292214
0.2563094838816838,0.2563094838816838
0.30307053645546717,0.30307053645546717
0.33597646234072215,0.33597646234072215
0.36195482488171293,0.36195482488171293
0.3853353511686046,0.3853353511686046
0.42083911330795865,0.42083911330795865
0.44508558501288337,0.44508558501288337
0.48058934715223744,0.48058934715223744
0.5100314913653603,0.5100314913653603
0.5394736355784832,0.5394736355784832
0.5533287622670117,0.5533287622670117
0.598357924004729,0.598357924004729
0.6598400486850737,0.6598400486850737
0.7169924462752535,0.7169924462752535
0.736909190890013,0.736909190890013
0.7758767347014992,0.7758767347014992
0.835626968545778,0.835626968545778
0.8936453115539907,0.8936453115539907
0.8979750386441558,0.8979750386441558
0.8936453115539907,0.8936453115539907
0.9083663836605522,0.9083663836605522
0.9525295999802365,0.9525295999802365
0.9811057987753263,0.9811057987753263
1.0122798338245154,1.0122798338245154
1.0425879234556712,1.0425879234556712
1.071164122250761,1.071164122250761
1.0503814322179683,1.0503814322179683
1.0122798338245154,1.0122798338245154
0.9871674167015575,0.9871674167015575
1.0122798338245154,1.0122798338245154
1.0295987421851758,1.0295987421851758
1.0122798338245154,1.0122798338245154
0.9464679820540053,0.9464679820540053
0.8936453115539907,0.8936453115539907
0.8590074948326697,0.8590074948326697
0.834761023127745,0.834761023127745
0.7767426801195323,0.7767426801195323
0.7169924462752535,0.7169924462752535
0.6546443761768757,0.6546443761768757
0.598357924004729,0.598357924004729
0.5100314913653603,0.5100314913653603
0.42083911330795865,0.42083911330795865
0.34290402568498635,0.34290402568498635
0.30307053645546717,0.30307053645546717
0.2684327197341461,0.2684327197341461
0.2441862480292214,0.2441862480292214
0.19136357752920682,0.19136357752920682
0.12555172575869689,0.12555172575869689
0.06060581940621994,0.06060581940621994
0.06666743733245112,0.06666743733245112
0.12381983492263082,0.12381983492263082
0.18443601418494263,0.18443601418494263
0.1861679050210087,0.1861679050210087
0.18443601418494263,0.18443601418494263
0.2337949030128251,0.2337949030128251
0.36195482488171293,0.36195482488171293
0.49444447384076584,0.49444447384076584
0.598357924004729,0.598357924004729
0.6719632845375362,0.6719632845375362
0.7758767347014992,0.7758767347014992
0.8945112569720237,0.8945112569720237
1.0122798338245154,1.0122798338245154
1.0988743756278179,1.0988743756278179
1.1889326991032525,1.1889326991032525
1.2538786054557294,1.2538786054557294
1.2486829329475313,1.2486829329475313
1.1274505744229077,1.1274505744229077
0.9525295999802365,0.9525295999802365
0.769815116775268,0.769815116775268
0.598357924004729,0.598357924004729
0.4087158774554963,0.4087158774554963
0.2441862480292214,0.2441862480292214
0.129881452848862,0.129881452848862
0.06666743733245112,0.06666743733245112
-0.011267650290521201,-0.011267650290521201
-0.11085137336431916,-0.11085137336431916
-0.21822860520041437,-0.21822860520041437
-0.2875042386430564,-0.2875042386430564
-0.3308015095447077,-0.3308015095447077
-0.3472544724873352,-0.3472544724873352
-0.374098780446359,-0.374098780446359
-0.406138760913581,-0.406138760913581
-0.4477041409791662,-0.4477041409791662
-0.4650230493398267,-0.4650230493398267
-0.4676208855939258,-0.4676208855939258
-0.4650230493398267,-0.4650230493398267
-0.4892695210447514,-0.4892695210447514
-0.5239073377660725,-0.5239073377660725
-0.5585451544873935,-0.5585451544873935
-0.5827916261923182,-0.5827916261923182
-0.6460056417087291,-0.6460056417087291
-0.7603104368890885,-0.7603104368890885
-0.909253048790769,-0.909253048790769
-0.9967135360121046,-0.9967135360121046
-0.9586119376186514,-0.9586119376186514
-0.7603104368890885,-0.7603104368890885
-0.47454844893819,-0.47454844893819
-0.16973566179056493,-0.16973566179056493
0.08831607278327676,0.08831607278327676
0.2441862480292214,0.2441862480292214
0.12035605325049872,0.12035605325049872
-0.406138760913581,-0.406138760913581
-1.242642034733484,-1.242642034733484
-2.0600945093566603,-2.0600945093566603
-2.6783795378322406,-2.6783795378322406
-3.123475482701216,-3.123475482701216
-3.4127012523242466,-3.4127012523242466
-3.359878581824232,-3.359878581824232
-2.9286377636437853,-2.9286377636437853
-2.355381896905922,-2.355381896905922
-1.9085540612008807,-1.9085540612008807
-1.5284040226843825,-1.5284040226843825
-1.1014929315941007,-1.1014929315941007
-0.7014261484628428,-0.7014261484628428
-0.509186265659511,-0.509186265659511
-0.4650230493398267,-0.4650230493398267
-0.40873659716768,-0.40873659716768
-0.2875042386430564,-0.2875042386430564
-0.20870320560205108,-0.20870320560205108
-0.16973566179056493,-0.16973566179056493
-0.11258326420038522,-0.11258326420038522
0.007783148906205366,0.007783148906205366
0.11516038074230056,0.11516038074230056
0.18443601418494263,0.18443601418494263
0.2138781583980655,0.2138781583980655
0.2441862480292214,0.2441862480292214
0.2710305559882452,0.2710305559882452
0.30307053645546717,0.30307053645546717
0.32904889899645795,0.32904889899645795
0.36195482488171293,0.36195482488171293
0.3896650782587697,0.3896650782587697
0.42083911330795865,0.42083911330795865
0.4424877487587843,0.4424877487587843
0.48058934715223744,0.48058934715223744
0.5290822905620869,0.5290822905620869
0.598357924004729,0.598357924004729
0.6581081578490078,0.6581081578490078
0.7169924462752535,0.7169924462752535
0.7507643175785415,0.7507643175785415
0.7758767347014992,0.7758767347014992
0.7888659159719946,0.7888659159719946
0.834761023127745,0.834761023127745
0.8962431478080898,0.8962431478080898
0.9525295999802365,0.9525295999802365
0.9603231087425337,0.9603231087425337
0.9525295999802365,0.9525295999802365
0.9412723095458072,0.9412723095458072
0.9525295999802365,0.9525295999802365
0.9672506720867979,0.9672506720867979
1.0122798338245154,1.0122798338245154
1.070298176832728,1.070298176832728
1.1300484106770068,1.1300484106770068
1.1421716465294691,1.1421716465294691
1.1300484106770068,1.1300484106770068
1.1144613931524123,1.1144613931524123
1.1300484106770068,1.1300484106770068
1.138707864857337,1.138707864857337
1.1300484106770068,1.1300484106770068
1.0928127577015867,1.0928127577015867
1.071164122250761,1.071164122250761
1.0486495413819024,1.0486495413819024
1.0122798338245154,1.0122798338245154
0.9248193466031797,0.9248193466031797
0.834761023127745,0.834761023127745
0.7611556625949378,0.7611556625949378
0.7169924462752535,0.7169924462752535
0.6407892494883473,0.6407892494883473
0.5394736355784832,0.5394736355784832
0.42603478581615684,0.42603478581615684
0.36195482488171293,0.36195482488171293
0.32645106274235886,0.32645106274235886
0.30307053645546717,0.30307053645546717
0.2467840842833205,0.2467840842833205
0.18443601418494263,0.18443601418494263
0.11516038074230056,0.11516038074230056
0.06666743733245112,0.06666743733245112
0.020772330176700753,0.020772330176700753
0.007783148906205366,0.007783148906205366
0.018174493922601676,0.018174493922601676
0.06666743733245112,0.06666743733245112
0.1030371448898382,0.1030371448898382
0.12555172575869689,0.12555172575869689
0.13594307077509318,0.13594307077509318
0.18443601418494263,0.18443601418494263
0.2467840842833205,0.2467840842833205
0.30307053645546717,0.30307053645546717
0.3394402440128542,0.3394402440128542
0.42083911330795865,0.42083911330795865
0.5403395809965162,0.5403395809965162
0.6572422124309747,0.6572422124309747
0.7334454092178809,0.7334454092178809
0.834761023127745,0.834761023127745
0.9681166175048309,0.9681166175048309
1.071164122250761,1.071164122250761
1.0512473776360014,1.0512473776360014
0.9525295999802365,0.9525295999802365
0.834761023127745,0.834761023127745
0.7169924462752535,0.7169924462752535
0.5498649805948795,0.5498649805948795
0.36195482488171293,0.36195482488171293
0.19049763211117382,0.19049763211117382
0.06666743733245112,0.06666743733245112
-0.03551412199544592,-0.03551412199544592
-0.11085137336431916,-0.11085137336431916
-0.1887864609872915,-0.1887864609872915
-0.2875042386430564,-0.2875042386430564
-0.42172577843817544,-0.42172577843817544
-0.5239073377660725,-0.5239073377660725
-0.574132172011988,-0.574132172011988
-0.5827916261923182,-0.5827916261923182
-0.6130997158234741,-0.6130997158234741
-0.642541860036597,-0.642541860036597
-0.6572629321431585,-0.6572629321431585
-0.642541860036597,-0.642541860036597
-0.6382121329464319,-0.6382121329464319
-0.642541860036597,-0.642541860036597
-0.6477375325447952,-0.6477375325447952
-0.642541860036597,-0.642541860036597
-0.6719840042497198,-0.6719840042497198
-0.7603104368890885,-0.7603104368890885
-0.8953979221022406,-0.8953979221022406
-0.9967135360121046,-0.9967135360121046
-1.045206479421954,-1.045206479421954
-1.0555978244383504,-1.0555978244383504
-1.047804315676053,-1.047804315676053
-0.9378292475858588,-0.9378292475858588
-0.677179676757918,-0.677179676757918
-0.2875042386430564,-0.2875042386430564
0.10217119947180518,0.10217119947180518
0.36195482488171293,0.36195482488171293
0.3039364818735002,0.3039364818735002
-0.16973566179056493,-0.16973566179056493
-0.9560141013645523,-0.9560141013645523
-1.7648071218073984,-1.7648071218073984
-2.4714185829223476,-2.4714185829223476
-3.123475482701216,-3.123475482701216
-3.690669731512848,-3.690669731512848
-3.89156906849651,-3.89156906849651
-3.6092708622177434,-3.6092708622177434
-3.06459119427497,-3.06459119427497
-2.5684044697420463,-2.5684044697420463
-2.1189787977829058,-2.1189787977829058
-1.6305855820122794,-1.6305855820122794
-1.1742323467088749,-1.1742323467088749
-0.9213762846432313,-0.9213762846432313
-0.8191947253153342,-0.8191947253153342
-0.7256726201677675,-0.7256726201677675
-0.5827916261923182,-0.5827916261923182
-0.4632911585037607,-0.4632911585037607
-0.3472544724873352,-0.3472544724873352
-0.22169238687254647,-0.22169238687254647
-0.11085137336431916,-0.11085137336431916
-0.07534761122496511,-0.07534761122496511
-0.05110113952004039,-0.05110113952004039
0.002587476398007211,0.002587476398007211
0.06666743733245112,0.06666743733245112
0.07532689151278138,0.07532689151278138
0.06666743733245112,0.06666743733245112
0.08312040027507861,0.08312040027507861
0.12555172575869689,0.12555172575869689
0.15153008829968764,0.15153008829968764
0.18443601418494263,0.18443601418494263
0.23899057552102326,0.23899057552102326
0.30307053645546717,0.30307053645546717
0.31692566314399556,0.31692566314399556
0.30307053645546717,0.30307053645546717
0.30220459103743413,0.30220459103743413
0.36195482488171293,0.36195482488171293
0.432096403742388,0.432096403742388
0.48058934715223744,0.48058934715223744
0.4935785284227328,0.4935785284227328
0.5394736355784832,0.5394736355784832
0.6217384502916207,0.6217384502916207
0.7169924462752535,0.7169924462752535
0.7611556625949378,0.7611556625949378
0.7758767347014992,0.7758767347014992
0.7706810621933011,0.7706810621933011
0.7758767347014992,0.7758767347014992
0.7836702434637964,0.7836702434637964
0.834761023127745,0.834761023127745
0.904036656570387,0.904036656570387
0.9525295999802365,0.9525295999802365
0.9308809645294108,0.9308809645294108
0.8936453115539907,0.8936453115539907
0.8780582940293963,0.8780582940293963
0.8936453115539907,0.8936453115539907
0.8936453115539907,0.8936453115539907
0.8936453115539907,0.8936453115539907
0.8927793661359578,0.8927793661359578
0.8936453115539907,0.8936453115539907
0.8642031673408679,0.8642031673408679
0.834761023127745,0.834761023127745
0.8053188789146221,0.8053188789146221
0.7758767347014992,0.7758767347014992
0.69880759249656,0.69880759249656
0.598357924004729,0.598357924004729
0.4927125830046998,0.4927125830046998
0.42083911330795865,0.42083911330795865
0.35675915237351474,0.35675915237351474
0.30307053645546717,0.30307053645546717
0.23812463010299023,0.23812463010299023
0.18443601418494263,0.18443601418494263
0.12295388950459779,0.12295388950459779
0.06666743733245112,0.06666743733245112
-0.0017422506921579179,-0.0017422506921579179
-0.05110113952004039,-0.05110113952004039
-0.09439841042169168,-0.09439841042169168
-0.11085137336431916,-0.11085137336431916
-0.12297460921678152,-0.12297460921678152
-0.11085137336431916,-0.11085137336431916
-0.09093462874955957,-0.09093462874955957
-0.05110113952004039,-0.05110113952004039
-0.022524940724950537,-0.022524940724950537
0.007783148906205366,0.007783148906205366
0.02769989352096496,0.02769989352096496
0.06666743733245112,0.06666743733245112
0.11429443532426754,0.11429443532426754
0.18443601418494263,0.18443601418494263
0.2615051563898819,0.2615051563898819
0.36195482488171293,0.36195482488171293
0.4719298929719072,0.4719298929719072
0.598357924004729,0.598357924004729
0.7169924462752535,0.7169924462752535
0.834761023127745,0.834761023127745
0.9308809645294108,0.9308809645294108
1.0122798338245154,1.0122798338245154
1.0547111593081335,1.0547111593081335
1.071164122250761,1.071164122250761
1.0373922509474731,1.0373922509474731
0.9525295999802365,0.9525295999802365
0.7966594247342919,0.7966594247342919
0.598357924004729,0.598357924004729
0.3775418424063074,0.3775418424063074
0.18443601418494263,0.18443601418494263
0.03462745686522917,0.03462745686522917
-0.05110113952004039,-0.05110113952004039
-0.11085137336431916,-0.11085137336431916
-0.16973566179056493,-0.16973566179056493
-0.2597939852659996,-0.2597939852659996
-0.3472544724873352,-0.3472544724873352
-0.4208598330201424,-0.4208598330201424
-0.4650230493398267,-0.4650230493398267
-0.5065884294054119,-0.5065884294054119
-0.5239073377660725,-0.5239073377660725
-0.5325667919464028,-0.5325667919464028
-0.5239073377660725,-0.5239073377660725
-0.5256392286021385,-0.5256392286021385
-0.5239073377660725,-0.5239073377660725
-0.5273711194382046,-0.5273711194382046
-0.5239073377660725,-0.5239073377660725
-0.5403603007087,-0.5403603007087
-0.5827916261923182,-0.5827916261923182
-0.6650564409054557,-0.6650564409054557
-0.7603104368890885,-0.7603104368890885
-0.8824087408317451,-0.8824087408317451
-0.9967135360121046,-0.9967135360121046
-1.0287535164793264,-1.0287535164793264
-0.878944959159613,-0.878944959159613
-0.6148316066595402,-0.6148316066595402
-0.3472544724873352,-0.3472544724873352
-0.07448166580693208,-0.07448166580693208
0.30307053645546717,0.30307053645546717
0.5836368518981675,0.5836368518981675
0.36195482488171293,0.36195482488171293
-0.4892695210447514,-0.4892695210447514
-1.5284040226843825,-1.5284040226843825
-2.3172802985124688,-2.3172802985124688
-2.8281880951519542,-2.8281880951519542
-3.2481716228979716,-3.2481716228979716
-3.4776471586767235,-3.4776471586767235
-3.339961837209472,-3.339961837209472
-2.8870723835781997,-2.8870723835781997
-2.391751604463309,-2.391751604463309
-1.9423259325041686,-1.9423259325041686
-1.4972299876351935,-1.4972299876351935
-1.0555978244383504,-1.0555978244383504
-0.744723419364494,-0.744723419364494
-0.5827916261923182,-0.5827916261923182
-0.5005268114791808,-0.5005268114791808
-0.406138760913581,-0.406138760913581
-0.3134826011840472,-0.3134826011840472
-0.22861995021681067,-0.22861995021681067
-0.15501458968400347,-0.15501458968400347
-0.05110113952004039,-0.05110113952004039
0.05021447438982363,0.05021447438982363
0.12555172575869689,0.12555172575869689
0.1497981974636216,0.1497981974636216
0.18443601418494263,0.18443601418494263
0.24505219344725443,0.24505219344725443
0.30307053645546717,0.30307053645546717
0.3082662089636653,0.3082662089636653
0.30307053645546717,0.30307053645546717
0.3203894448161277,0.3203894448161277
0.36195482488171293,0.36195482488171293
0.38793318742270366,0.38793318742270366
0.42083911330795865,0.42083911330795865
0.4554769300292797,0.4554769300292797
0.48058934715223744,0.48058934715223744
0.4676001658817421,0.4676001658817421
0.48058934715223744,0.48058934715223744
0.530814181398153,0.530814181398153
0.598357924004729,0.598357924004729
0.6269341227998187,0.6269341227998187
0.6572422124309747,0.6572422124309747
0.7083329920949232,0.7083329920949232
0.7758767347014992,0.7758767347014992
0.8079167151687212,0.8079167151687212
0.834761023127745,0.834761023127745
0.8624712765048018,0.8624712765048018
0.8936453115539907,0.8936453115539907
0.8901815298818586,0.8901815298818586
0.8936453115539907,0.8936453115539907
0.9144280015867834,0.9144280015867834
0.9525295999802365,0.9525295999802365
0.9568593270704017,0.9568593270704017
0.9525295999802365,0.9525295999802365
0.9620549995785997,0.9620549995785997
1.0122798338245154,1.0122798338245154
1.0529792684720676,1.0529792684720676
1.071164122250761,1.071164122250761
1.0451857597097702,1.0451857597097702
1.0122798338245154,1.0122798338245154
0.9733122900130291,0.9733122900130291
0.9525295999802365,0.9525295999802365
0.9248193466031797,0.9248193466031797
0.8936453115539907,0.8936453115539907
0.835626968545778,0.835626968545778
0.7758767347014992,0.7758767347014992
0.7074670466768902,0.7074670466768902
0.6572422124309747,0.6572422124309747
0.598357924004729,0.598357924004729
0.5394736355784832,0.5394736355784832
0.4676001658817421,0.4676001658817421
0.42083911330795865,0.42083911330795865
0.3680164428079441,0.3680164428079441
0.30307053645546717,0.30307053645546717
0.21820788548823064,0.21820788548823064
0.18443601418494263,0.18443601418494263
0.1870338504390417,0.1870338504390417
0.18443601418494263,0.18443601418494263
0.13767496161115925,0.13767496161115925
0.12555172575869689,0.12555172575869689
0.17231277833248027,0.17231277833248027
0.2441862480292214,0.2441862480292214
0.2701646105702122,0.2701646105702122
0.30307053645546717,0.30307053645546717
0.37407806073417527,0.37407806073417527
0.48058934715223744,0.48058934715223744
0.5628541618653748,0.5628541618653748
0.6572422124309747,0.6572422124309747
0.7715470076113341,0.7715470076113341
0.8936453115539907,0.8936453115539907
0.9785079625212273,0.9785079625212273
1.071164122250761,1.071164122250761
1.1742116269966911,1.1742116269966911
1.2486829329475313,1.2486829329475313
1.2201067341524414,1.2201067341524414
1.1300484106770068,1.1300484106770068
1.0174755063327134,1.0174755063327134
0.8936453115539907,0.8936453115539907
0.7057351558408241,0.7057351558408241
0.48058934715223744,0.48058934715223744
0.265834883480047,0.265834883480047
0.12555172575869689,0.12555172575869689
0.044152856463592446,0.044152856463592446
0.007783148906205366,0.007783148906205366
-0.039843849085611054,-0.039843849085611054
-0.11085137336431916,-0.11085137336431916
-0.21216698727418318,-0.21216698727418318
-0.2875042386430564,-0.2875042386430564
-0.33166745496274075,-0.33166745496274075
-0.3472544724873352,-0.3472544724873352
-0.37929445295455716,-0.37929445295455716
-0.406138760913581,-0.406138760913581
-0.41912794218407634,-0.41912794218407634
-0.406138760913581,-0.406138760913581
-0.4009430884053828,-0.4009430884053828
-0.406138760913581,-0.406138760913581
-0.4321171234545717,-0.4321171234545717
-0.4650230493398267,-0.4650230493398267
-0.5161138290037752,-0.5161138290037752
-0.5827916261923182,-0.5827916261923182
-0.6919007488644795,-0.6919007488644795
-0.8191947253153342,-0.8191947253153342
-0.9291697934055285,-0.9291697934055285
-0.9378292475858588,-0.9378292475858588
-0.8226585069874663,-0.8226585069874663
-0.5827916261923182,-0.5827916261923182
-0.2892361294791225,-0.2892361294791225
0.007783148906205366,0.007783148906205366
0.21993977632429668,0.21993977632429668
0.2441862480292214,0.2441862480292214
-0.0952643558397247,-0.0952643558397247
-0.8191947253153342,-0.8191947253153342
-1.7093866150532848,-1.7093866150532848
-2.414266185332168,-2.414266185332168
-2.8740832023077045,-2.8740832023077045
-3.2421100049717406,-3.2421100049717406
-3.5244082112505066,-3.5244082112505066
-3.4187628702504775,-3.4187628702504775
-2.8411772764224494,-2.8411772764224494
-2.1189787977829058,-2.1189787977829058
-1.6262558549221142,-1.6262558549221142
-1.2920009235613663,-1.2920009235613663
-0.9283038479874955,-0.9283038479874955
-0.5827916261923182,-0.5827916261923182
-0.4546317043234304,-0.4546317043234304
-0.4650230493398267,-0.4650230493398267
-0.407004706331614,-0.407004706331614
-0.22861995021681067,-0.22861995021681067
-0.0952643558397247,-0.0952643558397247
-0.05110113952004039,-0.05110113952004039
-0.026854667815115665,-0.026854667815115665
0.06666743733245112,0.06666743733245112
0.1705808874964142,0.1705808874964142
0.2441862480292214,0.2441862480292214
0.2727624468243113,0.2727624468243113
0.30307053645546717,0.30307053645546717
0.3351105169226891,0.3351105169226891
0.36195482488171293,0.36195482488171293
0.3610888794636799,0.3610888794636799
0.36195482488171293,0.36195482488171293
0.3784077878243404,0.3784077878243404
0.42083911330795865,0.42083911330795865
0.45028125752108156,0.45028125752108156
0.48058934715223744,0.48058934715223744
0.5204228363817567,0.5204228363817567
0.598357924004729,0.598357924004729
0.667633557447371,0.667633557447371
0.7169924462752535,0.7169924462752535
0.735177300053947,0.735177300053947
0.7758767347014992,0.7758767347014992
0.8304312960375798,0.8304312960375798
0.8936453115539907,0.8936453115539907
0.9265512374392457,0.9265512374392457
0.9525295999802365,0.9525295999802365
0.9759101262671281,0.9759101262671281
1.0122798338245154,1.0122798338245154
1.0183414517507465,1.0183414517507465
1.0122798338245154,1.0122798338245154
1.0140117246605813,1.0140117246605813
1.071164122250761,1.071164122250761
1.1257186835868416,1.1257186835868416
1.1300484106770068,1.1300484106770068
1.0789576310130582,1.0789576310130582
1.071164122250761,1.071164122250761
1.1083997752261812,1.1083997752261812
1.1300484106770068,1.1300484106770068
1.0867511397753555,1.0867511397753555
1.071164122250761,1.071164122250761
1.107533829808148,1.107533829808148
1.1300484106770068,1.1300484106770068
1.0495154867999354,1.0495154867999354
0.9525295999802365,0.9525295999802365
0.9075004382425191,0.9075004382425191
0.8936453115539907,0.8936453115539907
0.8165761693490514,0.8165761693490514
0.7169924462752535,0.7169924462752535
0.6407892494883473,0.6407892494883473
0.598357924004729,0.598357924004729
0.5160931092915915,0.5160931092915915
0.42083911330795865,0.42083911330795865
0.3446359165210524,0.3446359165210524
0.30307053645546717,0.30307053645546717
0.22513544883249484,0.22513544883249484
0.12555172575869689,0.12555172575869689
0.05021447438982363,0.05021447438982363
0.06666743733245112,0.06666743733245112
0.11083065365213543,0.11083065365213543
0.12555172575869689,0.12555172575869689
0.09870741779967307,0.09870741779967307
0.12555172575869689,0.12555172575869689
0.18270412334887656,0.18270412334887656
0.18443601418494263,0.18443601418494263
0.09524363612754097,0.09524363612754097
0.06666743733245112,0.06666743733245112
0.17924034167674446,0.17924034167674446
0.36195482488171293,0.36195482488171293
0.4719298929719072,0.4719298929719072
0.5394736355784832,0.5394736355784832
0.6182746686194885,0.6182746686194885
0.7169924462752535,0.7169924462752535
0.7888659159719946,0.7888659159719946
0.8936453115539907,0.8936453115539907
1.0347944146933739,1.0347944146933739
1.1300484106770068,1.1300484106770068
1.0789576310130582,1.0789576310130582
0.9525295999802365,0.9525295999802365
0.8312972414556129,0.8312972414556129
0.7169924462752535,0.7169924462752535
0.5273503997260208,0.5273503997260208
0.30307053645546717,0.30307053645546717
0.11516038074230056,0.11516038074230056
0.007783148906205366,0.007783148906205366
-0.08054328373316326,-0.08054328373316326
-0.16973566179056493,-0.16973566179056493
-0.2684534394463299,-0.2684534394463299
-0.3472544724873352,-0.3472544724873352
-0.41653010592997725,-0.41653010592997725
-0.4650230493398267,-0.4650230493398267
-0.5230413923480395,-0.5230413923480395
-0.5827916261923182,-0.5827916261923182
-0.641675914618564,-0.641675914618564
-0.642541860036597,-0.642541860036597
-0.6079040433152759,-0.6079040433152759
-0.5827916261923182,-0.5827916261923182
-0.6105018795693751,-0.6105018795693751
-0.642541860036597,-0.642541860036597
-0.6486034779628281,-0.6486034779628281
-0.642541860036597,-0.642541860036597
-0.6789115675939841,-0.6789115675939841
-0.7603104368890885,-0.7603104368890885
-0.87807901374158,-0.87807901374158
-0.9967135360121046,-0.9967135360121046
-1.0980291499219685,-1.0980291499219685
-1.114482112864596,-1.114482112864596
-1.0097027172825999,-1.0097027172825999
-0.7603104368890885,-0.7603104368890885
-0.42259172385620847,-0.42259172385620847
-0.05110113952004039,-0.05110113952004039
0.24938192053741956,0.24938192053741956
0.36195482488171293,0.36195482488171293
0.11429443532426754,0.11429443532426754
-0.5239073377660725,-0.5239073377660725
-1.385523028708933,-1.385523028708933
-2.1778630862091517,-2.1778630862091517
-2.816064859299492,-2.816064859299492
-3.359878581824232,-3.359878581824232
-3.7815940004063155,-3.7815940004063155
-3.832684780070264,-3.832684780070264
-3.4360817786111384,-3.4360817786111384
-2.8281880951519542,-2.8281880951519542
-2.3129505714223035,-2.3129505714223035
-1.8825756986598898,-1.8825756986598898
-1.4314181358646836,-1.4314181358646836
-0.9967135360121046,-0.9967135360121046
-0.742125583110395,-0.742125583110395
-0.642541860036597,-0.642541860036597
-0.574132172011988,-0.574132172011988
-0.4650230493398267,-0.4650230493398267
-0.36976905335619387,-0.36976905335619387
-0.2875042386430564,-0.2875042386430564
-0.22169238687254647,-0.22169238687254647
-0.16973566179056493,-0.16973566179056493
-0.15501458968400347,-0.15501458968400347
-0.11085137336431916,-0.11085137336431916
-0.023390886142983562,-0.023390886142983562
0.06666743733245112,0.06666743733245112
0.10217119947180518,0.10217119947180518
0.12555172575869689,0.12555172575869689
0.1601895424800179,0.1601895424800179
0.18443601418494263,0.18443601418494263
0.17231277833248027,0.17231277833248027
0.18443601418494263,0.18443601418494263
0.2407224663570893,0.2407224663570893
0.30307053645546717,0.30307053645546717
0.30480242729153323,0.30480242729153323
0.30307053645546717,0.30307053645546717
0.3420380802669533,0.3420380802669533
0.42083911330795865,0.42083911330795865
0.46153854795551086,0.46153854795551086
0.48058934715223744,0.48058934715223744
0.5134952730374924,0.5134952730374924
0.598357924004729,0.598357924004729
0.6736951753736022,0.6736951753736022
0.7169924462752535,0.7169924462752535
0.7291156821277158,0.7291156821277158
0.7758767347014992,0.7758767347014992
0.8399566956359431,0.8399566956359431
0.8936453115539907,0.8936453115539907
0.8971090932261229,0.8971090932261229
0.8936453115539907,0.8936453115539907
0.8919134207179247,0.8919134207179247
0.8936453115539907,0.8936453115539907
0.8780582940293963,0.8780582940293963
0.8936453115539907,0.8936453115539907
0.9300150191113778,0.9300150191113778
0.9525295999802365,0.9525295999802365
0.9196236740949815,0.9196236740949815
0.8936453115539907,0.8936453115539907
0.8936453115539907,0.8936453115539907
0.8936453115539907,0.8936453115539907
0.8373588593818441,0.8373588593818441
0.7758767347014992,0.7758767347014992
0.7395070271441122,0.7395070271441122
0.7169924462752535,0.7169924462752535
0.6381914132342481,0.6381914132342481
0.5394736355784832,0.5394736355784832
0.4580747662833788,0.4580747662833788
0.42083911330795865,0.42083911330795865
0.37148022448007617,0.37148022448007617
0.30307053645546717,0.30307053645546717
0.20868248588986735,0.20868248588986735
0.12555172575869689,0.12555172575869689
0.04848258355375758,0.04848258355375758
0.007783148906205366,0.007783148906205366
-0.024256831561016587,-0.024256831561016587
-0.05110113952004039,-0.05110113952004039
-0.0952643558397247,-0.0952643558397247
-0.11085137336431916,-0.11085137336431916
-0.11258326420038522,-0.11258326420038522
-0.11085137336431916,-0.11085137336431916
-0.12903622714301272,-0.12903622714301272
-0.11085137336431916,-0.11085137336431916
-0.05716275744627157,-0.05716275744627157
0.007783148906205366,0.007783148906205366
0.03289556602916311,0.03289556602916311
0.06666743733245112,0.06666743733245112
0.13507712535706015,0.13507712535706015
0.2441862480292214,0.2441862480292214
0.3351105169226891,0.3351105169226891
0.42083911330795865,0.42083911330795865
0.5195568909637236,0.5195568909637236
0.6572422124309747,0.6572422124309747
0.7862680797178956,0.7862680797178956
0.8936453115539907,0.8936453115539907
0.9767760716851612,0.9767760716851612
1.071164122250761,1.071164122250761
1.137841919439304,1.137841919439304
1.1300484106770068,1.1300484106770068
1.009681997570416,1.009681997570416
0.834761023127745,0.834761023127745
0.6503146490867106,0.6503146490867106
0.48058934715223744,0.48058934715223744
0.29527702769316994,0.29527702769316994
0.12555172575869689,0.12555172575869689
0.002587476398007211,0.002587476398007211
-0.05110113952004039,-0.05110113952004039
-0.09613030125775773,-0.09613030125775773
-0.16973566179056493,-0.16973566179056493
-0.29356585656928763,-0.29356585656928763
-0.406138760913581,-0.406138760913581
-0.4710846672660579,-0.4710846672660579
-0.4650230493398267,-0.4650230493398267
-0.45289981348736436,-0.45289981348736436
-0.4650230493398267,-0.4650230493398267
-0.510918156495577,-0.510918156495577
-0.5239073377660725,-0.5239073377660725
-0.49966086606114773,-0.49966086606114773
-0.4650230493398267,-0.4650230493398267
-0.47974412144638817,-0.47974412144638817
-0.5239073377660725,-0.5239073377660725
-0.5637408269955917,-0.5637408269955917
-0.5827916261923182,-0.5827916261923182
-0.641675914618564,-0.641675914618564
-0.7603104368890885,-0.7603104368890885
-0.9127168304629011,-0.9127168304629011
-0.9967135360121046,-0.9967135360121046
-0.9542822105284863,-0.9542822105284863
-0.7603104368890885,-0.7603104368890885
-0.48320790311852024,-0.48320790311852024
-0.16973566179056493,-0.16973566179056493
0.13334523452099412,0.13334523452099412
0.36195482488171293,0.36195482488171293
0.29354513685710387,0.29354513685710387
-0.22861995021681067,-0.22861995021681067
-1.0833080778154072,-1.0833080778154072
-1.8825756986598898,-1.8825756986598898
-2.4653569649961162,-2.4653569649961162
-2.9459566720044457,-2.9459566720044457
-3.3901866714553877,-3.3901866714553877
-3.5373973925210023,-3.5373973925210023
-3.2421100049717406,-3.2421100049717406
-2.7104195182994624,-2.7104195182994624
-2.247138719651794,-2.247138719651794
-1.8236914102336441,-1.8236914102336441
-1.3361641398810506,-1.3361641398810506
-0.878944959159613,-0.878944959159613
-0.6512013142169273,-0.6512013142169273
-0.5827916261923182,-0.5827916261923182
-0.49619708438901566,-0.49619708438901566
-0.3472544724873352,-0.3472544724873352
-0.2597939852659996,-0.2597939852659996
-0.22861995021681067,-0.22861995021681067
-0.1757972797167961,-0.1757972797167961
-0.05110113952004039,-0.05110113952004039
0.05887392857015389,0.05887392857015389
0.12555172575869689,0.12555172575869689
0.1532619791357537,0.1532619791357537
0.18443601418494263,0.18443601418494263
0.21301221298003248,0.21301221298003248
0.2441862480292214,0.2441862480292214
0.2684327197341461,0.2684327197341461
0.30307053645546717,0.30307053645546717
0.3351105169226891,0.3351105169226891
0.36195482488171293,0.36195482488171293
0.36195482488171293,0.36195482488171293
0.36195482488171293,0.36195482488171293
0.3723461698981092,0.3723461698981092
0.42083911330795865,0.42083911330795865
0.47799151089813835,0.47799151089813835
0.5394736355784832,0.5394736355784832
0.5732455068817712,0.5732455068817712
0.598357924004729,0.598357924004729
0.6139449415293234,0.6139449415293234
0.6572422124309747,0.6572422124309747
0.7126627191850884,0.7126627191850884
0.7758767347014992,0.7758767347014992
0.8087826605867542,0.8087826605867542
0.834761023127745,0.834761023127745
0.8538118223244715,0.8538118223244715
0.8936453115539907,0.8936453115539907
0.9256852920212127,0.9256852920212127
0.9525295999802365,0.9525295999802365
0.9516636545622035,0.9516636545622035
0.9525295999802365,0.9525295999802365
0.9637868904146658,0.9637868904146658
1.0122798338245154,1.0122798338245154
1.0538452138901004,1.0538452138901004
1.071164122250761,1.071164122250761
1.0555771047261666,1.0555771047261666
1.071164122250761,1.071164122250761
1.107533829808148,1.107533829808148
1.1300484106770068,1.1300484106770068
1.0832873581032234,1.0832873581032234
1.0122798338245154,1.0122798338245154
0.9430042003818732,0.9430042003818732
0.8936453115539907,0.8936453115539907
0.8295653506195468,0.8295653506195468
0.7758767347014992,0.7758767347014992
0.7195902825293525,0.7195902825293525
0.6572422124309747,0.6572422124309747
0.5593903801932428,0.5593903801932428
0.48058934715223744,0.48058934715223744
0.4346942399964871,0.4346942399964871
0.42083911330795865,0.42083911330795865
0.37321211531614223,0.37321211531614223
0.30307053645546717,0.30307053645546717
0.2242695034144618,0.2242695034144618
0.18443601418494263,0.18443601418494263
0.16798305124231513,0.16798305124231513
0.18443601418494263,0.18443601418494263
0.20868248588986735,0.20868248588986735
0.2441862480292214,0.2441862480292214
0.25024786595545256,0.25024786595545256
0.2441862480292214,0.2441862480292214
0.24245435719315536,0.24245435719315536
0.30307053645546717,0.30307053645546717
0.39312885993090185,0.39312885993090185
0.48058934715223744,0.48058934715223744
0.5455352535047143,0.5455352535047143
0.6572422124309747,0.6572422124309747
0.8087826605867542,0.8087826605867542
0.9525295999802365,0.9525295999802365
1.039124141783539,1.039124141783539
1.1300484106770068,1.1300484106770068
1.2218386249885076,1.2218386249885076
1.2486829329475313,1.2486829329475313
1.1482332644557003,1.1482332644557003
1.0122798338245154,1.0122798338245154
0.8971090932261229,0.8971090932261229
0.7758767347014992,0.7758767347014992
0.5732455068817712,0.5732455068817712
0.36195482488171293,0.36195482488171293
0.21128032214396641,0.21128032214396641
0.12555172575869689,0.12555172575869689
0.032029620611130086,0.032029620611130086
-0.05110113952004039,-0.05110113952004039
-0.11431515503645127,-0.11431515503645127
-0.16973566179056493,-0.16973566179056493
-0.2658556031922308,-0.2658556031922308
-0.3472544724873352,-0.3472544724873352
-0.37496472586439206,-0.37496472586439206
-0.3472544724873352,-0.3472544724873352
-0.3368631274709389,-0.3368631274709389
-0.3472544724873352,-0.3472544724873352
-0.37583067128242503,-0.37583067128242503
-0.406138760913581,-0.406138760913581
-0.4468381955611332,-0.4468381955611332
-0.4650230493398267,-0.4650230493398267
-0.46242521308572765,-0.46242521308572765
-0.4650230493398267,-0.4650230493398267
-0.5291030102742706,-0.5291030102742706
-0.642541860036597,-0.642541860036597
-0.7940823081923765,-0.7940823081923765
-0.9378292475858588,-0.9378292475858588
-1.0322172981514586,-1.0322172981514586
-0.9967135360121046,-0.9967135360121046
-0.8365136336759947,-0.8365136336759947
-0.5827916261923182,-0.5827916261923182
-0.2797107298807592,-0.2797107298807592
0.06666743733245112,0.06666743733245112
0.29787486394726903,0.29787486394726903
0.18443601418494263,0.18443601418494263
-0.3905517433889865,-0.3905517433889865
-1.2331166351351206,-1.2331166351351206
-2.0652901818648584,-2.0652901818648584
-2.7104195182994624,-2.7104195182994624
-3.156381408586471,-3.156381408586471
-3.359878581824232,-3.359878581824232
-3.2871391667094576,-3.2871391667094576
-2.9459566720044457,-2.9459566720044457
-2.4644910195780834,-2.4644910195780834
-1.9423259325041686,-1.9423259325041686
-1.4625921709138725,-1.4625921709138725
-1.0555978244383504,-1.0555978244383504
-0.7689698910694187,-0.7689698910694187
-0.5827916261923182,-0.5827916261923182
-0.4650230493398267,-0.4650230493398267
-0.3472544724873352,-0.3472544724873352
-0.2424750769053391,-0.2424750769053391
-0.16973566179056493,-0.16973566179056493
-0.1489529717577723,-0.1489529717577723
-0.11085137336431916,-0.11085137336431916
-0.03551412199544592,-0.03551412199544592
0.06666743733245112,0.06666743733245112
0.13334523452099412,0.13334523452099412
0.18443601418494263,0.18443601418494263
0.23812463010299023,0.23812463010299023
0.30307053645546717,0.30307053645546717
0.34290402568498635,0.34290402568498635
0.36195482488171293,0.36195482488171293
0.3610888794636799,0.3610888794636799
0.36195482488171293,0.36195482488171293
0.3706142790620432,0.3706142790620432
0.42083911330795865,0.42083911330795865
0.4857850196604356,0.4857850196604356
0.5394736355784832,0.5394736355784832
0.5559265985211107,0.5559265985211107
0.598357924004729,0.598357924004729
0.6788908478818003,0.6788908478818003
0.7758767347014992,0.7758767347014992
0.8174421147670845,0.8174421147670845
0.834761023127745,0.834761023127745
0.867666949013,0.867666949013
0.9525295999802365,0.9525295999802365
1.031330633021242,1.031330633021242
1.071164122250761,1.071164122250761
1.0469176505458364,1.0469176505458364
1.0122798338245154,1.0122798338245154
0.9888993075376236,0.9888993075376236
1.0122798338245154,1.0122798338245154
1.0434538688737043,1.0434538688737043
1.071164122250761,1.071164122250761
1.0659684497425628,1.0659684497425628
1.071164122250761,1.071164122250761
1.104935993554049,1.104935993554049
1.1889326991032525,1.1889326991032525
1.2538786054557294,1.2538786054557294
1.2486829329475313,1.2486829329475313
1.1586246094720967,1.1586246094720967
1.071164122250761,1.071164122250761
1.0062182158982842,1.0062182158982842
0.9525295999802365,0.9525295999802365
0.8780582940293963,0.8780582940293963
0.834761023127745,0.834761023127745
0.8113804968408533,0.8113804968408533
0.7758767347014992,0.7758767347014992
0.6979416470785269,0.6979416470785269
0.6572422124309747,0.6572422124309747
0.6477168128326114,0.6477168128326114
0.598357924004729,0.598357924004729
0.44421963959485034,0.44421963959485034
0.30307053645546717,0.30307053645546717
0.264102992643981,0.264102992643981
0.30307053645546717,0.30307053645546717
0.25977326555381586,0.25977326555381586
0.12555172575869689,0.12555172575869689
0.0017215309799741851,0.0017215309799741851
0.007783148906205366,0.007783148906205366
0.06320365566031902,0.06320365566031902
0.06666743733245112,0.06666743733245112
0.0008555855619411594,0.0008555855619411594
0.007783148906205366,0.007783148906205366
0.11602632616033359,0.11602632616033359
0.2441862480292214,0.2441862480292214
0.2840197372587406,0.2840197372587406
0.30307053645546717,0.30307053645546717
0.3541613161194157,0.3541613161194157
0.42083911330795865,0.42083911330795865
0.4390239670866522,0.4390239670866522
0.48058934715223744,0.48058934715223744
0.6035535965129271,0.6035535965129271
0.7758767347014992,0.7758767347014992
0.8728626215211981,0.8728626215211981
0.8936453115539907,0.8936453115539907
0.8875836936277596,0.8875836936277596
0.8936453115539907,0.8936453115539907
0.8590074948326697,0.8590074948326697
0.7758767347014992,0.7758767347014992
0.6555103215949086,0.6555103215949086
0.5394736355784832,0.5394736355784832
0.4035202049472981,0.4035202049472981
0.2441862480292214,0.2441862480292214
0.05367825606195573,0.05367825606195573
-0.11085137336431916,-0.11085137336431916
-0.22775400479877764,-0.22775400479877764
-0.2875042386430564,-0.2875042386430564
-0.3437906908152031,-0.3437906908152031
-0.406138760913581,-0.406138760913581
-0.4814760122824542,-0.4814760122824542
-0.5239073377660725,-0.5239073377660725
-0.5386284098726339,-0.5386284098726339
-0.5239073377660725,-0.5239073377660725
-0.5386284098726339,-0.5386284098726339
-0.5827916261923182,-0.5827916261923182
-0.6399440237824979,-0.6399440237824979
-0.642541860036597,-0.642541860036597
-0.60617215247921,-0.60617215247921
-0.5827916261923182,-0.5827916261923182
-0.6278207879300356,-0.6278207879300356
-0.7014261484628428,-0.7014261484628428
-0.7663720548153197,-0.7663720548153197
-0.8191947253153342,-0.8191947253153342
-0.9031914308645378,-0.9031914308645378
-0.9967135360121046,-0.9967135360121046
-1.0677210602908127,-1.0677210602908127
-1.0555978244383504,-1.0555978244383504
-0.9291697934055285,-0.9291697934055285
-0.642541860036597,-0.642541860036597
-0.2528664219217354,-0.2528664219217354
0.12555172575869689,0.12555172575869689
0.35242942528334964,0.35242942528334964
0.36195482488171293,0.36195482488171293
0.06060581940621994,0.06060581940621994
-0.5827916261923182,-0.5827916261923182
-1.4608602800778063,-1.4608602800778063
-2.2964976084796764,-2.2964976084796764
-2.9459566720044457,-2.9459566720044457
-3.4187628702504775,-3.4187628702504775
-3.727039439070235,-3.727039439070235
-3.7140502577997396,-3.7140502577997396
-3.3520850730619345,-3.3520850730619345
-2.8281880951519542,-2.8281880951519542
-2.3683710781764176,-2.3683710781764176
-1.9423259325041686,-1.9423259325041686
-1.479911079274533,-1.479911079274533
-1.0555978244383504,-1.0555978244383504
-0.8304520157497636,-0.8304520157497636
-0.7603104368890885,-0.7603104368890885
-0.7048899301349748,-0.7048899301349748
-0.5827916261923182,-0.5827916261923182
-0.4606933222496616,-0.4606933222496616
-0.3472544724873352,-0.3472544724873352
-0.23468156814304186,-0.23468156814304186
-0.11085137336431916,-0.11085137336431916
-0.03378223115937987,-0.03378223115937987
0.007783148906205366,0.007783148906205366
0.04761663813572455,0.04761663813572455
0.12555172575869689,0.12555172575869689
0.18876574127510776,0.18876574127510776
0.18443601418494263,0.18443601418494263
0.11256254448820148,0.11256254448820148
0.06666743733245112,0.06666743733245112
0.09870741779967307,0.09870741779967307
0.18443601418494263,0.18443601418494263
0.23466084843085813,0.23466084843085813
0.2441862480292214,0.2441862480292214
0.24851597511938653,0.24851597511938653
0.30307053645546717,0.30307053645546717
0.3680164428079441,0.3680164428079441
0.42083911330795865,0.42083911330795865
0.4424877487587843,0.4424877487587843
0.48058934715223744,0.48058934715223744
0.532546072234219,0.532546072234219
0.598357924004729,0.598357924004729
0.63299574072605,0.63299574072605
0.6572422124309747,0.6572422124309747
0.6762930116277013,0.6762930116277013
0.7169924462752535,0.7169924462752535
0.7498983721605085,0.7498983721605085
0.7758767347014992,0.7758767347014992
0.7741448438654331,0.7741448438654331
0.7758767347014992,0.7758767347014992
0.7854021342998625,0.7854021342998625
0.834761023127745,0.834761023127745
0.8953772023900568,0.8953772023900568
0.9525295999802365,0.9525295999802365
0.9802398533572934,0.9802398533572934
1.0122798338245154,1.0122798338245154
1.0443198142917371,1.0443198142917371
1.071164122250761,1.071164122250761
1.0373922509474731,1.0373922509474731
0.9525295999802365,0.9525295999802365
0.8434204773080752,0.8434204773080752
0.7758767347014992,0.7758767347014992
0.7395070271441122,0.7395070271441122
0.7169924462752535,0.7169924462752535
0.6624378849391729,0.6624378849391729
0.598357924004729,0.598357924004729
0.5134952730374924,0.5134952730374924
0.42083911330795865,0.42083911330795865
0.3151937723079295,0.3151937723079295
0.2441862480292214,0.2441862480292214
0.18530195960297566,0.18530195960297566
0.12555172575869689,0.12555172575869689
0.05887392857015389,0.05887392857015389
0.06666743733245112,0.06666743733245112
0.11862416241443266,0.11862416241443266
0.12555172575869689,0.12555172575869689
0.01297882141440352,0.01297882141440352
-0.11085137336431916,-0.11085137336431916
-0.16973566179056493,-0.16973566179056493
-0.16973566179056493,-0.16973566179056493
-0.18359078847909333,-0.18359078847909333
-0.16973566179056493,-0.16973566179056493
-0.11518110045448429,-0.11518110045448429
-0.05110113952004039,-0.05110113952004039
-0.03724601283151197,-0.03724601283151197
0.007783148906205366,0.007783148906205366
0.13074739826689502,0.13074739826689502
0.30307053645546717,0.30307053645546717
0.43123045832435497,0.43123045832435497
0.5394736355784832,0.5394736355784832
0.6563762670129417,0.6563762670129417
0.7758767347014992,0.7758767347014992
0.8416885864720092,0.8416885864720092
0.8936453115539907,0.8936453115539907
0.968982562922864,0.968982562922864
1.071164122250761,1.071164122250761
1.1309143560950399,1.1309143560950399
1.1300484106770068,1.1300484106770068
1.0321965784392748,1.0321965784392748
0.834761023127745,0.834761023127745
0.5559265985211107,0.5559265985211107
0.30307053645546717,0.30307053645546717
0.12381983492263082,0.12381983492263082
0.007783148906205366,0.007783148906205366
-0.09699624667579075,-0.09699624667579075
-0.16973566179056493,-0.16973566179056493
-0.2234242777086125,-0.2234242777086125
-0.2875042386430564,-0.2875042386430564
-0.39314957964308556,-0.39314957964308556
-0.4650230493398267,-0.4650230493398267
-0.47974412144638817,-0.47974412144638817
-0.4650230493398267,-0.4650230493398267
-0.49533113897098263,-0.49533113897098263
-0.5239073377660725,-0.5239073377660725
-0.5135159927496762,-0.5135159927496762
-0.4650230493398267,-0.4650230493398267
-0.4485700863971992,-0.4485700863971992
-0.4650230493398267,-0.4650230493398267
-0.49706302980704864,-0.49706302980704864
-0.5239073377660725,-0.5239073377660725
-0.5724002811759219,-0.5724002811759219
-0.642541860036597,-0.642541860036597
-0.7499190918726922,-0.7499190918726922
-0.878944959159613,-0.878944959159613
-1.007970826446534,-1.007970826446534
-1.0555978244383504,-1.0555978244383504
-0.979394627651444,-0.979394627651444
-0.7603104368890885,-0.7603104368890885
-0.45549764974146345,-0.45549764974146345
-0.11085137336431916,-0.11085137336431916
0.18183817793084356,0.18183817793084356
0.30307053645546717,0.30307053645546717
0.06406960107835204,0.06406960107835204
-0.5827916261923182,-0.5827916261923182
-1.4625921709138725,-1.4625921709138725
-2.2376133200534305,-2.2376133200534305
-2.784890824250303,-2.784890824250303
-3.182359771127462,-3.182359771127462
-3.474183377004591,-3.474183377004591
-3.4776471586767235,-3.4776471586767235
-3.1243414281192488,-3.1243414281192488
-2.591784996028938,-2.591784996028938
-2.12590636112717,-2.12590636112717
-1.7059228333811527,-1.7059228333811527
-1.2521674343318472,-1.2521674343318472
-0.8191947253153342,-0.8191947253153342
-0.5672046086677237,-0.5672046086677237
-0.4650230493398267,-0.4650230493398267
-0.39314957964308556,-0.39314957964308556
-0.2875042386430564,-0.2875042386430564
-0.21476482352828227,-0.21476482352828227
-0.16973566179056493,-0.16973566179056493
-0.12643839088891362,-0.12643839088891362
-0.05110113952004039,-0.05110113952004039
0.009515039742271417,0.009515039742271417
0.06666743733245112,0.06666743733245112
0.12035605325049872,0.12035605325049872
0.18443601418494263,0.18443601418494263
0.2242695034144618,0.2242695034144618
0.2441862480292214,0.2441862480292214
0.2571754292997168,0.2571754292997168
0.30307053645546717,0.30307053645546717
0.36628455197187804,0.36628455197187804
0.42083911330795865,0.42083911330795865
0.4294985674882889,0.4294985674882889
0.42083911330795865,0.42083911330795865
0.4121796591276284,0.4121796591276284
0.42083911330795865,0.42083911330795865
0.41650938621779354,0.41650938621779354
0.42083911330795865,0.42083911330795865
0.4494153121030485,0.4494153121030485
0.5394736355784832,0.5394736355784832
0.6572422124309747,0.6572422124309747
0.7758767347014992,0.7758767347014992
0.8321631868736459,0.8321631868736459
0.834761023127745,0.834761023127745
0.8131123876769194,0.8131123876769194
0.834761023127745,0.834761023127745
0.8572756039966036,0.8572756039966036
0.834761023127745,0.834761023127745
0.768083225939202,0.768083225939202
0.7758767347014992,0.7758767347014992
0.865935058176934,0.865935058176934
0.9525295999802365,0.9525295999802365
0.9525295999802365,0.9525295999802365
0.9525295999802365,0.9525295999802365
1.005352270480251,1.005352270480251
1.071164122250761,1.071164122250761
1.071164122250761,1.071164122250761
1.071164122250761,1.071164122250761
1.104070048136016,1.104070048136016
1.1300484106770068,1.1300484106770068
1.0746279039228932,1.0746279039228932
1.0122798338245154,1.0122798338245154
0.9828376896113924,0.9828376896113924
0.9525295999802365,0.9525295999802365
0.8546777677425046,0.8546777677425046
0.7758767347014992,0.7758767347014992
0.7663513351031359,0.7663513351031359
0.7758767347014992,0.7758767347014992
0.667633557447371,0.667633557447371
0.48058934715223744,0.48058934715223744
0.3273170081603919,0.3273170081603919
0.30307053645546717,0.30307053645546717
0.3377083531767882,0.3377083531767882
0.36195482488171293,0.36195482488171293
0.3203894448161277,0.3203894448161277
0.2441862480292214,0.2441862480292214
0.12728361659476292,0.12728361659476292
0.007783148906205366,0.007783148906205366
-0.07794544747906419,-0.07794544747906419
-0.05110113952004039,-0.05110113952004039
0.04328691104555942,0.04328691104555942
0.12555172575869689,0.12555172575869689
0.14200468870132435,0.14200468870132435
0.18443601418494263,0.18443601418494263
0.2909473006030048,0.2909473006030048
0.42083911330795865,0.42083911330795865
0.5031039280210962,0.5031039280210962
0.598357924004729,0.598357924004729
0.7386410817260791,0.7386410817260791
0.8936453115539907,0.8936453115539907
0.9897652529556566,0.9897652529556566
1.071164122250761,1.071164122250761
1.1516970461278324,1.1516970461278324
1.1889326991032525,1.1889326991032525
1.10233815729995,1.10233815729995
0.9525295999802365,0.9525295999802365
0.8200399510211835,0.8200399510211835
0.7169924462752535,0.7169924462752535
0.5438033626686484,0.5438033626686484
0.30307053645546717,0.30307053645546717
0.08398634569311164,0.08398634569311164
0.007783148906205366,0.007783148906205366
0.04068907479146035,0.04068907479146035
0.06666743733245112,0.06666743733245112
-0.0346481765774129,-0.0346481765774129
-0.22861995021681067,-0.22861995021681067
-0.4234576692742415,-0.4234576692742415
-0.5239073377660725,-0.5239073377660725
-0.5654727178316578,-0.5654727178316578
-0.5827916261923182,-0.5827916261923182
-0.5888532441185494,-0.5888532441185494
-0.5239073377660725,-0.5239073377660725
-0.4347149597086708,-0.4347149597086708
-0.406138760913581,-0.406138760913581
-0.4702187218480249,-0.4702187218480249
-0.5239073377660725,-0.5239073377660725
-0.5377624644546009,-0.5377624644546009
-0.5827916261923182,-0.5827916261923182
-0.707487766389074,-0.707487766389074
-0.8191947253153342,-0.8191947253153342
-0.911850885044868,-0.911850885044868
-1.0555978244383504,-1.0555978244383504
-1.2071382725941298,-1.2071382725941298
-1.114482112864596,-1.114482112864596
-0.7438574739464611,-0.7438574739464611
-0.3472544724873352,-0.3472544724873352
-0.1221086637987485,-0.1221086637987485
0.06666743733245112,0.06666743733245112
0.2441862480292214,0.2441862480292214
0.12555172575869689,0.12555172575869689
-0.507454374823445,-0.507454374823445
-1.350885211987612,-1.350885211987612
-1.9942826575861503,-1.9942826575861503
-2.414266185332168,-2.414266185332168
-2.9052572373568935,-2.9052572373568935
-3.4776471586767235,-3.4776471586767235
-3.824025325889934,-3.824025325889934
-3.6551659693734937,-3.6551659693734937
-3.05593174009464,-3.05593174009464
-2.2964976084796764,-2.2964976084796764
-1.6401109816106427,-1.6401109816106427
-1.1742323467088749,-1.1742323467088749
-0.9101189942088019,-0.9101189942088019
-0.7603104368890885,-0.7603104368890885
-0.6105018795693751,-0.6105018795693751
-0.3472544724873352,-0.3472544724873352
-0.044173576175776184,-0.044173576175776184
0.12555172575869689,0.12555172575869689
0.05367825606195573,0.05367825606195573
-0.11085137336431916,-0.11085137336431916
-0.20090969683975385,-0.20090969683975385
-0.16973566179056493,-0.16973566179056493
-0.10478975543808798,-0.10478975543808798
0.007783148906205366,0.007783148906205366
0.19569330461937195,0.19569330461937195
0.42083911330795865,0.42083911330795865
0.535143908488318,0.535143908488318
0.48058934715223744,0.48058934715223744
0.3151937723079295,0.3151937723079295
0.18443601418494263,0.18443601418494263
0.1601895424800179,0.1601895424800179
0.2441862480292214,0.2441862480292214
0.3506975344472836,0.3506975344472836
0.42083911330795865,0.42083911330795865
0.4251688403981238,0.4251688403981238
0.42083911330795865,0.42083911330795865
0.43296234916042103,0.43296234916042103
0.48058934715223744,0.48058934715223744
0.5299482359801199,0.5299482359801199
0.598357924004729,0.598357924004729
0.6762930116277013,0.6762930116277013
0.7758767347014992,0.7758767347014992
0.865935058176934,0.865935058176934
0.9525295999802365,0.9525295999802365
1.0192073971687794,1.0192073971687794
1.1300484106770068,1.1300484106770068
1.3603898918737916,1.3603898918737916
1.7206231857755303,1.7206231857755303
1.9561603394805134,1.9561603394805134
1.780373419619809,1.780373419619809
1.1863348628491535,1.1863348628491535
0.598357924004729,0.598357924004729
0.3948607507669679,0.3948607507669679
0.598357924004729,0.598357924004729
0.9126961107507173,0.9126961107507173
1.1300484106770068,1.1300484106770068
1.1897986445212856,1.1897986445212856
1.1300484106770068,1.1300484106770068
0.9577252724884346,0.9577252724884346
0.7758767347014992,0.7758767347014992
0.6970757016604939,0.6970757016604939
0.7758767347014992,0.7758767347014992
0.867666949013,0.867666949013
0.834761023127745,0.834761023127745
0.6719632845375362,0.6719632845375362
0.5394736355784832,0.5394736355784832
0.4580747662833788,0.4580747662833788
0.36195482488171293,0.36195482488171293
0.264102992643981,0.264102992643981
0.36195482488171293,0.36195482488171293
0.631263849889984,0.631263849889984
0.7758767347014992,0.7758767347014992
0.5412055264145492,0.5412055264145492
0.12555172575869689,0.12555172575869689
-0.1558805351020365,-0.1558805351020365
-0.16973566179056493,-0.16973566179056493
0.013844766832436546,0.013844766832436546
0.36195482488171293,0.36195482488171293
0.6936119199883618,0.6936119199883618
0.7169924462752535,0.7169924462752535
0.29527702769316994,0.29527702769316994
-0.22861995021681067,-0.22861995021681067
-0.44943603181523223,-0.44943603181523223
-0.2875042386430564,-0.2875042386430564
-0.019061159052818435,-0.019061159052818435
0.18443601418494263,0.18443601418494263
0.32645106274235886,0.32645106274235886
0.48058934715223744,0.48058934715223744
0.6139449415293234,0.6139449415293234
0.7169924462752535,0.7169924462752535
0.7931956430621597,0.7931956430621597
0.8936453115539907,0.8936453115539907
0.9785079625212273,0.9785079625212273
1.0122798338245154,1.0122798338245154
0.9655187812507319,0.9655187812507319
0.8936453115539907,0.8936453115539907
0.8157102239310184,0.8157102239310184
0.7169924462752535,0.7169924462752535
0.5342779630702851,0.5342779630702851
0.30307053645546717,0.30307053645546717
0.10043930863573912,0.10043930863573912
0.007783148906205366,0.007783148906205366
-0.03551412199544592,-0.03551412199544592
-0.11085137336431916,-0.11085137336431916
-0.24507291315943816,-0.24507291315943816
-0.3472544724873352,-0.3472544724873352
-0.3706349987742269,-0.3706349987742269
-0.2875042386430564,-0.2875042386430564
-0.07361572038889906,-0.07361572038889906
0.30307053645546717,0.30307053645546717
0.6295319590539179,0.6295319590539179
0.598357924004729,0.598357924004729
0.12295388950459779,0.12295388950459779
-0.4650230493398267,-0.4650230493398267
-0.8278541794956645,-0.8278541794956645
-0.9378292475858588,-0.9378292475858588
-0.9932497543399724,-0.9932497543399724
-1.0555978244383504,-1.0555978244383504
-1.0729167327990108,-1.0729167327990108
-1.0555978244383504,-1.0555978244383504
-1.1612431654383795,-1.1612431654383795
-1.4106354458318908,-1.4106354458318908
-1.6141326190696519,-1.6141326190696519
-1.5284040226843825,-1.5284040226843825
-1.1950150367416674,-1.1950150367416674
-0.8191947253153342,-0.8191947253153342
-0.4910014118808175,-0.4910014118808175
-0.11085137336431916,-0.11085137336431916
0.17750845084067843,0.17750845084067843
0.007783148906205366,0.007783148906205366
-0.7542488189628573,-0.7542488189628573
-1.7059228333811527,-1.7059228333811527
-2.4748823645944795,-2.4748823645944795
-3.06459119427497,-3.06459119427497
-3.5841584450947854,-3.5841584450947854
-3.832684780070264,-3.832684780070264
-3.662959478135791,-3.662959478135791
-3.2421100049717406,-3.2421100049717406
-2.770169752143741,-2.770169752143741
-2.1189787977829058,-2.1189787977829058
-1.2582290522580784,-1.2582290522580784
-0.5827916261923182,-0.5827916261923182
-0.5516175911431292,-0.5516175911431292
-0.9967135360121046,-0.9967135360121046
-1.3283706311187535,-1.3283706311187535
-1.1742323467088749,-1.1742323467088749
-0.7170131659874373,-0.7170131659874373
-0.2875042386430564,-0.2875042386430564
-0.03551412199544592,-0.03551412199544592
0.12555172575869689,0.12555172575869689
0.2173419400701976,0.2173419400701976
0.18443601418494263,0.18443601418494263
-0.028586558651181718,-0.028586558651181718
-0.2875042386430564,-0.2875042386430564
-0.4303852326185057,-0.4303852326185057
-0.406138760913581,-0.406138760913581
-0.31521449202011326,-0.31521449202011326
-0.22861995021681067,-0.22861995021681067
-0.16627188011843283,-0.16627188011843283
-0.11085137336431916,-0.11085137336431916
-0.06322437537250275,-0.06322437537250275
0.007783148906205366,0.007783148906205366
0.06147176482425296,0.06147176482425296
0.06666743733245112,0.06666743733245112
0.04675069271769153,0.04675069271769153
0.12555172575869689,0.12555172575869689
0.2701646105702122,0.2701646105702122
0.36195482488171293,0.36195482488171293
0.38793318742270366,0.38793318742270366
0.5394736355784832,0.5394736355784832
0.8105145514228203,0.8105145514228203
0.9525295999802365,0.9525295999802365
0.7871340251359286,0.7871340251359286
0.5394736355784832,0.5394736355784832
0.4632704387915769,0.4632704387915769
0.5394736355784832,0.5394736355784832
0.5602563256112758,0.5602563256112758
0.5394736355784832,0.5394736355784832
0.5888325244063657,0.5888325244063657
0.7169924462752535,0.7169924462752535
0.7845361888818295,0.7845361888818295
0.7758767347014992,0.7758767347014992
0.7533621538326406,0.7533621538326406
0.7758767347014992,0.7758767347014992
0.8113804968408533,0.8113804968408533
0.8936453115539907,0.8936453115539907
1.0616387226523978,1.0616387226523978
1.307567221373777,1.307567221373777
1.4599736149475897,1.4599736149475897
1.3664515098000227,1.3664515098000227
0.9949609254638547,0.9949609254638547
0.5394736355784832,0.5394736355784832
0.20348681338166918,0.20348681338166918
0.12555172575869689,0.12555172575869689
0.29008135518497175,0.29008135518497175
0.598357924004729,0.598357924004729
0.7905978068080607,0.7905978068080607
0.6572422124309747,0.6572422124309747
0.2268673396685609,0.2268673396685609
-0.16973566179056493,-0.16973566179056493
-0.31867827369224533,-0.31867827369224533
-0.2875042386430564,-0.2875042386430564
-0.29529774740535364,-0.29529774740535364
-0.3472544724873352,-0.3472544724873352
-0.3515841995775003,-0.3515841995775003
-0.2875042386430564,-0.2875042386430564
-0.27884478446272615,-0.27884478446272615
-0.3472544724873352,-0.3472544724873352
-0.38881985255292045,-0.38881985255292045
-0.2875042386430564,-0.2875042386430564
-0.11171731878235219,-0.11171731878235219
0.007783148906205366,0.007783148906205366
0.015576657668502598,0.015576657668502598
0.007783148906205366,0.007783148906205366
0.0493485289717906,0.0493485289717906
0.12555172575869689,0.12555172575869689
0.19742519545543802,0.19742519545543802
0.30307053645546717,0.30307053645546717
0.41391154996369445,0.41391154996369445
0.42083911330795865,0.42083911330795865
0.2337949030128251,0.2337949030128251
-0.05110113952004039,-0.05110113952004039
-0.3325334003807738,-0.3325334003807738
-0.642541860036597,-0.642541860036597
-1.1101523857744309,-1.1101523857744309
-1.7059228333811527,-1.7059228333811527
-2.2653235734304875,-2.2653235734304875
-2.650669284455184,-2.650669284455184
-2.9147826369552567,-2.9147826369552567
-3.182359771127462,-3.182359771127462
-3.5425930650292003,-3.5425930650292003
-3.89156906849651,-3.89156906849651
-4.05176897083262,-4.05176897083262
-3.89156906849651,-3.89156906849651
-3.533067665430837,-3.533067665430837
-3.182359771127462,-3.182359771127462
-2.9745328707995355,-2.9745328707995355
-2.8281880951519542,-2.8281880951519542
-2.6783795378322406,-2.6783795378322406
-2.532900707602692,-2.532900707602692
-2.4670888558321824,-2.4670888558321824
-2.414266185332168,-2.414266185332168
-2.295631663061643,-2.295631663061643
-2.1189787977829058,-2.1189787977829058
-2.087804762733717,-2.087804762733717
-2.2964976084796764,-2.2964976084796764
-2.58658932352074,-2.58658932352074
-2.591784996028938,-2.591784996028938
-2.152750669086194,-2.152750669086194
-1.4106354458318908,-1.4106354458318908
-0.6659223863234887,-0.6659223863234887
-0.05110113952004039,-0.05110113952004039
0.4217050587259917,0.4217050587259917
0.7758767347014992,0.7758767347014992
0.9767760716851612,0.9767760716851612
1.071164122250761,1.071164122250761
1.137841919439304,1.137841919439304
1.2486829329475313,1.2486829329475313
1.3534623285295275,1.3534623285295275
1.4253357982262687,1.4253357982262687
1.4669011782918537,1.4669011782918537
1.5439703204967932,1.5439703204967932
1.6366264802263268,1.6366264802263268
1.7206231857755303,1.7206231857755303
1.7976923279804697,1.7976923279804697
1.9570262848985465,1.9570262848985465
2.1865018206772984,2.1865018206772984
2.370948194718333,2.370948194718333
2.373546030972432,2.373546030972432
2.252313672447808,2.252313672447808
2.1553277856281094,2.1553277856281094
2.1934293840215626,2.1934293840215626
2.308600124619955,2.308600124619955
2.4298324831445783,2.4298324831445783
2.4999740620052537,2.4999740620052537
2.54760105999707,2.54760105999707
2.5597242958495325,2.5597242958495325
2.54760105999707,2.54760105999707
2.5060356799314847,2.5060356799314847
2.4887167715708243,2.4887167715708243
2.489582716988857,2.489582716988857
2.4887167715708243,2.4887167715708243
2.422038974382281,2.422038974382281
2.312063906292087,2.312063906292087
2.1813061481691003,2.1813061481691003
2.0756608071690708,2.0756608071690708
1.9622219574067445,1.9622219574067445
1.8392577080460548,1.8392577080460548
1.6894491507263414,1.6894491507263414
1.5439703204967932,1.5439703204967932
1.3725131277262541,1.3725131277262541
1.1889326991032525,1.1889326991032525
1.007084161316317,1.007084161316317
0.8936453115539907,0.8936453115539907
0.8148442785129854,0.8148442785129854
0.7169924462752535,0.7169924462752535
0.5559265985211107,0.5559265985211107
0.42083911330795865,0.42083911330795865
0.3437699711030194,0.3437699711030194
0.30307053645546717,0.30307053645546717
0.21820788548823064,0.21820788548823064
0.12555172575869689,0.12555172575869689
0.05194636522588968,0.05194636522588968
0.007783148906205366,0.007783148906205366
-0.061492484536436694,-0.061492484536436694
-0.11085137336431916,-0.11085137336431916
-0.09613030125775773,-0.09613030125775773
0.007783148906205366,0.007783148906205366
0.1030371448898382,0.1030371448898382
0.12555172575869689,0.12555172575869689
0.03376151144719614,0.03376151144719614
-0.11085137336431916,-0.11085137336431916
-0.2597939852659996,-0.2597939852659996
-0.3472544724873352,-0.3472544724873352
-0.37583067128242503,-0.37583067128242503
-0.3472544724873352,-0.3472544724873352
-0.31175071034798113,-0.31175071034798113
-0.2875042386430564,-0.2875042386430564
-0.2944318019873206,-0.2944318019873206
-0.2875042386430564,-0.2875042386430564
-0.26498965777419775,-0.26498965777419775
-0.22861995021681067,-0.22861995021681067
-0.2225583322905795,-0.2225583322905795
-0.22861995021681067,-0.22861995021681067
-0.24074318606927303,-0.24074318606927303
-0.22861995021681067,-0.22861995021681067
-0.206105369347952,-0.206105369347952
-0.16973566179056493,-0.16973566179056493
-0.17406538888073006,-0.17406538888073006
-0.22861995021681067,-0.22861995021681067
-0.29876152907748577,-0.29876152907748577
-0.2875042386430564,-0.2875042386430564
-0.23468156814304186,-0.23468156814304186
-0.22861995021681067,-0.22861995021681067
-0.29356585656928763,-0.29356585656928763
-0.2875042386430564,-0.2875042386430564
-0.18618862473319242,-0.18618862473319242
-0.11085137336431916,-0.11085137336431916
-0.1827248430610603,-0.1827248430610603
-0.2875042386430564,-0.2875042386430564
-0.2996274744955188,-0.2996274744955188
-0.22861995021681067,-0.22861995021681067
-0.1922502426594236,-0.1922502426594236
-0.16973566179056493,-0.16973566179056493
-0.10305786460202193,-0.10305786460202193
0.007783148906205366,0.007783148906205366
0.07792472776688046,0.07792472776688046
0.12555172575869689,0.12555172575869689
0.20868248588986735,0.20868248588986735
0.36195482488171293,0.36195482488171293
0.5212887817997897,0.5212887817997897
0.6572422124309747,0.6572422124309747
0.7533621538326406,0.7533621538326406
0.834761023127745,0.834761023127745
0.8815220757015284,0.8815220757015284
0.8936453115539907,0.8936453115539907
0.8373588593818441,0.8373588593818441
0.7169924462752535,0.7169924462752535
0.5386076901604502,0.5386076901604502
0.36195482488171293,0.36195482488171293
0.19829114087347105,0.19829114087347105
0.06666743733245112,0.06666743733245112
-0.04244168533971013,-0.04244168533971013
-0.11085137336431916,-0.11085137336431916
-0.16627188011843283,-0.16627188011843283
-0.22861995021681067,-0.22861995021681067
-0.32214205536437746,-0.32214205536437746
-0.406138760913581,-0.406138760913581
-0.4771462851922891,-0.4771462851922891
-0.5239073377660725,-0.5239073377660725
-0.5594110999054265,-0.5594110999054265
-0.5239073377660725,-0.5239073377660725
-0.41566416051194427,-0.41566416051194427
-0.2875042386430564,-0.2875042386430564
-0.27884478446272615,-0.27884478446272615
-0.406138760913581,-0.406138760913581
-0.5472878640529641,-0.5472878640529641
-0.5239073377660725,-0.5239073377660725
-0.3706349987742269,-0.3706349987742269
-0.2875042386430564,-0.2875042386430564
-0.4303852326185057,-0.4303852326185057
-0.7014261484628428,-0.7014261484628428
-0.9386951930038918,-0.9386951930038918
-1.0555978244383504,-1.0555978244383504
-1.081576186979341,-1.081576186979341
-0.9967135360121046,-0.9967135360121046
-0.7897525811022114,-0.7897525811022114
-0.4650230493398267,-0.4650230493398267
-0.08573895624136142,-0.08573895624136142
0.30307053645546717,0.30307053645546717
0.5697817252096391,0.5697817252096391
0.5394736355784832,0.5394736355784832
0.07446094609474835,0.07446094609474835
-0.7014261484628428,-0.7014261484628428
-1.5093532234876559,-1.5093532234876559
-2.1189787977829058,-2.1189787977829058
-2.583991487266641,-2.583991487266641
-3.0057069058487245,-3.0057069058487245
-3.298396457143887,-3.298396457143887
-3.182359771127462,-3.182359771127462
-2.6316184852584574,-2.6316184852584574
-1.9423259325041686,-1.9423259325041686
-1.443541371717146,-1.443541371717146
-1.114482112864596,-1.114482112864596
-0.8269882340776314,-0.8269882340776314
-0.5827916261923182,-0.5827916261923182
-0.5039905931513129,-0.5039905931513129
-0.5239073377660725,-0.5239073377660725
-0.49273330271688354,-0.49273330271688354
-0.3472544724873352,-0.3472544724873352
-0.20177564225778688,-0.20177564225778688
-0.11085137336431916,-0.11085137336431916
-0.061492484536436694,-0.061492484536436694
0.007783148906205366,0.007783148906205366
0.07359500067671533,0.07359500067671533
0.12555172575869689,0.12555172575869689
0.13507712535706015,0.13507712535706015
0.12555172575869689,0.12555172575869689
0.10996470823410241,0.10996470823410241
0.12555172575869689,0.12555172575869689
0.1697149420783812,0.1697149420783812
0.2441862480292214,0.2441862480292214
0.3134618814718635,0.3134618814718635
0.36195482488171293,0.36195482488171293
0.3515634798653166,0.3515634798653166
0.30307053645546717,0.30307053645546717
0.24245435719315536,0.24245435719315536
0.2441862480292214,0.2441862480292214
0.32645106274235886,0.32645106274235886
0.48058934715223744,0.48058934715223744
0.5931622514965308,0.5931622514965308
0.598357924004729,0.598357924004729
0.4953104192587989,0.4953104192587989
0.42083911330795865,0.42083911330795865
0.4563428754473127,0.4563428754473127
0.598357924004729,0.598357924004729
0.7230540642014847,0.7230540642014847
0.7758767347014992,0.7758767347014992
0.7490324267424754,0.7490324267424754
0.7169924462752535,0.7169924462752535
0.69880759249656,0.69880759249656
0.7169924462752535,0.7169924462752535
0.7377751363080461,0.7377751363080461
0.7758767347014992,0.7758767347014992
0.8209058964392166,0.8209058964392166
0.8936453115539907,0.8936453115539907
0.9611890541605668,0.9611890541605668
1.0122798338245154,1.0122798338245154
1.0166095609146804,1.0166095609146804
1.0122798338245154,1.0122798338245154
1.0192073971687794,1.0192073971687794
1.071164122250761,1.071164122250761
1.103204102717983,1.103204102717983
1.071164122250761,1.071164122250761
0.9516636545622035,0.9516636545622035
0.834761023127745,0.834761023127745
0.769815116775268,0.769815116775268
0.7758767347014992,0.7758767347014992
0.7836702434637964,0.7836702434637964
0.7758767347014992,0.7758767347014992
0.7247859550375507,0.7247859550375507
0.6572422124309747,0.6572422124309747
0.5775752339719363,0.5775752339719363
0.5394736355784832,0.5394736355784832
0.5342779630702851,0.5342779630702851
0.5394736355784832,0.5394736355784832
0.4727958383899402,0.4727958383899402
0.36195482488171293,0.36195482488171293
0.28834946434890574,0.28834946434890574
0.36195482488171293,0.36195482488171293
0.5273503997260208,0.5273503997260208
0.6572422124309747,0.6572422124309747
0.634727631562116,0.634727631562116
0.5394736355784832,0.5394736355784832
0.498774200930931,0.498774200930931
0.598357924004729,0.598357924004729
0.7421048633982112,0.7421048633982112
0.834761023127745,0.834761023127745
0.8520799314884056,0.8520799314884056
0.8936453115539907,0.8936453115539907
0.9940949800458218,0.9940949800458218
1.1300484106770068,1.1300484106770068
1.2322299700049038,1.2322299700049038
1.307567221373777,1.307567221373777
1.3222882934803386,1.3222882934803386
1.2486829329475313,1.2486829329475313
1.071164122250761,1.071164122250761
0.8936453115539907,0.8936453115539907
0.7628875534310039,0.7628875534310039
0.6572422124309747,0.6572422124309747
0.5091655459473273,0.5091655459473273
0.36195482488171293,0.36195482488171293
0.2563094838816838,0.2563094838816838
0.18443601418494263,0.18443601418494263
0.07792472776688046,0.07792472776688046
-0.05110113952004039,-0.05110113952004039
-0.1792610613889282,-0.1792610613889282
-0.2875042386430564,-0.2875042386430564
-0.4139322696758782,-0.4139322696758782
-0.5239073377660725,-0.5239073377660725
-0.5923170257906815,-0.5923170257906815
-0.5827916261923182,-0.5827916261923182
-0.5368965190365679,-0.5368965190365679
-0.4650230493398267,-0.4650230493398267
-0.41566416051194427,-0.41566416051194427
-0.406138760913581,-0.406138760913581
-0.43904468679883596,-0.43904468679883596
-0.4650230493398267,-0.4650230493398267
-0.49966086606114773,-0.49966086606114773
-0.5827916261923182,-0.5827916261923182
-0.7178791114054702,-0.7178791114054702
-0.8191947253153342,-0.8191947253153342
-0.9083871033727359,-0.9083871033727359
-1.0555978244383504,-1.0555978244383504
-1.2175296176105261,-1.2175296176105261
-1.1742323467088749,-1.1742323467088749
-0.8884703587579763,-0.8884703587579763
-0.5239073377660725,-0.5239073377660725
-0.17752917055286216,-0.17752917055286216
0.2441862480292214,0.2441862480292214
0.5567925439391437,0.5567925439391437
0.30307053645546717,0.30307053645546717
-0.6693861679956208,-0.6693861679956208
-1.8236914102336441,-1.8236914102336441
-2.635948212348622,-2.635948212348622
-3.123475482701216,-3.123475482701216
-3.5443249558652665,-3.5443249558652665
-3.7738004916440184,-3.7738004916440184
-3.5798287180046207,-3.5798287180046207
-3.06459119427497,-3.06459119427497
-2.5744660876682777,-2.5744660876682777
-2.1778630862091517,-2.1778630862091517
-1.7422925409385397,-1.7422925409385397
-1.2331166351351206,-1.2331166351351206
-0.8235244524054994,-0.8235244524054994
-0.5827916261923182,-0.5827916261923182
-0.4537657589053974,-0.4537657589053974
-0.3472544724873352,-0.3472544724873352
-0.27884478446272615,-0.27884478446272615
-0.22861995021681067,-0.22861995021681067
-0.15328269884793744,-0.15328269884793744
0.007783148906205366,0.007783148906205366
0.17491061458657933,0.17491061458657933
0.2441862480292214,0.2441862480292214
0.15153008829968764,0.15153008829968764
0.007783148906205366,0.007783148906205366
-0.07101788413479998,-0.07101788413479998
-0.05110113952004039,-0.05110113952004039
-0.016463322798719357,-0.016463322798719357
0.007783148906205366,0.007783148906205366
0.05887392857015389,0.05887392857015389
0.18443601418494263,0.18443601418494263
0.3117299906357974,0.3117299906357974
0.36195482488171293,0.36195482488171293
0.3203894448161277,0.3203894448161277
0.30307053645546717,0.30307053645546717
0.365418606553845,0.365418606553845
0.48058934715223744,0.48058934715223744
0.5386076901604502,0.5386076901604502
0.5394736355784832,0.5394736355784832
0.535143908488318,0.535143908488318
0.598357924004729,0.598357924004729
0.6918800291522957,0.6918800291522957
0.7758767347014992,0.7758767347014992
0.8096486060047873,0.8096486060047873
0.834761023127745,0.834761023127745
0.8555437131605376,0.8555437131605376
0.8936453115539907,0.8936453115539907
0.9222215103490806,0.9222215103490806
0.9525295999802365,0.9525295999802365
0.9767760716851612,0.9767760716851612
1.0122798338245154,1.0122798338245154
1.0373922509474731,1.0373922509474731
1.071164122250761,1.071164122250761
1.1161932839884783,1.1161932839884783
1.1889326991032525,1.1889326991032525
1.2244364612426066,1.2244364612426066
1.1889326991032525,1.1889326991032525
1.0884830306114215,1.0884830306114215
1.0122798338245154,1.0122798338245154
0.9724463445949961,0.9724463445949961
0.9525295999802365,0.9525295999802365
0.9256852920212127,0.9256852920212127
0.9525295999802365,0.9525295999802365
1.0148776700786144,1.0148776700786144
1.0122798338245154,1.0122798338245154
0.8070507697506881,0.8070507697506881
0.48058934715223744,0.48058934715223744
0.23812463010299023,0.23812463010299023
0.2441862480292214,0.2441862480292214
0.35935698862761384,0.35935698862761384
0.36195482488171293,0.36195482488171293
0.17837439625871143,0.17837439625871143
0.007783148906205366,0.007783148906205366
-0.028586558651181718,-0.028586558651181718
0.007783148906205366,0.007783148906205366
-0.050235194102007365,-0.050235194102007365
-0.16973566179056493,-0.16973566179056493
-0.24853669483157026,-0.24853669483157026
-0.22861995021681067,-0.22861995021681067
-0.19571402433155569,-0.19571402433155569
-0.16973566179056493,-0.16973566179056493
-0.1489529717577723,-0.1489529717577723
-0.11085137336431916,-0.11085137336431916
-0.10305786460202193,-0.10305786460202193
-0.11085137336431916,-0.11085137336431916
-0.09439841042169168,-0.09439841042169168
0.007783148906205366,0.007783148906205366
0.14027279786525831,0.14027279786525831
0.2441862480292214,0.2441862480292214
0.2918132460210378,0.2918132460210378
0.36195482488171293,0.36195482488171293
0.4727958383899402,0.4727958383899402
0.598357924004729,0.598357924004729
0.6858184112260646,0.6858184112260646
0.7758767347014992,0.7758767347014992
0.8607393856687358,0.8607393856687358
0.8936453115539907,0.8936453115539907
0.8217718418572496,0.8217718418572496
0.7169924462752535,0.7169924462752535
0.6139449415293234,0.6139449415293234
0.48058934715223744,0.48058934715223744
0.25024786595545256,0.25024786595545256
0.007783148906205366,0.007783148906205366
-0.1428913538315411,-0.1428913538315411
-0.16973566179056493,-0.16973566179056493
-0.17752917055286216,-0.17752917055286216
-0.22861995021681067,-0.22861995021681067
-0.3264717824545426,-0.3264717824545426
-0.406138760913581,-0.406138760913581
-0.4563635951594965,-0.4563635951594965
-0.4650230493398267,-0.4650230493398267
-0.46935277642999185,-0.46935277642999185
-0.4650230493398267,-0.4650230493398267
-0.46935277642999185,-0.46935277642999185
-0.4650230493398267,-0.4650230493398267
-0.4840738485365533,-0.4840738485365533
-0.5239073377660725,-0.5239073377660725
-0.5585451544873935,-0.5585451544873935
-0.5239073377660725,-0.5239073377660725
-0.4632911585037607,-0.4632911585037607
-0.4650230493398267,-0.4650230493398267
-0.5715343357578889,-0.5715343357578889
-0.7014261484628428,-0.7014261484628428
-0.8183287798973012,-0.8183287798973012
-0.9378292475858588,-0.9378292475858588
-1.044340534003921,-1.044340534003921
-0.9967135360121046,-0.9967135360121046
-0.7412596376923619,-0.7412596376923619
-0.3472544724873352,-0.3472544724873352
0.06666743733245112,0.06666743733245112
0.48058934715223744,0.48058934715223744
0.7758767347014992,0.7758767347014992
0.7169924462752535,0.7169924462752535
0.11862416241443266,0.11862416241443266
-0.8191947253153342,-0.8191947253153342
-1.7067887787991858,-1.7067887787991858
-2.2964976084796764,-2.2964976084796764
-2.713017354553562,-2.713017354553562
-3.123475482701216,-3.123475482701216
-3.470719595332459,-3.470719595332459
-3.4776471586767235,-3.4776471586767235
-3.0741165938733332,-3.0741165938733332
-2.4740164191764467,-2.4740164191764467
-1.9561810591926971,-1.9561810591926971
-1.5284040226843825,-1.5284040226843825
-1.0893696957416383,-1.0893696957416383
-0.642541860036597,-0.642541860036597
-0.35764581750373153,-0.35764581750373153
-0.2875042386430564,-0.2875042386430564
-0.3377290728889719,-0.3377290728889719
-0.3472544724873352,-0.3472544724873352
-0.2857723478069904,-0.2857723478069904
-0.16973566179056493,-0.16973566179056493
-0.053698975774139464,-0.053698975774139464
0.06666743733245112,0.06666743733245112
0.16538521498821607,0.16538521498821607
0.2441862480292214,0.2441862480292214
0.264102992643981,0.264102992643981
0.2441862480292214,0.2441862480292214
0.21907383090626364,0.21907383090626364
0.2441862480292214,0.2441862480292214
0.28575162809480664,0.28575162809480664
0.30307053645546717,0.30307053645546717
0.2866175735128397,0.2866175735128397
0.30307053645546717,0.30307053645546717
0.35675915237351474,0.35675915237351474
0.42083911330795865,0.42083911330795865
0.4606726025374778,0.4606726025374778
0.5394736355784832,0.5394736355784832
0.6633038303572059,0.6633038303572059
0.7758767347014992,0.7758767347014992
0.7620216080129708,0.7620216080129708
0.6572422124309747,0.6572422124309747
0.568049834373573,0.568049834373573
0.598357924004729,0.598357924004729
0.6936119199883618,0.6936119199883618
0.7758767347014992,0.7758767347014992
0.7836702434637964,0.7836702434637964
0.7758767347014992,0.7758767347014992
0.7879999705539616,0.7879999705539616
0.834761023127745,0.834761023127745
0.8512139860703725,0.8512139860703725
0.834761023127745,0.834761023127745
0.8070507697506881,0.8070507697506881
0.834761023127745,0.834761023127745
0.8945112569720237,0.8945112569720237
0.9525295999802365,0.9525295999802365
0.9603231087425337,0.9603231087425337
0.9525295999802365,0.9525295999802365
0.9438701457999062,0.9438701457999062
0.9525295999802365,0.9525295999802365
0.9507977091441705,0.9507977091441705
0.9525295999802365,0.9525295999802365
0.9326128553654769,0.9326128553654769
0.8936453115539907,0.8936453115539907
0.8235037326933157,0.8235037326933157
0.7758767347014992,0.7758767347014992
0.7455686450703434,0.7455686450703434
0.7169924462752535,0.7169924462752535
0.633861686144083,0.633861686144083
0.5394736355784832,0.5394736355784832
0.45980665711944485,0.45980665711944485
0.42083911330795865,0.42083911330795865
0.3680164428079441,0.3680164428079441
0.30307053645546717,0.30307053645546717
0.2268673396685609,0.2268673396685609
0.18443601418494263,0.18443601418494263
0.15239603371772067,0.15239603371772067
0.12555172575869689,0.12555172575869689
0.07879067318491348,0.07879067318491348
0.06666743733245112,0.06666743733245112
0.11602632616033359,0.11602632616033359
0.2441862480292214,0.2441862480292214
0.36368671571777894,0.36368671571777894
0.42083911330795865,0.42083911330795865
0.39053102367680276,0.39053102367680276
0.36195482488171293,0.36195482488171293
0.40265425952926515,0.40265425952926515
0.5394736355784832,0.5394736355784832
0.6806227387178664,0.6806227387178664
0.7758767347014992,0.7758767347014992
0.835626968545778,0.835626968545778
0.9525295999802365,0.9525295999802365
1.099740321045851,1.099740321045851
1.1889326991032525,1.1889326991032525
1.1508311007097993,1.1508311007097993
1.071164122250761,1.071164122250761
1.0114138884064823,1.0114138884064823
0.9525295999802365,0.9525295999802365
0.8061848243326551,0.8061848243326551
0.598357924004729,0.598357924004729
0.3913969690948358,0.3913969690948358
0.2441862480292214,0.2441862480292214
0.13421117993902712,0.13421117993902712
0.06666743733245112,0.06666743733245112
0.011246930578337469,0.011246930578337469
-0.05110113952004039,-0.05110113952004039
-0.14981891717580534,-0.14981891717580534
-0.22861995021681067,-0.22861995021681067
-0.272783166536495,-0.272783166536495
-0.2875042386430564,-0.2875042386430564
-0.3230080007824105,-0.3230080007824105
-0.3472544724873352,-0.3472544724873352
-0.35504798124963244,-0.35504798124963244
-0.3472544724873352,-0.3472544724873352
-0.35071825415946734,-0.35071825415946734
-0.3472544724873352,-0.3472544724873352
-0.35851176292176457,-0.35851176292176457
-0.406138760913581,-0.406138760913581
-0.47195061268409094,-0.47195061268409094
-0.4650230493398267,-0.4650230493398267
-0.40267497924144885,-0.40267497924144885
-0.406138760913581,-0.406138760913581
-0.5966467528808467,-0.5966467528808467
-0.878944959159613,-0.878944959159613
-1.047804315676053,-1.047804315676053
-0.9378292475858588,-0.9378292475858588
-0.5992445891349457,-0.5992445891349457
-0.16973566179056493,-0.16973566179056493
0.19049763211117382,0.19049763211117382
0.36195482488171293,0.36195482488171293
0.16451926957018304,0.16451926957018304
-0.4650230493398267,-0.4650230493398267
-1.348287375733513,-1.348287375733513
-2.1189787977829058,-2.1189787977829058
-2.654133066127316,-2.654133066127316
-3.06459119427497,-3.06459119427497
-3.3849909989471896,-3.3849909989471896
-3.359878581824232,-3.359878581824232
-2.9061231827749263,-2.9061231827749263
-2.2964976084796764,-2.2964976084796764
-1.8427422094303707,-1.8427422094303707
-1.4695197342581365,-1.4695197342581365
-1.0374129706596567,-1.0374129706596567
-0.642541860036597,-0.642541860036597
-0.48580573937261934,-0.48580573937261934
-0.4650230493398267,-0.4650230493398267
-0.3853560708807883,-0.3853560708807883
-0.22861995021681067,-0.22861995021681067
-0.1428913538315411,-0.1428913538315411
-0.11085137336431916,-0.11085137336431916
-0.047637357847908283,-0.047637357847908283
0.06666743733245112,0.06666743733245112
0.14027279786525831,0.14027279786525831
0.18443601418494263,0.18443601418494263
0.23552679384889114,0.23552679384889114
0.30307053645546717,0.30307053645546717
0.3385742985948212,0.3385742985948212
0.36195482488171293,0.36195482488171293
0.3896650782587697,0.3896650782587697
0.42083911330795865,0.42083911330795865
0.4225710041440247,0.4225710041440247
0.42083911330795865,0.42083911330795865
0.43556018541452013,0.43556018541452013
0.48058934715223744,0.48058934715223744
0.5126293276194595,0.5126293276194595
0.5394736355784832,0.5394736355784832
0.5576584893571768,0.5576584893571768
0.598357924004729,0.598357924004729
0.6321297953080169,0.6321297953080169
0.6572422124309747,0.6572422124309747
0.6702313937014701,0.6702313937014701
0.7169924462752535,0.7169924462752535
0.7758767347014992,0.7758767347014992
0.834761023127745,0.834761023127745
0.8754604577752972,0.8754604577752972
0.9525295999802365,0.9525295999802365
1.0373922509474731,1.0373922509474731
1.071164122250761,1.071164122250761
1.0105479429884492,1.0105479429884492
0.9525295999802365,0.9525295999802365
0.9568593270704017,0.9568593270704017
1.0122798338245154,1.0122798338245154
1.041721978037638,1.041721978037638
1.071164122250761,1.071164122250761
1.104935993554049,1.104935993554049
1.1300484106770068,1.1300484106770068
1.099740321045851,1.099740321045851
1.071164122250761,1.071164122250761
1.0668343951605959,1.0668343951605959
1.071164122250761,1.071164122250761
1.0200733425868125,1.0200733425868125
0.9525295999802365,0.9525295999802365
0.8884496390457925,0.8884496390457925
0.834761023127745,0.834761023127745
0.7620216080129708,0.7620216080129708
0.7169924462752535,0.7169924462752535
0.6910140837342628,0.6910140837342628
0.6572422124309747,0.6572422124309747
0.5645860527014409,0.5645860527014409
0.48058934715223744,0.48058934715223744
0.4346942399964871,0.4346942399964871
0.42083911330795865,0.42083911330795865
0.36715049738991107,0.36715049738991107
0.30307053645546717,0.30307053645546717
0.2537116476275847,0.2537116476275847
0.2441862480292214,0.2441862480292214
0.2173419400701976,0.2173419400701976
0.18443601418494263,0.18443601418494263
0.1601895424800179,0.1601895424800179
0.18443601418494263,0.18443601418494263
0.21647599465216458,0.21647599465216458
0.2441862480292214,0.2441862480292214
0.26929866515217915,0.26929866515217915
0.36195482488171293,0.36195482488171293
0.5091655459473273,0.5091655459473273
0.6572422124309747,0.6572422124309747
0.7195902825293525,0.7195902825293525
0.7169924462752535,0.7169924462752535
0.6927459745703287,0.6927459745703287
0.7169924462752535,0.7169924462752535
0.7983913155703579,0.7983913155703579
0.9525295999802365,0.9525295999802365
1.107533829808148,1.107533829808148
1.1889326991032525,1.1889326991032525
1.1508311007097993,1.1508311007097993
1.071164122250761,1.071164122250761
0.9897652529556566,0.9897652529556566
0.8936453115539907,0.8936453115539907
0.7126627191850884,0.7126627191850884
0.48058934715223744,0.48058934715223744
0.2441862480292214,0.2441862480292214
0.06666743733245112,0.06666743733245112
-0.038111958249545004,-0.038111958249545004
-0.05110113952004039,-0.05110113952004039
-0.04936924868397433,-0.04936924868397433
-0.11085137336431916,-0.11085137336431916
-0.2537323673397684,-0.2537323673397684
-0.3472544724873352,-0.3472544724873352
-0.3377290728889719,-0.3377290728889719
-0.2875042386430564,-0.2875042386430564
-0.32214205536437746,-0.32214205536437746
-0.406138760913581,-0.406138760913581
-0.4650230493398267,-0.4650230493398267
-0.4650230493398267,-0.4650230493398267
-0.4658889947578597,-0.4658889947578597
-0.4650230493398267,-0.4650230493398267
-0.43384901429063777,-0.43384901429063777
-0.3472544724873352,-0.3472544724873352
-0.273649111954528,-0.273649111954528
-0.2875042386430564,-0.2875042386430564
-0.4520338680693313,-0.4520338680693313
-0.7014261484628428,-0.7014261484628428
-0.8945319766842075,-0.8945319766842075
-0.878944959159613,-0.878944959159613
-0.677179676757918,-0.677179676757918
-0.406138760913581,-0.406138760913581
-0.16800377095449887,-0.16800377095449887
0.06666743733245112,0.06666743733245112
0.2710305559882452,0.2710305559882452
0.30307053645546717,0.30307053645546717
-0.045905467011842234,-0.045905467011842234
-0.7603104368890885,-0.7603104368890885
-1.6046072194712886,-1.6046072194712886
-2.2964976084796764,-2.2964976084796764
-2.8151989138814586,-2.8151989138814586
-3.2421100049717406,-3.2421100049717406
-3.522676320414441,-3.522676320414441
-3.4187628702504775,-3.4187628702504775
-2.917380473209356,-2.917380473209356
-2.2964976084796764,-2.2964976084796764
-1.8358146460861064,-1.8358146460861064
-1.4695197342581365,-1.4695197342581365
-1.0729167327990108,-1.0729167327990108
-0.7014261484628428,-0.7014261484628428
-0.5187116652578743,-0.5187116652578743
-0.4650230493398267,-0.4650230493398267
-0.4009430884053828,-0.4009430884053828
-0.2875042386430564,-0.2875042386430564
-0.2190945506184474,-0.2190945506184474
-0.16973566179056493,-0.16973566179056493
-0.0952643558397247,-0.0952643558397247
0.007783148906205366,0.007783148906205366
0.07099716442261625,0.07099716442261625
0.12555172575869689,0.12555172575869689
0.18789979585707473,0.18789979585707473
0.2441862480292214,0.2441862480292214
0.26496893806201405,0.26496893806201405
0.30307053645546717,0.30307053645546717
0.35329537070138267,0.35329537070138267
0.36195482488171293,0.36195482488171293
0.30913215438169833,0.30913215438169833
0.30307053645546717,0.30307053645546717
0.3680164428079441,0.3680164428079441
0.42083911330795865,0.42083911330795865
0.3827375149145055,0.3827375149145055
0.36195482488171293,0.36195482488171293
0.43296234916042103,0.43296234916042103
0.5394736355784832,0.5394736355784832
0.5429374172506153,0.5429374172506153
0.48058934715223744,0.48058934715223744
0.44421963959485034,0.44421963959485034
0.48058934715223744,0.48058934715223744
0.5117633822014264,0.5117633822014264
0.5394736355784832,0.5394736355784832
0.5948941423325969,0.5948941423325969
0.7169924462752535,0.7169924462752535
0.833029132291679,0.833029132291679
0.8936453115539907,0.8936453115539907
0.8719966761031651,0.8719966761031651
0.834761023127745,0.834761023127745
0.8286994052015139,0.8286994052015139
0.8936453115539907,0.8936453115539907
0.9837036350294254,0.9837036350294254
1.071164122250761,1.071164122250761
1.1144613931524123,1.1144613931524123
1.1300484106770068,1.1300484106770068
1.1083997752261812,1.1083997752261812
1.071164122250761,1.071164122250761
1.0079501067343501,1.0079501067343501
0.9525295999802365,0.9525295999802365
0.9092323290785852,0.9092323290785852
0.8936453115539907,0.8936453115539907
0.8564096585785707,0.8564096585785707
0.7758767347014992,0.7758767347014992
0.6459849219965453,0.6459849219965453
0.5394736355784832,0.5394736355784832
0.4676001658817421,0.4676001658817421
0.42083911330795865,0.42083911330795865
0.3385742985948212,0.3385742985948212
0.2441862480292214,0.2441862480292214
0.15932359706198487,0.15932359706198487
0.12555172575869689,0.12555172575869689
0.10043930863573912,0.10043930863573912
0.06666743733245112,0.06666743733245112
0.0017215309799741851,0.0017215309799741851
-0.05110113952004039,-0.05110113952004039
-0.0952643558397247,-0.0952643558397247
-0.11085137336431916,-0.11085137336431916
-0.1221086637987485,-0.1221086637987485
-0.11085137336431916,-0.11085137336431916
-0.1082535371102201,-0.1082535371102201
-0.11085137336431916,-0.11085137336431916
-0.11431515503645127,-0.11431515503645127
-0.05110113952004039,-0.05110113952004039
0.07965661860294651,0.07965661860294651
0.2441862480292214,0.2441862480292214
0.3420380802669533,0.3420380802669533
0.36195482488171293,0.36195482488171293
0.3411721348489203,0.3411721348489203
0.36195482488171293,0.36195482488171293
0.4147774953817275,0.4147774953817275
0.48058934715223744,0.48058934715223744
0.5464011989227474,0.5464011989227474
0.6572422124309747,0.6572422124309747
0.7594237717588718,0.7594237717588718
0.7758767347014992,0.7758767347014992
0.6840865203899985,0.6840865203899985
0.598357924004729,0.598357924004729
0.5386076901604502,0.5386076901604502
0.42083911330795865,0.42083911330795865
0.17924034167674446,0.17924034167674446
-0.05110113952004039,-0.05110113952004039
-0.15674648052006954,-0.15674648052006954
-0.16973566179056493,-0.16973566179056493
-0.23121778647090976,-0.23121778647090976
-0.3472544724873352,-0.3472544724873352
-0.45722954057752946,-0.45722954057752946
-0.5239073377660725,-0.5239073377660725
-0.5923170257906815,-0.5923170257906815
-0.642541860036597,-0.642541860036597
-0.6624586046513566,-0.6624586046513566
-0.642541860036597,-0.642541860036597
-0.6382121329464319,-0.6382121329464319
-0.642541860036597,-0.642541860036597
-0.6486034779628281,-0.6486034779628281
-0.642541860036597,-0.642541860036597
-0.6607267138152906,-0.6607267138152906
-0.7014261484628428,-0.7014261484628428
-0.744723419364494,-0.744723419364494
-0.7603104368890885,-0.7603104368890885
-0.7888866356841784,-0.7888866356841784
-0.878944959159613,-0.878944959159613
-1.0408767523317888,-1.0408767523317888
-1.1742323467088749,-1.1742323467088749
-1.1889534188154363,-1.1889534188154363
-1.0555978244383504,-1.0555978244383504
-0.8339157974218957,-0.8339157974218957
-0.5239073377660725,-0.5239073377660725
-0.12990217256104575,-0.12990217256104575
0.30307053645546717,0.30307053645546717
0.5784411793899693,0.5784411793899693
0.48058934715223744,0.48058934715223744
-0.13076811797907875,-0.13076811797907875
-1.114482112864596,-1.114482112864596
-2.125040415709137,-2.125040415709137
-2.8281880951519542,-2.8281880951519542
-3.2516354045701035,-3.2516354045701035
-3.5962816809472478,-3.5962816809472478
-3.8699204330456842,-3.8699204330456842
-3.7738004916440184,-3.7738004916440184
-3.2092040790864855,-3.2092040790864855
-2.4740164191764467,-2.4740164191764467
-1.9371302599959705,-1.9371302599959705
-1.5872883111106282,-1.5872883111106282
-1.2599609430941443,-1.2599609430941443
-0.9378292475858588,-0.9378292475858588
-0.7473212556185931,-0.7473212556185931
-0.642541860036597,-0.642541860036597
-0.5126500473316431,-0.5126500473316431
-0.3472544724873352,-0.3472544724873352
-0.25546425817583446,-0.25546425817583446
-0.22861995021681067,-0.22861995021681067
-0.21216698727418318,-0.21216698727418318
-0.16973566179056493,-0.16973566179056493
-0.14462324466760718,-0.14462324466760718
-0.11085137336431916,-0.11085137336431916
-0.05543086661020551,-0.05543086661020551
0.007783148906205366,0.007783148906205366
0.038091238537361266,0.038091238537361266
0.06666743733245112,0.06666743733245112
0.11689227157836661,0.11689227157836661
0.18443601418494263,0.18443601418494263
0.22253761257839577,0.22253761257839577
0.2441862480292214,0.2441862480292214
0.26237110180791495,0.26237110180791495
0.30307053645546717,0.30307053645546717
0.3342445715046561,0.3342445715046561
0.36195482488171293,0.36195482488171293
0.38013967866040643,0.38013967866040643
0.42083911330795865,0.42083911330795865
0.4719298929719072,0.4719298929719072
0.5394736355784832,0.5394736355784832
0.5957600877506298,0.5957600877506298
0.6572422124309747,0.6572422124309747
0.7117967737670553,0.7117967737670553
0.7758767347014992,0.7758767347014992
0.8312972414556129,0.8312972414556129
0.8936453115539907,0.8936453115539907
0.93347880078351,0.93347880078351
0.9525295999802365,0.9525295999802365
0.9430042003818732,0.9430042003818732
0.9525295999802365,0.9525295999802365
0.9776420171031942,0.9776420171031942
1.0122798338245154,1.0122798338245154
1.0321965784392748,1.0321965784392748
1.071164122250761,1.071164122250761
1.0936787031196198,1.0936787031196198
1.071164122250761,1.071164122250761
1.009681997570416,1.009681997570416
1.0122798338245154,1.0122798338245154
1.06510250432453,1.06510250432453
1.071164122250761,1.071164122250761
0.9559933816523686,0.9559933816523686
0.834761023127745,0.834761023127745
0.7854021342998625,0.7854021342998625
0.7758767347014992,0.7758767347014992
0.69880759249656,0.69880759249656
0.598357924004729,0.598357924004729
0.5256185088899548,0.5256185088899548
0.48058934715223744,0.48058934715223744
0.39053102367680276,0.39053102367680276
0.30307053645546717,0.30307053645546717
0.2537116476275847,0.2537116476275847
0.2441862480292214,0.2441862480292214
0.19396141378330592,0.19396141378330592
0.12555172575869689,0.12555172575869689
0.07013121900458322,0.07013121900458322
0.06666743733245112,0.06666743733245112
0.06580149191441809,0.06580149191441809
0.06666743733245112,0.06666743733245112
0.05714203773408784,0.05714203773408784
0.06666743733245112,0.06666743733245112
0.06666743733245112,0.06666743733245112
0.06666743733245112,0.06666743733245112
0.0692652735865502,0.0692652735865502
0.12555172575869689,0.12555172575869689
0.21214626756199945,0.21214626756199945
0.30307053645546717,0.30307053645546717
0.3749440061522083,0.3749440061522083
0.48058934715223744,0.48058934715223744
0.6061514327670262,0.6061514327670262
0.7169924462752535,0.7169924462752535
0.7862680797178956,0.7862680797178956
0.8936453115539907,0.8936453115539907
1.0347944146933739,1.0347944146933739
1.1300484106770068,1.1300484106770068
1.0971424847917517,1.0971424847917517
1.0122798338245154,1.0122798338245154
0.9308809645294108,0.9308809645294108
0.834761023127745,0.834761023127745
0.6615719395211398,0.6615719395211398
0.48058934715223744,0.48058934715223744
0.3437699711030194,0.3437699711030194
0.2441862480292214,0.2441862480292214
0.11862416241443266,0.11862416241443266
0.007783148906205366,0.007783148906205366
-0.07794544747906419,-0.07794544747906419
-0.16973566179056493,-0.16973566179056493
-0.307420983257816,-0.307420983257816
-0.406138760913581,-0.406138760913581
-0.4243236146922745,-0.4243236146922745
-0.406138760913581,-0.406138760913581
-0.45289981348736436,-0.45289981348736436
-0.5239073377660725,-0.5239073377660725
-0.5559473182332945,-0.5559473182332945
-0.5239073377660725,-0.5239073377660725
-0.49013546646278444,-0.49013546646278444
-0.4650230493398267,-0.4650230493398267
-0.4563635951594965,-0.4563635951594965
-0.4650230493398267,-0.4650230493398267
-0.5143819381677092,-0.5143819381677092
-0.5827916261923182,-0.5827916261923182
-0.6849731855202152,-0.6849731855202152
-0.8191947253153342,-0.8191947253153342
-0.9603438284547174,-0.9603438284547174
-0.9967135360121046,-0.9967135360121046
-0.8841406316678112,-0.8841406316678112
-0.642541860036597,-0.642541860036597
-0.3567798720856985,-0.3567798720856985
-0.05110113952004039,-0.05110113952004039
0.20954843130790038,0.20954843130790038
0.30307053645546717,0.30307053645546717
0.026833948102931934,0.026833948102931934
-0.642541860036597,-0.642541860036597
-1.483374860946665,-1.483374860946665
-2.1778630862091517,-2.1778630862091517
-2.684441155758472,-2.684441155758472
-3.123475482701216,-3.123475482701216
-3.46812175907836,-3.46812175907836
-3.4187628702504775,-3.4187628702504775
-2.9052572373568935,-2.9052572373568935
-2.2376133200534305,-2.2376133200534305
-1.7604773947172332,-1.7604773947172332
-1.4106354458318908,-1.4106354458318908
-1.0218259531350622,-1.0218259531350622
-0.642541860036597,-0.642541860036597
-0.45722954057752946,-0.45722954057752946
-0.406138760913581,-0.406138760913581
-0.33859501830700495,-0.33859501830700495
-0.22861995021681067,-0.22861995021681067
-0.1853226793151594,-0.1853226793151594
-0.16973566179056493,-0.16973566179056493
-0.1082535371102201,-0.1082535371102201
0.007783148906205366,0.007783148906205366
0.09870741779967307,0.09870741779967307
0.18443601418494263,0.18443601418494263
0.265834883480047,0.265834883480047
0.30307053645546717,0.30307053645546717
0.264102992643981,0.264102992643981
0.2441862480292214,0.2441862480292214
0.29267919143907084,0.29267919143907084
0.36195482488171293,0.36195482488171293
0.3680164428079441,0.3680164428079441
0.36195482488171293,0.36195482488171293
0.4009223686931991,0.4009223686931991
0.48058934715223744,0.48058934715223744
0.5212887817997897,0.5212887817997897
0.5394736355784832,0.5394736355784832
0.5593903801932428,0.5593903801932428
0.598357924004729,0.598357924004729
0.6052854873489931,0.6052854873489931
0.598357924004729,0.598357924004729
0.6026876510948941,0.6026876510948941
0.6572422124309747,0.6572422124309747
0.7187243371113196,0.7187243371113196
0.7758767347014992,0.7758767347014992
0.8209058964392166,0.8209058964392166
0.8936453115539907,0.8936453115539907
0.9464679820540053,0.9464679820540053
0.9525295999802365,0.9525295999802365
0.9213555649310475,0.9213555649310475
0.9525295999802365,0.9525295999802365
1.031330633021242,1.031330633021242
1.071164122250761,1.071164122250761
1.007084161316317,1.007084161316317
0.9525295999802365,0.9525295999802365
0.9871674167015575,0.9871674167015575
1.071164122250761,1.071164122250761
1.0737619585048601,1.0737619585048601
1.0122798338245154,1.0122798338245154
0.9559933816523686,0.9559933816523686
0.9525295999802365,0.9525295999802365
0.936942582455642,0.936942582455642
0.8936453115539907,0.8936453115539907
0.8252356235293817,0.8252356235293817
0.7758767347014992,0.7758767347014992
0.735177300053947,0.735177300053947
0.7169924462752535,0.7169924462752535
0.6745611207916352,0.6745611207916352
0.598357924004729,0.598357924004729
0.49011474675060074,0.49011474675060074
0.42083911330795865,0.42083911330795865
0.36974833364401016,0.36974833364401016
0.30307053645546717,0.30307053645546717
0.20868248588986735,0.20868248588986735
0.18443601418494263,0.18443601418494263
0.2242695034144618,0.2242695034144618
0.2441862480292214,0.2441862480292214
0.15759170622591884,0.15759170622591884
0.06666743733245112,0.06666743733245112
0.05627609231605481,0.05627609231605481
0.12555172575869689,0.12555172575869689
0.1671171058242821,0.1671171058242821
0.18443601418494263,0.18443601418494263
0.21907383090626364,0.21907383090626364
0.30307053645546717,0.30307053645546717
0.3723461698981092,0.3723461698981092
0.42083911330795865,0.42083911330795865
0.4771255654801053,0.4771255654801053
0.598357924004729,0.598357924004729
0.7490324267424754,0.7490324267424754
0.8936453115539907,0.8936453115539907
1.007084161316317,1.007084161316317
1.1300484106770068,1.1300484106770068
1.2304980791688378,1.2304980791688378
1.2486829329475313,1.2486829329475313
1.1309143560950399,1.1309143560950399
0.9525295999802365,0.9525295999802365
0.7862680797178956,0.7862680797178956
0.6572422124309747,0.6572422124309747
0.5126293276194595,0.5126293276194595
0.36195482488171293,0.36195482488171293
0.22513544883249484,0.22513544883249484
0.12555172575869689,0.12555172575869689
0.016442603086535622,0.016442603086535622
-0.11085137336431916,-0.11085137336431916
-0.24767074941353723,-0.24767074941353723
-0.3472544724873352,-0.3472544724873352
-0.4182619967660433,-0.4182619967660433
-0.4650230493398267,-0.4650230493398267
-0.5126500473316431,-0.5126500473316431
-0.5239073377660725,-0.5239073377660725
-0.5039905931513129,-0.5039905931513129
-0.4650230493398267,-0.4650230493398267
-0.4710846672660579,-0.4710846672660579
-0.5239073377660725,-0.5239073377660725
-0.5862554078644503,-0.5862554078644503
-0.5827916261923182,-0.5827916261923182
-0.5377624644546009,-0.5377624644546009
-0.5239073377660725,-0.5239073377660725
-0.6139656612415072,-0.6139656612415072
-0.7603104368890885,-0.7603104368890885
-0.909253048790769,-0.909253048790769
-0.9967135360121046,-0.9967135360121046
-0.9819924639055431,-0.9819924639055431
-0.8191947253153342,-0.8191947253153342
-0.6122337704054411,-0.6122337704054411
-0.4650230493398267,-0.4650230493398267
-0.31521449202011326,-0.31521449202011326
0.007783148906205366,0.007783148906205366
0.3108640452177644,0.3108640452177644
0.12555172575869689,0.12555172575869689
-0.7196110022415363,-0.7196110022415363
-1.7648071218073984,-1.7648071218073984
-2.550219615963353,-2.550219615963353
-3.06459119427497,-3.06459119427497
-3.4837087766029544,-3.4837087766029544
-3.6551659693734937,-3.6551659693734937
-3.3927845077094867,-3.3927845077094867
-2.8281880951519542,-2.8281880951519542
-2.289570045135412,-2.289570045135412
-1.8236914102336441,-1.8236914102336441
-1.3404938669712159,-1.3404938669712159
-0.878944959159613,-0.878944959159613
-0.6156975520775732,-0.6156975520775732
-0.5239073377660725,-0.5239073377660725
-0.4451063047250671,-0.4451063047250671
-0.2875042386430564,-0.2875042386430564
-0.15501458968400347,-0.15501458968400347
-0.11085137336431916,-0.11085137336431916
-0.13163406339711178,-0.13163406339711178
-0.11085137336431916,-0.11085137336431916
-0.03551412199544592,-0.03551412199544592
0.06666743733245112,0.06666743733245112
0.13334523452099412,0.13334523452099412
0.18443601418494263,0.18443601418494263
0.23812463010299023,0.23812463010299023
0.30307053645546717,0.30307053645546717
0.3411721348489203,0.3411721348489203
0.36195482488171293,0.36195482488171293
0.38100562407843946,0.38100562407843946
0.42083911330795865,0.42083911330795865
0.4520131483571476,0.4520131483571476
0.48058934715223744,0.48058934715223744
0.5152271638735585,0.5152271638735585
0.598357924004729,0.598357924004729
0.6970757016604939,0.6970757016604939
0.7758767347014992,0.7758767347014992
0.7724129530293672,0.7724129530293672
0.7169924462752535,0.7169924462752535
0.6529124853408096,0.6529124853408096
0.6572422124309747,0.6572422124309747
0.7074670466768902,0.7074670466768902
0.7758767347014992,0.7758767347014992
0.8269675143654478,0.8269675143654478
0.8936453115539907,0.8936453115539907
0.9456020366359723,0.9456020366359723
0.9525295999802365,0.9525295999802365
0.904036656570387,0.904036656570387
0.8936453115539907,0.8936453115539907
0.9430042003818732,0.9430042003818732
1.0122798338245154,1.0122798338245154
1.0218052334228787,1.0218052334228787
1.0122798338245154,1.0122798338245154
1.007084161316317,1.007084161316317
1.0122798338245154,1.0122798338245154
0.9958268708818878,0.9958268708818878
1.0122798338245154,1.0122798338245154
1.0547111593081335,1.0547111593081335
1.071164122250761,1.071164122250761
0.9923630892097557,0.9923630892097557
0.8936453115539907,0.8936453115539907
0.8399566956359431,0.8399566956359431
0.834761023127745,0.834761023127745
0.7905978068080607,0.7905978068080607
0.7169924462752535,0.7169924462752535
0.6399233040703142,0.6399233040703142
0.598357924004729,0.598357924004729
0.5472671443407804,0.5472671443407804
0.48058934715223744,0.48058934715223744
0.3706142790620432,0.3706142790620432
0.2441862480292214,0.2441862480292214
0.11775821699639964,0.11775821699639964
0.06666743733245112,0.06666743733245112
0.06580149191441809,0.06580149191441809
0.06666743733245112,0.06666743733245112
0.008649094324238391,0.008649094324238391
-0.05110113952004039,-0.05110113952004039
-0.09439841042169168,-0.09439841042169168
-0.11085137336431916,-0.11085137336431916
-0.11518110045448429,-0.11518110045448429
-0.05110113952004039,-0.05110113952004039
0.03635934770129522,0.03635934770129522
0.06666743733245112,0.06666743733245112
0.009515039742271417,0.009515039742271417
0.007783148906205366,0.007783148906205366
0.12901550743082899,0.12901550743082899
0.30307053645546717,0.30307053645546717
0.4035202049472981,0.4035202049472981
0.48058934715223744,0.48058934715223744
0.6061514327670262,0.6061514327670262
0.7758767347014992,0.7758767347014992
0.8893155844638256,0.8893155844638256
0.9525295999802365,0.9525295999802365
0.9940949800458218,0.9940949800458218
1.0122798338245154,1.0122798338245154
0.9196236740949815,0.9196236740949815
0.7169924462752535,0.7169924462752535
0.4606726025374778,0.4606726025374778
0.2441862480292214,0.2441862480292214
0.05887392857015389,0.05887392857015389
-0.11085137336431916,-0.11085137336431916
-0.2658556031922308,-0.2658556031922308
-0.3472544724873352,-0.3472544724873352
-0.373232835028326,-0.373232835028326
-0.406138760913581,-0.406138760913581
-0.49792897522508167,-0.49792897522508167
-0.5827916261923182,-0.5827916261923182
-0.6269548425120025,-0.6269548425120025
-0.642541860036597,-0.642541860036597
-0.6832412946841492,-0.6832412946841492
-0.7014261484628428,-0.7014261484628428
-0.6780456221759511,-0.6780456221759511
-0.642541860036597,-0.642541860036597
-0.6607267138152906,-0.6607267138152906
-0.7014261484628428,-0.7014261484628428
-0.7326001835120317,-0.7326001835120317
-0.7603104368890885,-0.7603104368890885
-0.8174628344792682,-0.8174628344792682
-0.878944959159613,-0.878944959159613
-0.9508184288563541,-0.9508184288563541
-1.0555978244383504,-1.0555978244383504
-1.1872215279793703,-1.1872215279793703
-1.2331166351351206,-1.2331166351351206
-1.1413264208236198,-1.1413264208236198
-0.9378292475858588,-0.9378292475858588
-0.6849731855202152,-0.6849731855202152
-0.3472544724873352,-0.3472544724873352
0.05714203773408784,0.05714203773408784
0.36195482488171293,0.36195482488171293
0.2770921739144764,0.2770921739144764
-0.2875042386430564,-0.2875042386430564
-1.1361307483154217,-1.1361307483154217
-1.9423259325041686,-1.9423259325041686
-2.617763358569929,-2.617763358569929
-3.2421100049717406,-3.2421100049717406
-3.7945831816768107,-3.7945831816768107
-4.009337645349001,-4.009337645349001
-3.7495540199390933,-3.7495540199390933
-3.182359771127462,-3.182359771127462
-2.61516552231583,-2.61516552231583
-2.1189787977829058,-2.1189787977829058
-1.6531001628811381,-1.6531001628811381
-1.2331166351351206,-1.2331166351351206
-0.9646735555448825,-0.9646735555448825
-0.8191947253153342,-0.8191947253153342
-0.7256726201677675,-0.7256726201677675
-0.642541860036597,-0.642541860036597
-0.5949148620447806,-0.5949148620447806
-0.5239073377660725,-0.5239073377660725
-0.3948814704791516,-0.3948814704791516
-0.22861995021681067,-0.22861995021681067
-0.13423189965121085,-0.13423189965121085
-0.11085137336431916,-0.11085137336431916
-0.10565570085612101,-0.10565570085612101
-0.05110113952004039,-0.05110113952004039
0.0190404393406347,0.0190404393406347
0.06666743733245112,0.06666743733245112
0.06753338275048415,0.06753338275048415
0.06666743733245112,0.06666743733245112
0.08571823652917769,0.08571823652917769
0.12555172575869689,0.12555172575869689
0.15239603371772067,0.15239603371772067
0.18443601418494263,0.18443601418494263
0.23206301217675904,0.23206301217675904
0.30307053645546717,0.30307053645546717
0.34550186193908544,0.34550186193908544
0.36195482488171293,0.36195482488171293
0.36888238822597713,0.36888238822597713
0.42083911330795865,0.42083911330795865
0.4892488013325677,0.4892488013325677
0.5394736355784832,0.5394736355784832
0.535143908488318,0.535143908488318
0.5394736355784832,0.5394736355784832
0.5966260331686629,0.5966260331686629
0.7169924462752535,0.7169924462752535
0.7931956430621597,0.7931956430621597
0.7758767347014992,0.7758767347014992
0.7048692104227912,0.7048692104227912
0.7169924462752535,0.7169924462752535
0.8087826605867542,0.8087826605867542
0.8936453115539907,0.8936453115539907
0.8936453115539907,0.8936453115539907
0.8936453115539907,0.8936453115539907
0.9447360912179392,0.9447360912179392
1.0122798338245154,1.0122798338245154
1.0001565979720528,1.0001565979720528
0.9525295999802365,0.9525295999802365
0.9326128553654769,0.9326128553654769
0.9525295999802365,0.9525295999802365
0.9248193466031797,0.9248193466031797
0.834761023127745,0.834761023127745
0.7066011012588572,0.7066011012588572
0.598357924004729,0.598357924004729
0.498774200930931,0.498774200930931
0.42083911330795865,0.42083911330795865
0.3515634798653166,0.3515634798653166
0.30307053645546717,0.30307053645546717
0.2441862480292214,0.2441862480292214
0.18443601418494263,0.18443601418494263
0.11429443532426754,0.11429443532426754
0.06666743733245112,0.06666743733245112
0.02943178435703101,0.02943178435703101
0.007783148906205366,0.007783148906205366
-0.04330763075774315,-0.04330763075774315
-0.11085137336431916,-0.11085137336431916
-0.19051835182335755,-0.19051835182335755
-0.22861995021681067,-0.22861995021681067
-0.24160913148730606,-0.24160913148730606
-0.22861995021681067,-0.22861995021681067
-0.2164967143643483,-0.2164967143643483
-0.16973566179056493,-0.16973566179056493
-0.11085137336431916,-0.11085137336431916
-0.05110113952004039,-0.05110113952004039
-0.02598872239708264,-0.02598872239708264
0.007783148906205366,0.007783148906205366
0.05541014689802178,0.05541014689802178
0.12555172575869689,0.12555172575869689
0.19569330461937195,0.19569330461937195
0.30307053645546717,0.30307053645546717
0.44421963959485034,0.44421963959485034
0.598357924004729,0.598357924004729
0.7031373195867251,0.7031373195867251
0.7758767347014992,0.7758767347014992
0.8486161498162734,0.8486161498162734
0.9525295999802365,0.9525295999802365
1.0218052334228787,1.0218052334228787
1.0122798338245154,1.0122798338245154
0.9222215103490806,0.9222215103490806
0.834761023127745,0.834761023127745
0.7585578263408387,0.7585578263408387
0.6572422124309747,0.6572422124309747
0.46846611129977506,0.46846611129977506
0.2441862480292214,0.2441862480292214
0.05541014689802178,0.05541014689802178
-0.05110113952004039,-0.05110113952004039
-0.13336595423317785,-0.13336595423317785
-0.22861995021681067,-0.22861995021681067
-0.35591392666766547,-0.35591392666766547
-0.4650230493398267,-0.4650230493398267
-0.5464219186349312,-0.5464219186349312
-0.5827916261923182,-0.5827916261923182
-0.6009764799710118,-0.6009764799710118
-0.5827916261923182,-0.5827916261923182
-0.5542154273972284,-0.5542154273972284
-0.5239073377660725,-0.5239073377660725
-0.5195776106759074,-0.5195776106759074
-0.5239073377660725,-0.5239073377660725
-0.5472878640529641,-0.5472878640529641
-0.5827916261923182,-0.5827916261923182
-0.6260888970939695,-0.6260888970939695
-0.642541860036597,-0.642541860036597
-0.6711180588316868,-0.6711180588316868
-0.7603104368890885,-0.7603104368890885
-0.911850885044868,-0.911850885044868
-0.9967135360121046,-0.9967135360121046
-0.9283038479874955,-0.9283038479874955
-0.7014261484628428,-0.7014261484628428
-0.41566416051194427,-0.41566416051194427
-0.11085137336431916,-0.11085137336431916
0.17750845084067843,0.17750845084067843
0.36195482488171293,0.36195482488171293
0.22253761257839577,0.22253761257839577
-0.3472544724873352,-0.3472544724873352
-1.2002107092498655,-1.2002107092498655
-2.0012102209304143,-2.0012102209304143
-2.620361194824028,-2.620361194824028
-3.123475482701216,-3.123475482701216
-3.5235422658324738,-3.5235422658324738
-3.5962816809472478,-3.5962816809472478
-3.2559651316602687,-3.2559651316602687
-2.7104195182994624,-2.7104195182994624
-2.2402111563075295,-2.2402111563075295
-1.8236914102336441,-1.8236914102336441
-1.3526171028236782,-1.3526171028236782
-0.878944959159613,-0.878944959159613
-0.6035743162251108,-0.6035743162251108
-0.5239073377660725,-0.5239073377660725
-0.4806100668644212,-0.4806100668644212
-0.3472544724873352,-0.3472544724873352
-0.19831186058565478,-0.19831186058565478
-0.11085137336431916,-0.11085137336431916
-0.0918005741675926,-0.0918005741675926
-0.05110113952004039,-0.05110113952004039
0.02769989352096496,0.02769989352096496
0.12555172575869689,0.12555172575869689
0.17491061458657933,0.17491061458657933
0.18443601418494263,0.18443601418494263
0.1766425054226454,0.1766425054226454
0.18443601418494263,0.18443601418494263
0.20435275879970222,0.20435275879970222
0.2441862480292214,0.2441862480292214
0.28142190100464154,0.28142190100464154
0.30307053645546717,0.30307053645546717
0.29267919143907084,0.29267919143907084
0.30307053645546717,0.30307053645546717
0.3489656436112175,0.3489656436112175
0.42083911330795865,0.42083911330795865
0.45980665711944485,0.45980665711944485
0.48058934715223744,0.48058934715223744
0.4961763646768319,0.4961763646768319
0.5394736355784832,0.5394736355784832
0.5732455068817712,0.5732455068817712
0.598357924004729,0.598357924004729
0.6113471052752243,0.6113471052752243
0.6572422124309747,0.6572422124309747
0.7161265008572204,0.7161265008572204
0.7758767347014992,0.7758767347014992
0.8035869880785561,0.8035869880785561
0.834761023127745,0.834761023127745
0.8642031673408679,0.8642031673408679
0.8936453115539907,0.8936453115539907
0.8919134207179247,0.8919134207179247
0.8936453115539907,0.8936453115539907
0.9083663836605522,0.9083663836605522
0.9525295999802365,0.9525295999802365
0.9854355258654914,0.9854355258654914
1.0122798338245154,1.0122798338245154
1.0157436154966475,1.0157436154966475
1.0122798338245154,1.0122798338245154
0.9819717441933594,0.9819717441933594
0.9525295999802365,0.9525295999802365
0.9170258378408824,0.9170258378408824
0.8936453115539907,0.8936453115539907
0.8616053310867688,0.8616053310867688
0.834761023127745,0.834761023127745
0.7845361888818295,0.7845361888818295
0.7169924462752535,0.7169924462752535
0.6191406140375215,0.6191406140375215
0.5394736355784832,0.5394736355784832
0.4727958383899402,0.4727958383899402
0.42083911330795865,0.42083911330795865
0.35329537070138267,0.35329537070138267
0.30307053645546717,0.30307053645546717
0.26496893806201405,0.26496893806201405
0.2441862480292214,0.2441862480292214
0.20608464963576828,0.20608464963576828
0.18443601418494263,0.18443601418494263
0.17577656000461236,0.17577656000461236
0.18443601418494263,0.18443601418494263
0.17924034167674446,0.17924034167674446
0.18443601418494263,0.18443601418494263
0.1861679050210087,0.1861679050210087
0.18443601418494263,0.18443601418494263
0.18097223251281053,0.18097223251281053
0.2441862480292214,0.2441862480292214
0.3576250977915478,0.3576250977915478
0.48058934715223744,0.48058934715223744
0.5767092885539034,0.5767092885539034
0.7169924462752535,0.7169924462752535
0.8858518027916935,0.8858518027916935
1.0122798338245154,1.0122798338245154
1.039124141783539,1.039124141783539
1.071164122250761,1.071164122250761
1.1456354282016012,1.1456354282016012
1.1889326991032525,1.1889326991032525
1.099740321045851,1.099740321045851
0.9525295999802365,0.9525295999802365
0.8286994052015139,0.8286994052015139
0.7169924462752535,0.7169924462752535
0.5256185088899548,0.5256185088899548
0.30307053645546717,0.30307053645546717
0.13680901619312621,0.13680901619312621
0.06666743733245112,0.06666743733245112
0.015576657668502598,0.015576657668502598
-0.05110113952004039,-0.05110113952004039
-0.14462324466760718,-0.14462324466760718
-0.22861995021681067,-0.22861995021681067
-0.306555037839783,-0.306555037839783
-0.3472544724873352,-0.3472544724873352
-0.3611095991758636,-0.3611095991758636
-0.3472544724873352,-0.3472544724873352
-0.3463885270693022,-0.3463885270693022
-0.3472544724873352,-0.3472544724873352
-0.35071825415946734,-0.35071825415946734
-0.3472544724873352,-0.3472544724873352
-0.36543932626602876,-0.36543932626602876
-0.406138760913581,-0.406138760913581
-0.46675494017589275,-0.46675494017589275
-0.5239073377660725,-0.5239073377660725
-0.5992445891349457,-0.5992445891349457
-0.7014261484628428,-0.7014261484628428
-0.8564303782907544,-0.8564303782907544
-0.9967135360121046,-0.9967135360121046
-1.012300553536699,-1.012300553536699
-0.8191947253153342,-0.8191947253153342
-0.5481538094709972,-0.5481538094709972
-0.3472544724873352,-0.3472544724873352
-0.1792610613889282,-0.1792610613889282
0.12555172575869689,0.12555172575869689
0.3922629145128688,0.3922629145128688
0.18443601418494263,0.18443601418494263
-0.6477375325447952,-0.6477375325447952
-1.646172599536874,-1.646172599536874
-2.3709689144305166,-2.3709689144305166
-2.8281880951519542,-2.8281880951519542
-3.221327314938948,-3.221327314938948
-3.4187628702504775,-3.4187628702504775
-3.218729478684849,-3.218729478684849
-2.7104195182994624,-2.7104195182994624
-2.2029755033321097,-2.2029755033321097
-1.7648071218073984,-1.7648071218073984
-1.3179792861023572,-1.3179792861023572
-0.878944959159613,-0.878944959159613
-0.6130997158234741,-0.6130997158234741
-0.5239073377660725,-0.5239073377660725
-0.475414394356223,-0.475414394356223
-0.3472544724873352,-0.3472544724873352
-0.20090969683975385,-0.20090969683975385
-0.11085137336431916,-0.11085137336431916
-0.0918005741675926,-0.0918005741675926
-0.05110113952004039,-0.05110113952004039
0.03116367519309706,0.03116367519309706
0.12555172575869689,0.12555172575869689
0.16365332415215,0.16365332415215
0.18443601418494263,0.18443601418494263
0.2277332850865939,0.2277332850865939
0.30307053645546717,0.30307053645546717
0.36715049738991107,0.36715049738991107
0.42083911330795865,0.42083911330795865
0.4416218033407513,0.4416218033407513
0.42083911330795865,0.42083911330795865
0.3818715694964725,0.3818715694964725
0.42083911330795865,0.42083911330795865
0.5247525634719218,0.5247525634719218
0.598357924004729,0.598357924004729
