ECG,PPG
1.6233154324845052,1.6233154324845052
1.704922317095025,1.704922317095025
0.6440328171582665,0.6440328171582665
-0.024284616809991003,-0.024284616809991003
0.0255385337943264,0.0255385337943264
0.028115593308342814,0.028115593308342814
-0.2837086078876437,-0.2837086078876437
-0.4787061111148859,-0.4787061111148859
-0.38679098844830034,-0.38679098844830034
-0.3137743022178352,-0.3137743022178352
-0.38679098844830034,-0.38679098844830034
-0.4374731588906232,-0.4374731588906232
-0.38679098844830034,-0.38679098844830034
-0.34298097671002126,-0.34298097671002126
-0.335249798167972,-0.335249798167972
-0.30260704432376406,-0.30260704432376406
-0.23216741760731532,-0.23216741760731532
-0.17289504878493772,-0.17289504878493772
-0.12908503704665863,-0.12908503704665863
-0.08097992611835218,-0.08097992611835218
-0.026002656486001946,-0.026002656486001946
0.009217156872222422,0.009217156872222422
0.0255385337943264,0.0255385337943264
0.03326971233637565,0.03326971233637565
0.07707972407465474,0.07707972407465474
0.13892915241104875,0.13892915241104875
0.18016210463531143,0.18016210463531143
0.17672602528328954,0.17672602528328954
0.18016210463531143,0.18016210463531143
0.20679171961348108,0.20679171961348108
0.23170329491563976,0.23170329491563976
0.22397211637359052,0.22397211637359052
0.23170329491563976,0.23170329491563976
0.2780903661679353,0.2780903661679353
0.33478567547629645,0.33478567547629645
0.34509391353236213,0.34509391353236213
0.33478567547629645,0.33478567547629645
0.3425168540183457,0.3425168540183457
0.38632686575662484,0.38632686575662484
0.4327139370089203,0.4327139370089203
0.4894092463172815,0.4894092463172815
0.5615669127097411,0.5615669127097411
0.6440328171582665,0.6440328171582665
0.6887018487345511,0.6887018487345511
0.6955740074385949,0.6955740074385949
0.6844067495445237,0.6844067495445237
0.6955740074385949,0.6955740074385949
0.7204855827407536,0.7204855827407536
0.7471151977189232,0.7471151977189232
0.7522693167469561,0.7522693167469561
0.7471151977189232,0.7471151977189232
0.7256397017687864,0.7256397017687864
0.6955740074385949,0.6955740074385949
0.6577771345663541,0.6577771345663541
0.6440328171582665,0.6440328171582665
0.6457508568342775,0.6457508568342775
0.6440328171582665,0.6440328171582665
0.6019408450959984,0.6019408450959984
0.5409504365976099,0.5409504365976099
0.4791010082612158,0.4791010082612158
0.43786805603695317,0.43786805603695317
0.4043662823547397,0.4043662823547397
0.38632686575662484,0.38632686575662484
0.3657103896444935,0.3657103896444935
0.33478567547629645,0.33478567547629645
0.2780903661679353,0.2780903661679353
0.23170329491563976,0.23170329491563976
0.21452289815553033,0.21452289815553033
0.23170329491563976,0.23170329491563976
0.24201153297170544,0.24201153297170544
0.23170329491563976,0.23170329491563976
0.20077858074744276,0.20077858074744276
0.18016210463531143,0.18016210463531143
0.1724309260932622,0.1724309260932622
0.18016210463531143,0.18016210463531143
0.1810211244733169,0.1810211244733169
0.18016210463531143,0.18016210463531143
0.17586700544528408,0.17586700544528408
0.18016210463531143,0.18016210463531143
0.1655587673892184,0.1655587673892184
0.12862091435498307,0.12862091435498307
0.08395188277869853,0.08395188277869853
0.07707972407465474,0.07707972407465474
0.08910600180673135,0.08910600180673135
0.07707972407465474,0.07707972407465474
0.01952539492828809,0.01952539492828809
-0.026002656486001946,-0.026002656486001946
-0.03115677551403478,-0.03115677551403478
-0.026002656486001946,-0.026002656486001946
-0.06637658887225915,-0.06637658887225915
-0.12908503704665863,-0.12908503704665863
-0.17203602894693226,-0.17203602894693226
-0.180626227326987,-0.180626227326987
-0.19866564392510191,-0.19866564392510191
-0.23216741760731532,-0.23216741760731532
-0.26910527064155065,-0.26910527064155065
-0.2837086078876437,-0.2837086078876437
-0.2871446872396656,-0.2871446872396656
-0.2837086078876437,-0.2837086078876437
-0.2854266475636546,-0.2854266475636546
-0.2837086078876437,-0.2837086078876437
-0.2862856674016601,-0.2862856674016601
-0.2837086078876437,-0.2837086078876437
-0.28456762772564914,-0.28456762772564914
-0.2837086078876437,-0.2837086078876437
-0.2871446872396656,-0.2871446872396656
-0.2837086078876437,-0.2837086078876437
-0.2837086078876437,-0.2837086078876437
-0.2837086078876437,-0.2837086078876437
-0.2888627269156765,-0.2888627269156765
-0.2837086078876437,-0.2837086078876437
-0.2785544888596108,-0.2785544888596108
-0.2837086078876437,-0.2837086078876437
-0.3103382228658133,-0.3103382228658133
-0.335249798167972,-0.335249798167972
-0.34641705606204315,-0.34641705606204315
-0.335249798167972,-0.335249798167972
-0.3154923418938462,-0.3154923418938462
-0.2837086078876437,-0.2837086078876437
-0.25278389371944665,-0.25278389371944665
-0.23216741760731532,-0.23216741760731532
-0.23216741760731532,-0.23216741760731532
-0.23216741760731532,-0.23216741760731532
-0.22959035809329892,-0.22959035809329892
-0.23216741760731532,-0.23216741760731532
-0.2579380127474795,-0.2579380127474795
-0.2837086078876437,-0.2837086078876437
-0.2922988062676984,-0.2922988062676984
-0.2837086078876437,-0.2837086078876437
-0.2957348856197203,-0.2957348856197203
-0.335249798167972,-0.335249798167972
-0.3790598099062511,-0.3790598099062511
-0.38679098844830034,-0.38679098844830034
-0.37648275039223467,-0.37648275039223467
-0.38679098844830034,-0.38679098844830034
-0.4391911985666342,-0.4391911985666342
-0.48987336900895706,-0.48987336900895706
-0.5053357260930555,-0.5053357260930555
-0.48987336900895706,-0.48987336900895706
-0.48386023014291873,-0.48386023014291873
-0.48987336900895706,-0.48987336900895706
-0.49674552771300085,-0.49674552771300085
-0.48987336900895706,-0.48987336900895706
-0.48987336900895706,-0.48987336900895706
-0.48987336900895706,-0.48987336900895706
-0.49674552771300085,-0.49674552771300085
-0.48987336900895706,-0.48987336900895706
-0.4907323888469625,-0.4907323888469625
-0.48987336900895706,-0.48987336900895706
-0.49846356738901176,-0.49846356738901176
-0.48987336900895706,-0.48987336900895706
-0.47011591273483117,-0.47011591273483117
-0.43833217872862873,-0.43833217872862873
-0.4125615835884645,-0.4125615835884645
-0.38679098844830034,-0.38679098844830034
-0.37820079006824564,-0.37820079006824564
-0.38679098844830034,-0.38679098844830034
-0.37820079006824564,-0.37820079006824564
-0.2837086078876437,-0.2837086078876437
-0.10589150142051088,-0.10589150142051088
0.12862091435498307,0.12862091435498307
0.473946889233183,0.473946889233183
1.0563623394008932,1.0563623394008932
1.8509556895559554,1.8509556895559554
2.6532802182530664,2.6532802182530664
3.284659799187089,3.284659799187089
3.7356452141399616,3.7356452141399616
3.9718756695914665,3.9718756695914665
3.8387275947006185,3.8387275947006185
3.257171164370914,3.257171164370914
2.447115457131753,2.447115457131753
1.7152305551510907,1.7152305551510907
1.15944471996155,1.15944471996155
0.6655083131084033,0.6655083131084033
0.18016210463531143,0.18016210463531143
-0.22959035809329892,-0.22959035809329892
-0.48987336900895706,-0.48987336900895706
-0.6393428208219093,-0.6393428208219093
-0.7467203005725933,-0.7467203005725933
-0.8446485621052171,-0.8446485621052171
-0.9013438714135783,-0.9013438714135783
-0.9142291689836605,-0.9142291689836605
-0.9013438714135783,-0.9013438714135783
-0.9022028912515838,-0.9022028912515838
-0.9013438714135783,-0.9013438714135783
-0.8884585738434962,-0.8884585738434962
-0.84980268113325,-0.84980268113325
-0.8231730661550803,-0.8231730661550803
-0.7982614908529216,-0.7982614908529216
-0.7810810940928122,-0.7810810940928122
-0.7467203005725933,-0.7467203005725933
-0.7218087252704346,-0.7218087252704346
-0.6960381301302704,-0.6960381301302704
-0.6745626341801336,-0.6745626341801336
-0.644496939849942,-0.644496939849942
-0.6187263447097779,-0.6187263447097779
-0.5929557495696137,-0.5929557495696137
-0.571480253619477,-0.571480253619477
-0.5414145592892854,-0.5414145592892854
-0.4993225872270172,-0.4993225872270172
-0.43833217872862873,-0.43833217872862873
-0.36531549249816353,-0.36531549249816353
-0.2837086078876437,-0.2837086078876437
-0.21670506052321684,-0.21670506052321684
-0.180626227326987,-0.180626227326987
-0.19179348522105813,-0.19179348522105813
-0.23216741760731532,-0.23216741760731532
-0.27254134999357255,-0.27254134999357255
-0.2837086078876437,-0.2837086078876437
-0.2802725285356218,-0.2802725285356218
-0.2837086078876437,-0.2837086078876437
-0.3103382228658133,-0.3103382228658133
-0.335249798167972,-0.335249798167972
-0.3438399965480267,-0.3438399965480267
-0.335249798167972,-0.335249798167972
-0.3326727386539556,-0.3326727386539556
-0.335249798167972,-0.335249798167972
-0.3386858775199939,-0.3386858775199939
-0.335249798167972,-0.335249798167972
-0.335249798167972,-0.335249798167972
-0.335249798167972,-0.335249798167972
-0.33782685768198845,-0.33782685768198845
-0.335249798167972,-0.335249798167972
-0.335249798167972,-0.335249798167972
-0.335249798167972,-0.335249798167972
-0.351571175090076,-0.351571175090076
-0.38679098844830034,-0.38679098844830034
-0.44348629775666154,-0.44348629775666154
-0.48987336900895706,-0.48987336900895706
-0.5061947459310611,-0.5061947459310611
-0.48987336900895706,-0.48987336900895706
-0.4761290516008695,-0.4761290516008695
-0.48987336900895706,-0.48987336900895706
-0.538837499775269,-0.538837499775269
-0.5929557495696137,-0.5929557495696137
-0.63161164227986,-0.63161164227986
-0.644496939849942,-0.644496939849942
-0.647933019201964,-0.647933019201964
-0.644496939849942,-0.644496939849942
-0.6307526224418545,-0.6307526224418545
-0.5929557495696137,-0.5929557495696137
-0.5422735791272909,-0.5422735791272909
-0.48987336900895706,-0.48987336900895706
-0.4417682580806506,-0.4417682580806506
-0.38679098844830034,-0.38679098844830034
-0.3541482346040924,-0.3541482346040924
-0.38679098844830034,-0.38679098844830034
-0.5018996467410337,-0.5018996467410337
-0.644496939849942,-0.644496939849942
-0.7664777568467191,-0.7664777568467191
-0.84980268113325,-0.84980268113325
-0.9030619110895893,-0.9030619110895893
-0.9013438714135783,-0.9013438714135783
-0.8678420977313649,-0.8678420977313649
-0.84980268113325,-0.84980268113325
-0.8944717127095345,-0.8944717127095345
-0.9528850616939066,-0.9528850616939066
-0.9777966369960653,-0.9777966369960653
-0.9528850616939066,-0.9528850616939066
-0.9142291689836605,-0.9142291689836605
-0.84980268113325,-0.84980268113325
-0.7742089353887684,-0.7742089353887684
-0.6960381301302704,-0.6960381301302704
-0.6487920390399694,-0.6487920390399694
-0.5929557495696137,-0.5929557495696137
-0.507912785607072,-0.507912785607072
-0.38679098844830034,-0.38679098844830034
-0.2751184095075889,-0.2751184095075889
-0.180626227326987,-0.180626227326987
-0.1144816998005656,-0.1144816998005656
-0.07754384676633029,-0.07754384676633029
-0.07668482692832482,-0.07668482692832482
-0.07754384676633029,-0.07754384676633029
-0.03716991438007309,-0.03716991438007309
0.07707972407465474,0.07707972407465474
0.2634870289218423,0.2634870289218423
0.5409504365976099,0.5409504365976099
0.9446897604601818,0.9446897604601818
1.5202330519238485,1.5202330519238485
2.2315014777923796,2.2315014777923796
2.9625273599350366,2.9625273599350366
3.5372116315606976,3.5372116315606976
3.8387275947006185,3.8387275947006185
3.836150535186602,3.836150535186602
3.5810216432989765,3.5810216432989765
3.116291910938016,3.116291910938016
2.4986566474120813,2.4986566474120813
1.8054276381416652,1.8054276381416652
1.15944471996155,1.15944471996155
0.6320065394261899,0.6320065394261899
0.23170329491563976,0.23170329491563976
-0.0895701244984069,-0.0895701244984069
-0.335249798167972,-0.335249798167972
-0.4890143491709516,-0.4890143491709516
-0.5414145592892854,-0.5414145592892854
-0.5422735791272909,-0.5422735791272909
-0.5414145592892854,-0.5414145592892854
-0.5654671147534386,-0.5654671147534386
-0.5929557495696137,-0.5929557495696137
-0.6213034042237944,-0.6213034042237944
-0.644496939849942,-0.644496939849942
-0.664254396124068,-0.664254396124068
-0.644496939849942,-0.644496939849942
-0.5972508487596411,-0.5972508487596411
-0.5414145592892854,-0.5414145592892854
-0.5165029839871267,-0.5165029839871267
-0.48987336900895706,-0.48987336900895706
-0.460666694516771,-0.460666694516771
-0.43833217872862873,-0.43833217872862873
-0.45980767467876554,-0.45980767467876554
-0.48987336900895706,-0.48987336900895706
-0.4890143491709516,-0.4890143491709516
-0.43833217872862873,-0.43833217872862873
-0.37648275039223467,-0.37648275039223467
-0.335249798167972,-0.335249798167972
-0.3421219568720158,-0.3421219568720158
-0.38679098844830034,-0.38679098844830034
-0.4391911985666342,-0.4391911985666342
-0.43833217872862873,-0.43833217872862873
-0.3739056908782183,-0.3739056908782183
-0.2837086078876437,-0.2837086078876437
-0.23560349695933722,-0.23560349695933722
-0.23216741760731532,-0.23216741760731532
-0.2459117350154029,-0.2459117350154029
-0.23216741760731532,-0.23216741760731532
-0.19093446538305264,-0.19093446538305264
-0.12908503704665863,-0.12908503704665863
-0.07324874757630292,-0.07324874757630292
-0.026002656486001946,-0.026002656486001946
0.0160893155762662,0.0160893155762662
0.07707972407465474,0.07707972407465474
0.13978817224905424,0.13978817224905424
0.18016210463531143,0.18016210463531143
0.18188014431132238,0.18188014431132238
0.18016210463531143,0.18016210463531143
0.19820152123342635,0.19820152123342635
0.23170329491563976,0.23170329491563976
0.24372957264771639,0.24372957264771639
0.23170329491563976,0.23170329491563976
0.2024966204234537,0.2024966204234537
0.18016210463531143,0.18016210463531143
0.1689948467412403,0.1689948467412403
0.18016210463531143,0.18016210463531143
0.19132936252938257,0.19132936252938257
0.18016210463531143,0.18016210463531143
0.11831267629891742,0.11831267629891742
0.0255385337943264,0.0255385337943264
-0.06895364838627557,-0.06895364838627557
-0.12908503704665863,-0.12908503704665863
-0.14970151315878996,-0.14970151315878996
-0.12908503704665863,-0.12908503704665863
-0.09558326336444521,-0.09558326336444521
-0.07754384676633029,-0.07754384676633029
-0.11018660061053824,-0.11018660061053824
-0.180626227326987,-0.180626227326987
-0.2536429135574521,-0.2536429135574521
-0.2837086078876437,-0.2837086078876437
-0.2819905682116327,-0.2819905682116327
-0.2837086078876437,-0.2837086078876437
-0.32494156011190634,-0.32494156011190634
-0.38679098844830034,-0.38679098844830034
-0.4477813969466889,-0.4477813969466889
-0.48987336900895706,-0.48987336900895706
-0.5216571030151596,-0.5216571030151596
-0.5414145592892854,-0.5414145592892854
-0.5646080949154332,-0.5646080949154332
-0.5929557495696137,-0.5929557495696137
-0.6135722256817451,-0.6135722256817451
-0.5929557495696137,-0.5929557495696137
-0.5491457378313347,-0.5491457378313347
-0.5414145592892854,-0.5414145592892854
-0.6084181066537122,-0.6084181066537122
-0.6960381301302704,-0.6960381301302704
-0.7312579434884948,-0.7312579434884948
-0.6960381301302704,-0.6960381301302704
-0.6505100787159804,-0.6505100787159804
-0.644496939849942,-0.644496939849942
-0.6891659714262266,-0.6891659714262266
-0.7467203005725933,-0.7467203005725933
-0.7905303123108723,-0.7905303123108723
-0.7982614908529216,-0.7982614908529216
-0.7939663916628943,-0.7939663916628943
-0.7982614908529216,-0.7982614908529216
-0.8257501256690968,-0.8257501256690968
-0.84980268113325,-0.84980268113325
-0.8583928795133047,-0.8583928795133047
-0.84980268113325,-0.84980268113325
-0.8472256216192335,-0.8472256216192335
-0.84980268113325,-0.84980268113325
-0.8687011175693704,-0.8687011175693704
-0.9013438714135783,-0.9013438714135783
-0.9537440815319121,-0.9537440815319121
-1.004426251974235,-1.004426251974235
-1.0576854819305743,-1.0576854819305743
-1.1075086325348917,-1.1075086325348917
-1.1375743268650833,-1.1375743268650833
-1.1075086325348917,-1.1075086325348917
-1.0422231248464757,-1.0422231248464757
-1.004426251974235,-1.004426251974235
-1.0422231248464757,-1.0422231248464757
-1.1075086325348917,-1.1075086325348917
-1.1504596244351653,-1.1504596244351653
-1.15904982281522,-1.15904982281522
-1.1521776641111763,-1.1521776641111763
-1.1075086325348917,-1.1075086325348917
-1.0284788074383882,-1.0284788074383882
-0.9528850616939066,-0.9528850616939066
-0.9357046649337972,-0.9357046649337972
-0.9528850616939066,-0.9528850616939066
-0.9666293791019942,-0.9666293791019942
-0.9528850616939066,-0.9528850616939066
-0.9339866252577863,-0.9339866252577863
-0.9013438714135783,-0.9013438714135783
-0.8549568001612828,-0.8549568001612828
-0.7982614908529216,-0.7982614908529216
-0.7630416774946973,-0.7630416774946973
-0.7467203005725933,-0.7467203005725933
-0.7338350030025113,-0.7338350030025113
-0.6960381301302704,-0.6960381301302704
-0.6453559596879476,-0.6453559596879476
-0.5929557495696137,-0.5929557495696137
-0.5457096584793127,-0.5457096584793127
-0.48987336900895706,-0.48987336900895706
-0.4323190398625904,-0.4323190398625904
-0.38679098844830034,-0.38679098844830034
-0.3635974528221526,-0.3635974528221526
-0.335249798167972,-0.335249798167972
-0.2888627269156765,-0.2888627269156765
-0.23216741760731532,-0.23216741760731532
-0.19780662408709643,-0.19780662408709643
-0.180626227326987,-0.180626227326987
-0.16344583056687753,-0.16344583056687753
-0.12908503704665863,-0.12908503704665863
-0.09730130304045616,-0.09730130304045616
-0.07754384676633029,-0.07754384676633029
-0.07668482692832482,-0.07668482692832482
-0.07754384676633029,-0.07754384676633029
-0.08012090628034671,-0.08012090628034671
-0.07754384676633029,-0.07754384676633029
-0.07926188644234124,-0.07926188644234124
-0.07754384676633029,-0.07754384676633029
-0.07926188644234124,-0.07926188644234124
-0.07754384676633029,-0.07754384676633029
-0.08183894595635766,-0.08183894595635766
-0.07754384676633029,-0.07754384676633029
-0.06294050952023726,-0.06294050952023726
-0.026002656486001946,-0.026002656486001946
0.007499117196211476,0.007499117196211476
0.0255385337943264,0.0255385337943264
0.01952539492828809,0.01952539492828809
0.0255385337943264,0.0255385337943264
0.05818128763853435,0.05818128763853435
0.12862091435498307,0.12862091435498307
0.21967701718356317,0.21967701718356317
0.33478567547629645,0.33478567547629645
0.44645825441700787,0.44645825441700787
0.5409504365976099,0.5409504365976099
0.6096720236380476,0.6096720236380476
0.6955740074385949,0.6955740074385949
0.799515407837257,0.799515407837257
0.9017387685599083,0.9017387685599083
0.9618701572202913,0.9618701572202913
1.004821149120565,1.004821149120565
1.050349200534855,1.050349200534855
1.1079035296812216,1.1079035296812216
1.143123343039446,1.143123343039446
1.15944471996155,1.15944471996155
1.15944471996155,1.15944471996155
1.15944471996155,1.15944471996155
1.1388282438494186,1.1388282438494186
1.1079035296812216,1.1079035296812216
1.0726837163229972,1.0726837163229972
1.0563623394008932,1.0563623394008932
1.0366048831267674,1.0366048831267674
1.004821149120565,1.004821149120565
0.9481258398122038,0.9481258398122038
0.9017387685599083,0.9017387685599083
0.8682369948776948,0.8682369948776948
0.8501975782795799,0.8501975782795799
0.817554824435372,0.817554824435372
0.7986563879992515,0.7986563879992515
0.8020924673512735,0.8020924673512735
0.8501975782795799,0.8501975782795799
0.8897124908278317,0.8897124908278317
0.9017387685599083,0.9017387685599083
0.8553516973076127,0.8553516973076127
0.7986563879992515,0.7986563879992515
0.7634365746410272,0.7634365746410272
0.7986563879992515,0.7986563879992515
0.8596467964976401,0.8596467964976401
0.9017387685599083,0.9017387685599083
0.8836993519617934,0.8836993519617934
0.8501975782795799,0.8501975782795799
0.832158161681465,0.832158161681465
0.8501975782795799,0.8501975782795799
0.8957256296938699,0.8957256296938699
1.004821149120565,1.004821149120565
1.2015366920238182,1.2015366920238182
1.5202330519238485,1.5202330519238485
1.9772316057427597,1.9772316057427597
2.601739027972738,2.601739027972738
3.3241747117353406,3.3241747117353406
3.9933511655416036,3.9933511655416036
4.430592263086389,4.430592263086389
4.560304258625215,4.560304258625215
4.364447735559968,4.364447735559968
3.8902687849809467,3.8902687849809467
3.2185152716606673,3.2185152716606673
2.4986566474120813,2.4986566474120813
1.8346343126338513,1.8346343126338513
1.2625271005222067,1.2625271005222067
0.7557053960989779,0.7557053960989779
0.33478567547629645,0.33478567547629645
0.021243434604299036,0.021243434604299036
-0.180626227326987,-0.180626227326987
-0.32494156011190634,-0.32494156011190634
-0.43833217872862873,-0.43833217872862873
-0.5336833807472361,-0.5336833807472361
-0.5929557495696137,-0.5929557495696137
-0.6281755629278382,-0.6281755629278382
-0.644496939849942,-0.644496939849942
-0.6694085151521008,-0.6694085151521008
-0.6960381301302704,-0.6960381301302704
-0.7166546062424017,-0.7166546062424017
-0.6960381301302704,-0.6960381301302704
-0.6659724358000789,-0.6659724358000789
-0.644496939849942,-0.644496939849942
-0.6530871382299968,-0.6530871382299968
-0.644496939849942,-0.644496939849942
-0.6187263447097779,-0.6187263447097779
-0.5929557495696137,-0.5929557495696137
-0.5963918289216357,-0.5963918289216357
-0.5929557495696137,-0.5929557495696137
-0.5689031941054605,-0.5689031941054605
-0.5414145592892854,-0.5414145592892854
-0.5568769163733839,-0.5568769163733839
-0.5929557495696137,-0.5929557495696137
-0.6127132058437396,-0.6127132058437396
-0.5929557495696137,-0.5929557495696137
-0.5654671147534386,-0.5654671147534386
-0.5414145592892854,-0.5414145592892854
-0.522516122853165,-0.522516122853165
-0.48987336900895706,-0.48987336900895706
-0.446063357270678,-0.446063357270678
-0.38679098844830034,-0.38679098844830034
-0.3318137188159501,-0.3318137188159501
-0.2837086078876437,-0.2837086078876437
-0.242475655663381,-0.242475655663381
-0.180626227326987,-0.180626227326987
-0.10503248158250542,-0.10503248158250542
-0.026002656486001946,-0.026002656486001946
0.04357795039244132,0.04357795039244132
0.12862091435498307,0.12862091435498307
0.22998525523962884,0.22998525523962884
0.33478567547629645,0.33478567547629645
0.4155335402488109,0.4155335402488109
0.4894092463172815,0.4894092463172815
0.5641439722237576,0.5641439722237576
0.6440328171582665,0.6440328171582665
0.7015871463046331,0.7015871463046331
0.7471151977189232,0.7471151977189232
0.7771808920491148,0.7771808920491148
0.7986563879992515,0.7986563879992515
0.7986563879992515,0.7986563879992515
0.7986563879992515,0.7986563879992515
0.7977973681612461,0.7977973681612461
0.7986563879992515,0.7986563879992515
0.7763218722111093,0.7763218722111093
0.7471151977189232,0.7471151977189232
0.7136134240367098,0.7136134240367098
0.6955740074385949,0.6955740074385949
0.6852657693825293,0.6852657693825293
0.6955740074385949,0.6955740074385949
0.7144724438747153,0.7144724438747153
0.7471151977189232,0.7471151977189232
0.7840530507531586,0.7840530507531586
0.8501975782795799,0.8501975782795799
0.94125368110816,0.94125368110816
1.0563623394008932,1.0563623394008932
1.162880799313572,1.162880799313572
1.2625271005222067,1.2625271005222067
1.344993004970732,1.344993004970732
1.4171506713631916,1.4171506713631916
1.455806564073438,1.455806564073438
1.46869186164352,1.46869186164352
1.4643967624534926,1.4643967624534926
1.46869186164352,1.46869186164352
1.4489344053693942,1.4489344053693942
1.3656094810828634,1.3656094810828634
1.1981006126717964,1.1981006126717964
1.004821149120565,1.004821149120565
0.8330171815194705,0.8330171815194705
0.6955740074385949,0.6955740074385949
0.5624259325477466,0.5624259325477466
0.43786805603695317,0.43786805603695317
0.32619547709624175,0.32619547709624175
0.23170329491563976,0.23170329491563976
0.12947993419298856,0.12947993419298856
0.0255385337943264,0.0255385337943264
-0.08097992611835218,-0.08097992611835218
-0.180626227326987,-0.180626227326987
-0.2862856674016601,-0.2862856674016601
-0.38679098844830034,-0.38679098844830034
-0.4907323888469625,-0.4907323888469625
-0.5929557495696137,-0.5929557495696137
-0.7046283285103252,-0.7046283285103252
-0.7982614908529216,-0.7982614908529216
-0.8678420977313649,-0.8678420977313649
-0.9013438714135783,-0.9013438714135783
-0.929691526067759,-0.929691526067759
-0.9528850616939066,-0.9528850616939066
-0.9717834981300271,-0.9717834981300271
-0.9528850616939066,-0.9528850616939066
-0.9090750499556276,-0.9090750499556276
-0.84980268113325,-0.84980268113325
-0.8016975702049436,-0.8016975702049436
-0.7467203005725933,-0.7467203005725933
-0.6943200904542595,-0.6943200904542595
-0.644496939849942,-0.644496939849942
-0.6024049677876739,-0.6024049677876739
-0.5414145592892854,-0.5414145592892854
-0.4632437540307874,-0.4632437540307874
-0.38679098844830034,-0.38679098844830034
-0.335249798167972,-0.335249798167972
-0.2837086078876437,-0.2837086078876437
-0.22787231841728797,-0.22787231841728797
-0.180626227326987,-0.180626227326987
-0.16000975121485564,-0.16000975121485564
-0.12908503704665863,-0.12908503704665863
-0.06208148968223179,-0.06208148968223179
0.0255385337943264,0.0255385337943264
0.08910600180673135,0.08910600180673135
0.12862091435498307,0.12862091435498307
0.15696856900916367,0.15696856900916367
0.18016210463531143,0.18016210463531143
0.16985386657924575,0.16985386657924575
0.12862091435498307,0.12862091435498307
0.07106658520861643,0.07106658520861643
0.0255385337943264,0.0255385337943264
-0.007104220049881554,-0.007104220049881554
-0.026002656486001946,-0.026002656486001946
-0.049196192112149706,-0.049196192112149706
-0.07754384676633029,-0.07754384676633029
-0.11104562044854371,-0.11104562044854371
-0.12908503704665863,-0.12908503704665863
-0.13423915607469147,-0.13423915607469147
-0.12908503704665863,-0.12908503704665863
-0.13080307672266958,-0.13080307672266958
-0.12908503704665863,-0.12908503704665863
-0.12908503704665863,-0.12908503704665863
-0.12908503704665863,-0.12908503704665863
-0.13595719575070242,-0.13595719575070242
-0.12908503704665863,-0.12908503704665863
-0.10932758077253277,-0.10932758077253277
-0.07754384676633029,-0.07754384676633029
-0.05435031114018254,-0.05435031114018254
-0.026002656486001946,-0.026002656486001946
-0.016553438267941752,-0.016553438267941752
-0.026002656486001946,-0.026002656486001946
-0.06465854919624821,-0.06465854919624821
-0.07754384676633029,-0.07754384676633029
-0.061222469844226315,-0.061222469844226315
-0.026002656486001946,-0.026002656486001946
-0.018271477943952695,-0.018271477943952695
-0.026002656486001946,-0.026002656486001946
-0.032874815190045724,-0.032874815190045724
-0.026002656486001946,-0.026002656486001946
-0.03974697389408951,-0.03974697389408951
-0.07754384676633029,-0.07754384676633029
-0.09730130304045616,-0.09730130304045616
-0.026002656486001946,-0.026002656486001946
0.13892915241104875,0.13892915241104875
0.38632686575662484,0.38632686575662484
0.7642955944790327,0.7642955944790327
1.3656094810828634,1.3656094810828634
2.126701057555712,2.126701057555712
2.8594449793743797,2.8594449793743797
3.4384243501900684,3.4384243501900684
3.8902687849809467,3.8902687849809467
4.146256696706578,4.146256696706578
3.9933511655416036,3.9933511655416036
3.35080432671351,3.35080432671351
2.4986566474120813,2.4986566474120813
1.7641946859174025,1.7641946859174025
1.2109859102418783,1.2109859102418783
0.7050232256566551,0.7050232256566551
0.23170329491563976,0.23170329491563976
-0.13595719575070242,-0.13595719575070242
-0.38679098844830034,-0.38679098844830034
-0.5903786900555973,-0.5903786900555973
-0.7467203005725933,-0.7467203005725933
-0.8283271851831132,-0.8283271851831132
-0.84980268113325,-0.84980268113325
-0.8755732762734142,-0.8755732762734142
-0.9013438714135783,-0.9013438714135783
-0.911652109469644,-0.911652109469644
-0.9013438714135783,-0.9013438714135783
-0.8936126928715291,-0.8936126928715291
-0.84980268113325,-0.84980268113325
-0.7647597171707082,-0.7647597171707082
-0.644496939849942,-0.644496939849942
-0.537119460099258,-0.537119460099258
-0.43833217872862873,-0.43833217872862873
-0.37820079006824564,-0.37820079006824564
-0.38679098844830034,-0.38679098844830034
-0.4812831706289023,-0.4812831706289023
-0.5929557495696137,-0.5929557495696137
-0.6668314556380843,-0.6668314556380843
-0.6960381301302704,-0.6960381301302704
-0.7218087252704346,-0.7218087252704346
-0.7467203005725933,-0.7467203005725933
-0.75874657830467,-0.75874657830467
-0.7467203005725933,-0.7467203005725933
-0.742425201382566,-0.742425201382566
-0.7467203005725933,-0.7467203005725933
-0.7561695187906535,-0.7561695187906535
-0.7467203005725933,-0.7467203005725933
-0.726103824460462,-0.726103824460462
-0.6960381301302704,-0.6960381301302704
-0.6702675349901063,-0.6702675349901063
-0.644496939849942,-0.644496939849942
-0.6221624240617998,-0.6221624240617998
-0.5929557495696137,-0.5929557495696137
-0.551722797345351,-0.551722797345351
-0.48987336900895706,-0.48987336900895706
-0.42716492083455754,-0.42716492083455754
-0.38679098844830034,-0.38679098844830034
-0.38421392893428397,-0.38421392893428397
-0.38679098844830034,-0.38679098844830034
-0.3575843139561143,-0.3575843139561143
-0.2837086078876437,-0.2837086078876437
-0.211550941495184,-0.211550941495184
-0.180626227326987,-0.180626227326987
-0.1857803463550198,-0.1857803463550198
-0.180626227326987,-0.180626227326987
-0.16516387024288848,-0.16516387024288848
-0.180626227326987,-0.180626227326987
-0.2536429135574521,-0.2536429135574521
-0.335249798167972,-0.335249798167972
-0.37820079006824564,-0.37820079006824564
-0.38679098844830034,-0.38679098844830034
-0.4056894248844208,-0.4056894248844208
-0.43833217872862873,-0.43833217872862873
-0.46839787305882025,-0.46839787305882025
-0.48987336900895706,-0.48987336900895706
-0.5293882815572087,-0.5293882815572087
-0.5929557495696137,-0.5929557495696137
-0.6728445945041227,-0.6728445945041227
-0.7467203005725933,-0.7467203005725933
-0.8094287487469928,-0.8094287487469928
-0.84980268113325,-0.84980268113325
-0.8781503357874306,-0.8781503357874306
-0.9013438714135783,-0.9013438714135783
-0.9314095657437699,-0.9314095657437699
-0.9528850616939066,-0.9528850616939066
-0.9597572203979504,-0.9597572203979504
-0.9528850616939066,-0.9528850616939066
-0.9631932997499724,-0.9631932997499724
-1.004426251974235,-1.004426251974235
-1.0800199977187166,-1.0800199977187166
-1.15904982281522,-1.15904982281522
-1.2234763106656306,-1.2234763106656306
-1.2621322033758768,-1.2621322033758768
-1.2904798580300574,-1.2904798580300574
-1.313673393656205,-1.313673393656205
-1.3403030086343748,-1.3403030086343748
-1.3652145839365335,-1.3652145839365335
-1.3944212584287194,-1.3944212584287194
-1.4167557742168617,-1.4167557742168617
-1.4279230321109329,-1.4279230321109329
-1.4167557742168617,-1.4167557742168617
-1.4038704766467798,-1.4038704766467798
-1.4167557742168617,-1.4167557742168617
-1.481182262067272,-1.481182262067272
-1.5713793450578468,-1.5713793450578468
-1.6358058329082572,-1.6358058329082572
-1.6229205353381753,-1.6229205353381753
-1.54990384910771,-1.54990384910771
-1.4682969644971902,-1.4682969644971902
-1.4279230321109329,-1.4279230321109329
-1.4167557742168617,-1.4167557742168617
-1.4184738138928727,-1.4184738138928727
-1.4167557742168617,-1.4167557742168617
-1.4064475361607962,-1.4064475361607962
-1.3652145839365335,-1.3652145839365335
-1.3076602547901668,-1.3076602547901668
-1.2621322033758768,-1.2621322033758768
-1.2423747471017508,-1.2423747471017508
-1.2105910130955484,-1.2105910130955484
-1.1573317831392091,-1.1573317831392091
-1.1075086325348917,-1.1075086325348917
-1.0868921564227603,-1.0868921564227603
-1.0559674422545633,-1.0559674422545633
-1.0009901726222132,-1.0009901726222132
-0.9528850616939066,-0.9528850616939066
-0.9520260418559012,-0.9520260418559012
-0.9528850616939066,-0.9528850616939066
-0.8996258317375674,-0.8996258317375674
-0.7982614908529216,-0.7982614908529216
-0.7346940228405167,-0.7346940228405167
-0.7467203005725933,-0.7467203005725933
-0.7956844313389052,-0.7956844313389052
-0.7982614908529216,-0.7982614908529216
-0.7346940228405167,-0.7346940228405167
-0.644496939849942,-0.644496939849942
-0.5920967297316083,-0.5920967297316083
-0.5929557495696137,-0.5929557495696137
-0.6221624240617998,-0.6221624240617998
-0.644496939849942,-0.644496939849942
-0.6522281183919914,-0.6522281183919914
-0.644496939849942,-0.644496939849942
-0.6247394835758162,-0.6247394835758162
-0.5929557495696137,-0.5929557495696137
-0.5766343726475097,-0.5766343726475097
-0.5929557495696137,-0.5929557495696137
-0.6307526224418545,-0.6307526224418545
-0.644496939849942,-0.644496939849942
-0.6230214438998053,-0.6230214438998053
-0.5929557495696137,-0.5929557495696137
-0.5878016305415809,-0.5878016305415809
-0.5929557495696137,-0.5929557495696137
-0.5946737892456246,-0.5946737892456246
-0.5929557495696137,-0.5929557495696137
-0.598968888435652,-0.598968888435652
-0.5929557495696137,-0.5929557495696137
-0.5706212337814714,-0.5706212337814714
-0.5414145592892854,-0.5414145592892854
-0.524234162529176,-0.524234162529176
-0.48987336900895706,-0.48987336900895706
-0.4503584564607053,-0.4503584564607053
-0.43833217872862873,-0.43833217872862873
-0.5027586665790391,-0.5027586665790391
-0.5929557495696137,-0.5929557495696137
-0.6410608604979202,-0.6410608604979202
-0.5929557495696137,-0.5929557495696137
-0.48987336900895706,-0.48987336900895706
-0.38679098844830034,-0.38679098844830034
-0.336967837843983,-0.336967837843983
-0.335249798167972,-0.335249798167972
-0.36617451233616904,-0.36617451233616904
-0.38679098844830034,-0.38679098844830034
-0.3670335321741745,-0.3670335321741745
-0.2837086078876437,-0.2837086078876437
-0.1548556321868228,-0.1548556321868228
0.0255385337943264,0.0255385337943264
0.3270544969342472,0.3270544969342472
0.8501975782795799,0.8501975782795799
1.5709152223661713,1.5709152223661713
2.3440330765710966,2.3440330765710966
3.0166456097293812,3.0166456097293812
3.5294804530186483,3.5294804530186483
3.808661900370427,3.808661900370427
3.7356452141399616,3.7356452141399616
3.248580965990859,3.248580965990859
2.4986566474120813,2.4986566474120813
1.7324109519112,1.7324109519112
1.1079035296812216,1.1079035296812216
0.6088130038000422,0.6088130038000422
0.18016210463531143,0.18016210463531143
-0.19608858441108548,-0.19608858441108548
-0.48987336900895706,-0.48987336900895706
-0.7037693086723197,-0.7037693086723197
-0.84980268113325,-0.84980268113325
-0.9399997641238246,-0.9399997641238246
-0.9528850616939066,-0.9528850616939066
-0.9090750499556276,-0.9090750499556276
-0.84980268113325,-0.84980268113325
-0.8343403240491515,-0.8343403240491515
-0.84980268113325,-0.84980268113325
-0.8687011175693704,-0.8687011175693704
-0.84980268113325,-0.84980268113325
-0.8094287487469928,-0.8094287487469928
-0.7467203005725933,-0.7467203005725933
-0.7037693086723197,-0.7037693086723197
-0.6960381301302704,-0.6960381301302704
-0.7441432410585769,-0.7441432410585769
-0.7982614908529216,-0.7982614908529216
-0.8240320859930859,-0.8240320859930859
-0.7982614908529216,-0.7982614908529216
-0.7647597171707082,-0.7647597171707082
-0.7467203005725933,-0.7467203005725933
-0.7510153997626207,-0.7510153997626207
-0.7467203005725933,-0.7467203005725933
-0.742425201382566,-0.742425201382566
-0.7467203005725933,-0.7467203005725933
-0.7630416774946973,-0.7630416774946973
-0.7467203005725933,-0.7467203005725933
-0.6968971499682759,-0.6968971499682759
-0.644496939849942,-0.644496939849942
-0.6333296819558709,-0.6333296819558709
-0.644496939849942,-0.644496939849942
-0.6522281183919914,-0.6522281183919914
-0.644496939849942,-0.644496939849942
-0.6324706621178655,-0.6324706621178655
-0.5929557495696137,-0.5929557495696137
-0.5096308252830829,-0.5096308252830829
-0.38679098844830034,-0.38679098844830034
-0.27168233015556703,-0.27168233015556703
-0.180626227326987,-0.180626227326987
-0.10503248158250542,-0.10503248158250542
-0.026002656486001946,-0.026002656486001946
0.0255385337943264,0.0255385337943264
0.0255385337943264,0.0255385337943264
-0.01569441842993628,-0.01569441842993628
-0.026002656486001946,-0.026002656486001946
0.02983363298435376,0.02983363298435376
0.12862091435498307,0.12862091435498307
0.20163760058544825,0.20163760058544825
0.23170329491563976,0.23170329491563976
0.23170329491563976,0.23170329491563976
0.23170329491563976,0.23170329491563976
0.22998525523962884,0.22998525523962884
0.23170329491563976,0.23170329491563976
0.21795897750755222,0.21795897750755222
0.18016210463531143,0.18016210463531143
0.11917169613692288,0.11917169613692288
0.07707972407465474,0.07707972407465474
0.0659124661805836,0.0659124661805836
0.07707972407465474,0.07707972407465474
0.07793874391266022,0.07793874391266022
0.07707972407465474,0.07707972407465474
0.07707972407465474,0.07707972407465474
0.07707972407465474,0.07707972407465474
0.05560422812451793,0.05560422812451793
0.0255385337943264,0.0255385337943264
-0.007104220049881554,-0.007104220049881554
-0.026002656486001946,-0.026002656486001946
-0.03802893421807856,-0.03802893421807856
-0.026002656486001946,-0.026002656486001946
-0.00023206134583777526,-0.00023206134583777526
0.0255385337943264,0.0255385337943264
0.01265323622424431,0.01265323622424431
-0.026002656486001946,-0.026002656486001946
-0.05520933097818801,-0.05520933097818801
-0.026002656486001946,-0.026002656486001946
0.034987752012386596,0.034987752012386596
0.07707972407465474,0.07707972407465474
0.06161736699055624,0.06161736699055624
0.0255385337943264,0.0255385337943264
-0.00538618037387061,-0.00538618037387061
-0.026002656486001946,-0.026002656486001946
-0.05950443016821537,-0.05950443016821537
-0.07754384676633029,-0.07754384676633029
-0.06723560871026463,-0.06723560871026463
-0.026002656486001946,-0.026002656486001946
0.016948335414271674,0.016948335414271674
0.07707972407465474,0.07707972407465474
0.13549307305902686,0.13549307305902686
0.18016210463531143,0.18016210463531143
0.18016210463531143,0.18016210463531143
0.18016210463531143,0.18016210463531143
0.19562446171940995,0.19562446171940995
0.23170329491563976,0.23170329491563976
0.24115251313369998,0.24115251313369998
0.23170329491563976,0.23170329491563976
0.21881799734555768,0.21881799734555768
0.23170329491563976,0.23170329491563976
0.2523197710277711,0.2523197710277711
0.2832444851959681,0.2832444851959681
0.333926655638291,0.333926655638291
0.43786805603695317,0.43786805603695317
0.5881965276879109,0.5881965276879109
0.7986563879992515,0.7986563879992515
1.1293790256313585,1.1293790256313585
1.6748566227648334,1.6748566227648334
2.405023485069485,2.405023485069485
3.16869212105635,3.16869212105635
3.8026487615043885,3.8026487615043885
4.251057116943246,4.251057116943246
4.46065795741658,4.46065795741658
4.354139497503902,4.354139497503902
3.8962819238469852,3.8962819238469852
3.220233311336678,3.220233311336678
2.5003746870880925,2.5003746870880925
1.8294801936058185,1.8294801936058185
1.1998186523478072,1.1998186523478072
0.6440328171582665,0.6440328171582665
0.21194583864151392,0.21194583864151392
-0.07754384676633029,-0.07754384676633029
-0.28113154837362725,-0.28113154837362725
-0.43833217872862873,-0.43833217872862873
-0.5654671147534386,-0.5654671147534386
-0.644496939849942,-0.644496939849942
-0.6840118523981938,-0.6840118523981938
-0.6960381301302704,-0.6960381301302704
-0.7166546062424017,-0.7166546062424017
-0.7467203005725933,-0.7467203005725933
-0.786235213120845,-0.786235213120845
-0.7982614908529216,-0.7982614908529216
-0.8016975702049436,-0.8016975702049436
-0.7982614908529216,-0.7982614908529216
-0.8094287487469928,-0.8094287487469928
-0.7982614908529216,-0.7982614908529216
-0.7759269750647794,-0.7759269750647794
-0.7467203005725933,-0.7467203005725933
-0.7458612807345878,-0.7458612807345878
-0.7467203005725933,-0.7467203005725933
-0.7355530426785222,-0.7355530426785222
-0.6960381301302704,-0.6960381301302704
-0.6616773366100516,-0.6616773366100516
-0.644496939849942,-0.644496939849942
-0.6470739993639585,-0.6470739993639585
-0.644496939849942,-0.644496939849942
-0.6298936026038491,-0.6298936026038491
-0.5929557495696137,-0.5929557495696137
-0.5457096584793127,-0.5457096584793127
-0.48987336900895706,-0.48987336900895706
-0.43833217872862873,-0.43833217872862873
-0.38679098844830034,-0.38679098844830034
-0.33954489735799936,-0.33954489735799936
-0.2837086078876437,-0.2837086078876437
-0.2175640803612223,-0.2175640803612223
-0.12908503704665863,-0.12908503704665863
-0.028579716000018365,-0.028579716000018365
0.07707972407465474,0.07707972407465474
0.16384072771320746,0.16384072771320746
0.23170329491563976,0.23170329491563976
0.2806674256819517,0.2806674256819517
0.33478567547629645,0.33478567547629645
0.4017892228407233,0.4017892228407233
0.4894092463172815,0.4894092463172815
0.5735931904418178,0.5735931904418178
0.6440328171582665,0.6440328171582665
0.6809706701925018,0.6809706701925018
0.6955740074385949,0.6955740074385949
0.693855967762584,0.693855967762584
0.6955740074385949,0.6955740074385949
0.6955740074385949,0.6955740074385949
0.6955740074385949,0.6955740074385949
0.67753459084048,0.67753459084048
0.6440328171582665,0.6440328171582665
0.5924916268779382,0.5924916268779382
0.5409504365976099,0.5409504365976099
0.4876912066412706,0.4876912066412706
0.43786805603695317,0.43786805603695317
0.38289078640460295,0.38289078640460295
0.33478567547629645,0.33478567547629645
0.2832444851959681,0.2832444851959681
0.23170329491563976,0.23170329491563976
0.18703426333935522,0.18703426333935522
0.18016210463531143,0.18016210463531143
0.18961132285337162,0.18961132285337162
0.18016210463531143,0.18016210463531143
0.12690287467897216,0.12690287467897216
0.07707972407465474,0.07707972407465474
0.047014029744463205,0.047014029744463205
0.0255385337943264,0.0255385337943264
-0.010540299401903444,-0.010540299401903444
-0.026002656486001946,-0.026002656486001946
-0.01998951761996364,-0.01998951761996364
-0.026002656486001946,-0.026002656486001946
-0.07926188644234124,-0.07926188644234124
-0.12908503704665863,-0.12908503704665863
-0.14111131477873526,-0.14111131477873526
-0.12908503704665863,-0.12908503704665863
-0.14798347348277904,-0.14798347348277904
-0.180626227326987,-0.180626227326987
-0.19522956457308002,-0.19522956457308002
-0.180626227326987,-0.180626227326987
-0.17633112813695961,-0.17633112813695961
-0.180626227326987,-0.180626227326987
-0.1866393661930253,-0.1866393661930253
-0.180626227326987,-0.180626227326987
-0.180626227326987,-0.180626227326987
-0.180626227326987,-0.180626227326987
-0.1832032868410034,-0.1832032868410034
-0.180626227326987,-0.180626227326987
-0.18406230667900886,-0.18406230667900886
-0.180626227326987,-0.180626227326987
-0.1797672074889815,-0.1797672074889815
-0.180626227326987,-0.180626227326987
-0.1892164257070417,-0.1892164257070417
-0.180626227326987,-0.180626227326987
-0.1582917115388447,-0.1582917115388447
-0.12908503704665863,-0.12908503704665863
-0.1084685609345273,-0.1084685609345273
-0.07754384676633029,-0.07754384676633029
-0.04490109292212234,-0.04490109292212234
-0.026002656486001946,-0.026002656486001946
-0.03201579535204026,-0.03201579535204026
-0.026002656486001946,-0.026002656486001946
-0.00023206134583777526,-0.00023206134583777526
0.0255385337943264,0.0255385337943264
0.023820494118315452,0.023820494118315452
0.0255385337943264,0.0255385337943264
0.04873206942047415,0.04873206942047415
0.07707972407465474,0.07707972407465474
0.06505344634257813,0.06505344634257813
0.0255385337943264,0.0255385337943264
-0.013117358915919862,-0.013117358915919862
-0.026002656486001946,-0.026002656486001946
-0.030297755676029308,-0.030297755676029308
-0.026002656486001946,-0.026002656486001946
-0.025143636647996476,-0.025143636647996476
-0.026002656486001946,-0.026002656486001946
-0.032874815190045724,-0.032874815190045724
-0.026002656486001946,-0.026002656486001946
-0.018271477943952695,-0.018271477943952695
-0.026002656486001946,-0.026002656486001946
-0.05950443016821537,-0.05950443016821537
-0.07754384676633029,-0.07754384676633029
-0.07582580709031934,-0.07582580709031934
-0.07754384676633029,-0.07754384676633029
-0.10760954109652182,-0.10760954109652182
-0.12908503704665863,-0.12908503704665863
-0.12994405688466412,-0.12994405688466412
-0.12908503704665863,-0.12908503704665863
-0.15657367186283375,-0.15657367186283375
-0.180626227326987,-0.180626227326987
-0.1832032868410034,-0.1832032868410034
-0.180626227326987,-0.180626227326987
-0.20639682246715116,-0.20639682246715116
-0.23216741760731532,-0.23216741760731532
-0.23818055647335362,-0.23818055647335362
-0.23216741760731532,-0.23216741760731532
-0.23989859614936457,-0.23989859614936457
-0.23216741760731532,-0.23216741760731532
-0.20381976295313473,-0.20381976295313473
-0.180626227326987,-0.180626227326987
-0.20124270343911832,-0.20124270343911832
-0.23216741760731532,-0.23216741760731532
-0.242475655663381,-0.242475655663381
-0.23216741760731532,-0.23216741760731532
-0.23388545728332627,-0.23388545728332627
-0.23216741760731532,-0.23216741760731532
-0.2141280010092004,-0.2141280010092004
-0.180626227326987,-0.180626227326987
-0.17117700910892678,-0.17117700910892678
-0.180626227326987,-0.180626227326987
-0.19093446538305264,-0.19093446538305264
-0.180626227326987,-0.180626227326987
-0.1737540686229432,-0.1737540686229432
-0.180626227326987,-0.180626227326987
-0.19522956457308002,-0.19522956457308002
-0.180626227326987,-0.180626227326987
-0.13509817591269693,-0.13509817591269693
-0.07754384676633029,-0.07754384676633029
-0.04490109292212234,-0.04490109292212234
-0.026002656486001946,-0.026002656486001946
-0.006245200211876082,-0.006245200211876082
0.0255385337943264,0.0255385337943264
0.039282851202413954,0.039282851202413954
0.0255385337943264,0.0255385337943264
-0.007963239887887026,-0.007963239887887026
-0.026002656486001946,-0.026002656486001946
-0.04232403340810592,-0.04232403340810592
-0.07754384676633029,-0.07754384676633029
-0.1393932751027243,-0.1393932751027243
-0.180626227326987,-0.180626227326987
-0.1866393661930253,-0.1866393661930253
-0.180626227326987,-0.180626227326987
-0.20210172327712378,-0.20210172327712378
-0.23216741760731532,-0.23216741760731532
-0.2450527151773974,-0.2450527151773974
-0.23216741760731532,-0.23216741760731532
-0.22701329857928249,-0.22701329857928249
-0.23216741760731532,-0.23216741760731532
-0.2390395763113591,-0.2390395763113591
-0.23216741760731532,-0.23216741760731532
-0.22959035809329892,-0.22959035809329892
-0.23216741760731532,-0.23216741760731532
-0.24075761598737005,-0.24075761598737005
-0.23216741760731532,-0.23216741760731532
-0.22787231841728797,-0.22787231841728797
-0.23216741760731532,-0.23216741760731532
-0.26309213177551233,-0.26309213177551233
-0.2837086078876437,-0.2837086078876437
-0.2922988062676984,-0.2922988062676984
-0.2837086078876437,-0.2837086078876437
-0.2854266475636546,-0.2854266475636546
-0.2837086078876437,-0.2837086078876437
-0.27082331031756157,-0.27082331031756157
-0.23216741760731532,-0.23216741760731532
-0.19866564392510191,-0.19866564392510191
-0.180626227326987,-0.180626227326987
-0.15915073137685018,-0.15915073137685018
-0.07754384676633029,-0.07754384676633029
0.08137482326468211,0.08137482326468211
0.33478567547629645,0.33478567547629645
0.737665979500863,0.737665979500863
1.3656094810828634,1.3656094810828634
2.150753613019865,2.150753613019865
2.9109861696547084,2.9109861696547084
3.508863976906517,3.508863976906517
3.941809975261275,3.941809975261275
4.153987875248627,4.153987875248627
3.9933511655416036,3.9933511655416036
3.388601199585751,3.388601199585751
2.55019783769241,2.55019783769241
1.76848978510743,1.76848978510743
1.15944471996155,1.15944471996155
0.6448918369962721,0.6448918369962721
0.18016210463531143,0.18016210463531143
-0.19437054473507454,-0.19437054473507454
-0.43833217872862873,-0.43833217872862873
-0.6032639876256795,-0.6032639876256795
-0.7467203005725933,-0.7467203005725933
-0.879009355625436,-0.879009355625436
-0.9528850616939066,-0.9528850616939066
-0.9657703592639888,-0.9657703592639888
-0.9528850616939066,-0.9528850616939066
-0.9709244782920216,-0.9709244782920216
-1.004426251974235,-1.004426251974235
-1.0267607677623773,-1.0267607677623773
-1.004426251974235,-1.004426251974235
-0.9760785973200544,-0.9760785973200544
-0.9528850616939066,-0.9528850616939066
-0.9546031013699177,-0.9546031013699177
-0.9528850616939066,-0.9528850616939066
-0.9571801608839341,-0.9571801608839341
-0.9528850616939066,-0.9528850616939066
-0.9554621212079231,-0.9554621212079231
-0.9528850616939066,-0.9528850616939066
-0.9554621212079231,-0.9554621212079231
-0.9528850616939066,-0.9528850616939066
-0.9554621212079231,-0.9554621212079231
-0.9528850616939066,-0.9528850616939066
-0.9546031013699177,-0.9546031013699177
-0.9528850616939066,-0.9528850616939066
-0.9563211410459286,-0.9563211410459286
-0.9528850616939066,-0.9528850616939066
-0.9528850616939066,-0.9528850616939066
-0.9528850616939066,-0.9528850616939066
-0.9597572203979504,-0.9597572203979504
-0.9528850616939066,-0.9528850616939066
-0.9348456450957917,-0.9348456450957917
-0.9013438714135783,-0.9013438714135783
-0.8609699390273211,-0.8609699390273211
-0.7982614908529216,-0.7982614908529216
-0.724385784784451,-0.724385784784451
-0.644496939849942,-0.644496939849942
-0.5594539758874003,-0.5594539758874003
-0.43833217872862873,-0.43833217872862873
-0.2802725285356218,-0.2802725285356218
-0.12908503704665863,-0.12908503704665863
-0.05778639049220443,-0.05778639049220443
-0.07754384676633029,-0.07754384676633029
-0.14197033461674072,-0.14197033461674072
-0.180626227326987,-0.180626227326987
-0.18406230667900886,-0.18406230667900886
-0.180626227326987,-0.180626227326987
-0.20296074311512927,-0.20296074311512927
-0.23216741760731532,-0.23216741760731532
-0.24419369533939195,-0.24419369533939195
-0.23216741760731532,-0.23216741760731532
-0.22529525890327154,-0.22529525890327154
-0.23216741760731532,-0.23216741760731532
-0.2545019333954576,-0.2545019333954576
-0.2837086078876437,-0.2837086078876437
-0.3292366593019337,-0.3292366593019337
-0.38679098844830034,-0.38679098844830034
-0.44949943662269987,-0.44949943662269987
-0.48987336900895706,-0.48987336900895706
-0.5036176864170446,-0.5036176864170446
-0.48987336900895706,-0.48987336900895706
-0.4675388532208148,-0.4675388532208148
-0.43833217872862873,-0.43833217872862873
-0.4125615835884645,-0.4125615835884645
-0.38679098844830034,-0.38679098844830034
-0.3790598099062511,-0.3790598099062511
-0.38679098844830034,-0.38679098844830034
-0.398817266180377,-0.398817266180377
-0.38679098844830034,-0.38679098844830034
-0.3575843139561143,-0.3575843139561143
-0.335249798167972,-0.335249798167972
-0.3507121552520705,-0.3507121552520705
-0.38679098844830034,-0.38679098844830034
-0.4237288414825357,-0.4237288414825357
-0.43833217872862873,-0.43833217872862873
-0.44348629775666154,-0.44348629775666154
-0.43833217872862873,-0.43833217872862873
-0.4254468811585466,-0.4254468811585466
-0.38679098844830034,-0.38679098844830034
-0.3197874410838735,-0.3197874410838735
-0.23216741760731532,-0.23216741760731532
-0.17461308846094867,-0.17461308846094867
-0.180626227326987,-0.180626227326987
-0.242475655663381,-0.242475655663381
-0.2837086078876437,-0.2837086078876437
-0.257078992909474,-0.257078992909474
-0.180626227326987,-0.180626227326987
-0.14368837429275166,-0.14368837429275166
-0.180626227326987,-0.180626227326987
-0.25621997307146854,-0.25621997307146854
-0.2837086078876437,-0.2837086078876437
-0.2459117350154029,-0.2459117350154029
-0.180626227326987,-0.180626227326987
-0.1462654338067681,-0.1462654338067681
-0.12908503704665863,-0.12908503704665863
-0.09558326336444521,-0.09558326336444521
-0.026002656486001946,-0.026002656486001946
0.02983363298435376,0.02983363298435376
0.0255385337943264,0.0255385337943264
-0.04747815243613876,-0.04747815243613876
-0.12908503704665863,-0.12908503704665863
-0.16688190991889942,-0.16688190991889942
-0.12908503704665863,-0.12908503704665863
-0.03802893421807856,-0.03802893421807856
0.07707972407465474,0.07707972407465474
0.16040464836118556,0.16040464836118556
0.18016210463531143,0.18016210463531143
0.13291601354501045,0.13291601354501045
0.07707972407465474,0.07707972407465474
0.05388618844850699,0.05388618844850699
0.07707972407465474,0.07707972407465474
0.11917169613692288,0.11917169613692288
0.18016210463531143,0.18016210463531143
0.2531787908657766,0.2531787908657766
0.33478567547629645,0.33478567547629645
0.39663510381269046,0.39663510381269046
0.43786805603695317,0.43786805603695317
0.4490353139310243,0.4490353139310243
0.43786805603695317,0.43786805603695317
0.4078023617067616,0.4078023617067616
0.38632686575662484,0.38632686575662484
0.364851369806488,0.364851369806488
0.33478567547629645,0.33478567547629645
0.29269370341402834,0.29269370341402834
0.2832444851959681,0.2832444851959681
0.3090150803361323,0.3090150803361323
0.33478567547629645,0.33478567547629645
0.30471998114610493,0.30471998114610493
0.23170329491563976,0.23170329491563976
0.14322425160107613,0.14322425160107613
0.07707972407465474,0.07707972407465474
0.047014029744463205,0.047014029744463205
0.07707972407465474,0.07707972407465474
0.13978817224905424,0.13978817224905424
0.18016210463531143,0.18016210463531143
0.146660330953098,0.146660330953098
0.07707972407465474,0.07707972407465474
0.023820494118315452,0.023820494118315452
0.0255385337943264,0.0255385337943264
0.04787304958246868,0.04787304958246868
0.07707972407465474,0.07707972407465474
0.08309286294069305,0.08309286294069305
0.07707972407465474,0.07707972407465474
0.047014029744463205,0.047014029744463205
0.0255385337943264,0.0255385337943264
-0.0019501010218487202,-0.0019501010218487202
-0.026002656486001946,-0.026002656486001946
-0.04833717227414423,-0.04833717227414423
-0.026002656486001946,-0.026002656486001946
0.028115593308342814,0.028115593308342814
0.07707972407465474,0.07707972407465474
0.08223384310268758,0.08223384310268758
0.07707972407465474,0.07707972407465474
0.1002732597008025,0.1002732597008025
0.18016210463531143,0.18016210463531143
0.3244774374202308,0.3244774374202308
0.5924916268779382,0.5924916268779382
1.0366048831267674,1.0366048831267674
1.6748566227648334,1.6748566227648334
2.4402432984277094,2.4402432984277094
3.220233311336678,3.220233311336678
3.841304654214635,3.841304654214635
4.147974736382588,4.147974736382588
4.056059613716003,4.056059613716003
3.632562833579305,3.632562833579305
3.0132095303773596,3.0132095303773596
2.3440330765710966,2.3440330765710966
1.6937550592009538,1.6937550592009538
1.1079035296812216,1.1079035296812216
0.6105310434760531,0.6105310434760531
0.23170329491563976,0.23170329491563976
-0.05520933097818801,-0.05520933097818801
-0.2837086078876437,-0.2837086078876437
-0.4726929722488476,-0.4726929722488476
-0.5929557495696137,-0.5929557495696137
-0.6548051779060078,-0.6548051779060078
-0.6960381301302704,-0.6960381301302704
-0.742425201382566,-0.742425201382566
-0.7467203005725933,-0.7467203005725933
-0.7011922491583032,-0.7011922491583032
-0.644496939849942,-0.644496939849942
-0.6393428208219093,-0.6393428208219093
-0.644496939849942,-0.644496939849942
-0.615290265357756,-0.615290265357756
-0.5414145592892854,-0.5414145592892854
-0.49330944836097895,-0.49330944836097895
-0.48987336900895706,-0.48987336900895706
-0.5345424005852416,-0.5345424005852416
-0.5929557495696137,-0.5929557495696137
-0.6453559596879476,-0.6453559596879476
-0.644496939849942,-0.644496939849942
-0.584365551189559,-0.584365551189559
-0.48987336900895706,-0.48987336900895706
-0.4194337422925083,-0.4194337422925083
-0.38679098844830034,-0.38679098844830034
-0.397099226504366,-0.397099226504366
-0.43833217872862873,-0.43833217872862873
-0.5018996467410337,-0.5018996467410337
-0.5414145592892854,-0.5414145592892854
-0.5233751426911705,-0.5233751426911705
-0.43833217872862873,-0.43833217872862873
-0.3404039171960048,-0.3404039171960048
-0.2837086078876437,-0.2837086078876437
-0.29659390545772574,-0.29659390545772574
-0.335249798167972,-0.335249798167972
-0.34298097671002126,-0.34298097671002126
-0.2837086078876437,-0.2837086078876437
-0.19780662408709643,-0.19780662408709643
-0.12908503704665863,-0.12908503704665863
-0.08871110466040143,-0.08871110466040143
-0.026002656486001946,-0.026002656486001946
0.0753616843986438,0.0753616843986438
0.18016210463531143,0.18016210463531143
0.21452289815553033,0.21452289815553033
0.18016210463531143,0.18016210463531143
0.14236523176307064,0.14236523176307064
0.18016210463531143,0.18016210463531143
0.2712182074638915,0.2712182074638915
0.33478567547629645,0.33478567547629645
0.3081560604981268,0.3081560604981268
0.23170329491563976,0.23170329491563976
0.1750079856072786,0.1750079856072786
0.18016210463531143,0.18016210463531143
0.21194583864151392,0.21194583864151392
0.23170329491563976,0.23170329491563976
0.2024966204234537,0.2024966204234537
0.12862091435498307,0.12862091435498307
0.018666375090282617,0.018666375090282617
-0.07754384676633029,-0.07754384676633029
-0.11619973947657655,-0.11619973947657655
-0.07754384676633029,-0.07754384676633029
-0.026002656486001946,-0.026002656486001946
-0.026002656486001946,-0.026002656486001946
-0.0869930649843905,-0.0869930649843905
-0.12908503704665863,-0.12908503704665863
-0.11534071963857108,-0.11534071963857108
-0.07754384676633029,-0.07754384676633029
-0.08527502530837955,-0.08527502530837955
-0.12908503704665863,-0.12908503704665863
-0.17031798927092132,-0.17031798927092132
-0.180626227326987,-0.180626227326987
-0.1832032868410034,-0.1832032868410034
-0.180626227326987,-0.180626227326987
-0.18148524716499245,-0.18148524716499245
-0.180626227326987,-0.180626227326987
-0.18835740586903624,-0.18835740586903624
-0.180626227326987,-0.180626227326987
-0.1582917115388447,-0.1582917115388447
-0.12908503704665863,-0.12908503704665863
-0.12307189818062034,-0.12307189818062034
-0.12908503704665863,-0.12908503704665863
-0.13595719575070242,-0.13595719575070242
-0.12908503704665863,-0.12908503704665863
-0.1273669973706477,-0.1273669973706477
-0.12908503704665863,-0.12908503704665863
-0.13767523542671337,-0.13767523542671337
-0.12908503704665863,-0.12908503704665863
-0.09386522368843427,-0.09386522368843427
-0.026002656486001946,-0.026002656486001946
0.024679513956320925,0.024679513956320925
0.0255385337943264,0.0255385337943264
-0.017412458105947222,-0.017412458105947222
-0.026002656486001946,-0.026002656486001946
0.03069265282235923,0.03069265282235923
0.12862091435498307,0.12862091435498307
0.19820152123342635,0.19820152123342635
0.23170329491563976,0.23170329491563976
0.2368574139436726,0.2368574139436726
0.23170329491563976,0.23170329491563976
0.2059326997754756,0.2059326997754756
0.18016210463531143,0.18016210463531143
0.16727680706522935,0.16727680706522935
0.18016210463531143,0.18016210463531143
0.19734250139542087,0.19734250139542087
0.23170329491563976,0.23170329491563976
0.29269370341402834,0.29269370341402834
0.38632686575662484,0.38632686575662484
0.44989433376902976,0.44989433376902976
0.43786805603695317,0.43786805603695317
0.3657103896444935,0.3657103896444935
0.33478567547629645,0.33478567547629645
0.3889039252706412,0.3889039252706412
0.4894092463172815,0.4894092463172815
0.5452455357876372,0.5452455357876372
0.5409504365976099,0.5409504365976099
0.4945633653453143,0.4945633653453143
0.43786805603695317,0.43786805603695317
0.3734415681865427,0.3734415681865427
0.33478567547629645,0.33478567547629645
0.32619547709624175,0.32619547709624175
0.33478567547629645,0.33478567547629645
0.3322086159622801,0.3322086159622801
0.33478567547629645,0.33478567547629645
0.3425168540183457,0.3425168540183457
0.33478567547629645,0.33478567547629645
0.272077227301897,0.272077227301897
0.18016210463531143,0.18016210463531143
0.10285031921481891,0.10285031921481891
0.07707972407465474,0.07707972407465474
0.0753616843986438,0.0753616843986438
0.07707972407465474,0.07707972407465474
0.06677148601858908,0.06677148601858908
0.07707972407465474,0.07707972407465474
0.115735616784901,0.115735616784901
0.18016210463531143,0.18016210463531143
0.2093687791274975,0.2093687791274975
0.18016210463531143,0.18016210463531143
0.07879776375066569,0.07879776375066569
-0.026002656486001946,-0.026002656486001946
-0.09128816417441785,-0.09128816417441785
-0.07754384676633029,-0.07754384676633029
-0.027720696162012892,-0.027720696162012892
0.0255385337943264,0.0255385337943264
0.05302716861050152,0.05302716861050152
0.07707972407465474,0.07707972407465474
0.0873879621307204,0.0873879621307204
0.07707972407465474,0.07707972407465474
0.04014187104041943,0.04014187104041943
0.0255385337943264,0.0255385337943264
0.0659124661805836,0.0659124661805836
0.18016210463531143,0.18016210463531143
0.38289078640460295,0.38289078640460295
0.7471151977189232,0.7471151977189232
1.3226584891825897,1.3226584891825897
2.0871861450074602,2.0871861450074602
2.8972418522466206,2.8972418522466206
3.5810216432989765,3.5810216432989765
3.9710166497534614,3.9710166497534614
3.9933511655416036,3.9933511655416036
3.6677826469375296,3.6677826469375296
3.1171509307760217,3.1171509307760217
2.4694499729198953,2.4694499729198953
1.8294801936058185,1.8294801936058185
1.242769644248081,1.242769644248081
0.7471151977189232,0.7471151977189232
0.34165783418034024,0.34165783418034024
0.0255385337943264,0.0255385337943264
-0.21928212003723324,-0.21928212003723324
-0.38679098844830034,-0.38679098844830034
-0.4872963094949406,-0.4872963094949406
-0.5414145592892854,-0.5414145592892854
-0.5912377098936028,-0.5912377098936028
-0.644496939849942,-0.644496939849942
-0.6891659714262266,-0.6891659714262266
-0.6960381301302704,-0.6960381301302704
-0.6891659714262266,-0.6891659714262266
-0.6960381301302704,-0.6960381301302704
-0.7303989236504893,-0.7303989236504893
-0.7467203005725933,-0.7467203005725933
-0.7475793204105988,-0.7475793204105988
-0.7467203005725933,-0.7467203005725933
-0.7785040345787958,-0.7785040345787958
-0.7982614908529216,-0.7982614908529216
-0.8008385503669381,-0.8008385503669381
-0.7982614908529216,-0.7982614908529216
-0.8266091455071022,-0.8266091455071022
-0.84980268113325,-0.84980268113325
-0.8532387604852719,-0.8532387604852719
-0.84980268113325,-0.84980268113325
-0.8755732762734142,-0.8755732762734142
-0.9013438714135783,-0.9013438714135783
-0.9073570102796167,-0.9073570102796167
-0.9013438714135783,-0.9013438714135783
-0.9228193673637152,-0.9228193673637152
-0.9528850616939066,-0.9528850616939066
-0.9674883989399997,-0.9674883989399997
-0.9528850616939066,-0.9528850616939066
-0.9460129029898628,-0.9460129029898628
-0.9528850616939066,-0.9528850616939066
-0.9657703592639888,-0.9657703592639888
-0.9528850616939066,-0.9528850616939066
-0.9150881888216659,-0.9150881888216659
-0.84980268113325,-0.84980268113325
-0.7767859949027849,-0.7767859949027849
-0.6960381301302704,-0.6960381301302704
-0.6204443843857889,-0.6204443843857889
-0.5414145592892854,-0.5414145592892854
-0.4512174762987108,-0.4512174762987108
-0.335249798167972,-0.335249798167972
-0.21928212003723324,-0.21928212003723324
-0.12908503704665863,-0.12908503704665863
-0.07668482692832482,-0.07668482692832482
-0.026002656486001946,-0.026002656486001946
0.0315516726603647,0.0315516726603647
0.07707972407465474,0.07707972407465474
0.08223384310268758,0.08223384310268758
0.07707972407465474,0.07707972407465474
0.08910600180673135,0.08910600180673135
0.12862091435498307,0.12862091435498307
0.1621226880371965,0.1621226880371965
0.18016210463531143,0.18016210463531143
0.16727680706522935,0.16727680706522935
0.12862091435498307,0.12862091435498307
0.08137482326468211,0.08137482326468211
0.07707972407465474,0.07707972407465474
0.12003071597492836,0.12003071597492836
0.18016210463531143,0.18016210463531143
0.21022779896550298,0.21022779896550298
0.23170329491563976,0.23170329491563976
0.26950016778788055,0.26950016778788055
0.33478567547629645,0.33478567547629645
0.3923400046226631,0.3923400046226631
0.43786805603695317,0.43786805603695317
0.46621571069113377,0.46621571069113377
0.4894092463172815,0.4894092463172815
0.49370434550730885,0.49370434550730885
0.4894092463172815,0.4894092463172815
0.48167806777523225,0.48167806777523225
0.4894092463172815,0.4894092463172815
0.4928453256693034,0.4928453256693034
0.4894092463172815,0.4894092463172815
0.4773829685852049,0.4773829685852049
0.4894092463172815,0.4894092463172815
0.5160388612954512,0.5160388612954512
0.5409504365976099,0.5409504365976099
0.5237700398375004,0.5237700398375004
0.4894092463172815,0.4894092463172815
0.44989433376902976,0.44989433376902976
0.43786805603695317,0.43786805603695317
0.4301368774949039,0.4301368774949039
0.43786805603695317,0.43786805603695317
0.4387270758749586,0.4387270758749586
0.43786805603695317,0.43786805603695317
0.4146745204108054,0.4146745204108054
0.38632686575662484,0.38632686575662484
0.35368411191241683,0.35368411191241683
0.33478567547629645,0.33478567547629645
0.3219003779062144,0.3219003779062144
0.33478567547629645,0.33478567547629645
0.3803137268905865,0.3803137268905865
0.4894092463172815,0.4894092463172815
0.6826887098685128,0.6826887098685128
1.004821149120565,1.004821149120565
1.4747050005095583,1.4747050005095583
2.0871861450074602,2.0871861450074602
2.7606576980037505,2.7606576980037505
3.374856882177663,3.374856882177663
3.780314245716246,3.780314245716246
3.8902687849809467,3.8902687849809467
3.6935532420776935,3.6935532420776935
3.271774501617007,3.271774501617007
2.710834547399433,2.710834547399433
2.0871861450074602,2.0871861450074602
1.4454983260173724,1.4454983260173724
0.8501975782795799,0.8501975782795799
0.3493890127223895,0.3493890127223895
-0.026002656486001946,-0.026002656486001946
-0.29659390545772574,-0.29659390545772574
-0.48987336900895706,-0.48987336900895706
-0.6393428208219093,-0.6393428208219093
-0.7467203005725933,-0.7467203005725933
-0.818877966965053,-0.818877966965053
-0.84980268113325,-0.84980268113325
-0.8729962167593978,-0.8729962167593978
-0.9013438714135783,-0.9013438714135783
-0.9408587839618301,-0.9408587839618301
-0.9528850616939066,-0.9528850616939066
-0.9511670220178957,-0.9511670220178957
-0.9528850616939066,-0.9528850616939066
-0.9863868353761202,-0.9863868353761202
-1.004426251974235,-1.004426251974235
-1.0070033114882515,-1.0070033114882515
-1.004426251974235,-1.004426251974235
-1.0327739066284156,-1.0327739066284156
-1.0559674422545633,-1.0559674422545633
-1.0619805811206018,-1.0619805811206018
-1.0559674422545633,-1.0559674422545633
-1.0636986207966126,-1.0636986207966126
-1.0559674422545633,-1.0559674422545633
-1.0284788074383882,-1.0284788074383882
-1.004426251974235,-1.004426251974235
-1.024183708248361,-1.024183708248361
-1.0559674422545633,-1.0559674422545633
-1.0688527398246455,-1.0688527398246455
-1.0559674422545633,-1.0559674422545633
-1.0542494025785525,-1.0542494025785525
-1.0559674422545633,-1.0559674422545633
-1.0439411645224868,-1.0439411645224868
-1.004426251974235,-1.004426251974235
-0.9717834981300271,-0.9717834981300271
-0.9528850616939066,-0.9528850616939066
-0.9271144665537425,-0.9271144665537425
-0.84980268113325,-0.84980268113325
-0.740707161706555,-0.740707161706555
-0.644496939849942,-0.644496939849942
-0.5903786900555973,-0.5903786900555973
-0.5414145592892854,-0.5414145592892854
-0.47011591273483117,-0.47011591273483117
-0.38679098844830034,-0.38679098844830034
-0.32837763946392823,-0.32837763946392823
-0.2837086078876437,-0.2837086078876437
-0.23474447712133176,-0.23474447712133176
-0.180626227326987,-0.180626227326987
-0.1462654338067681,-0.1462654338067681
-0.12908503704665863,-0.12908503704665863
-0.1239309180186258,-0.1239309180186258
-0.12908503704665863,-0.12908503704665863
-0.1557146520248283,-0.1557146520248283
-0.180626227326987,-0.180626227326987
-0.19007544554504718,-0.19007544554504718
-0.180626227326987,-0.180626227326987
-0.17633112813695961,-0.17633112813695961
-0.180626227326987,-0.180626227326987
-0.20038368360111286,-0.20038368360111286
-0.23216741760731532,-0.23216741760731532
-0.26910527064155065,-0.26910527064155065
-0.2837086078876437,-0.2837086078876437
-0.2819905682116327,-0.2819905682116327
-0.2837086078876437,-0.2837086078876437
-0.3103382228658133,-0.3103382228658133
-0.335249798167972,-0.335249798167972
-0.3438399965480267,-0.3438399965480267
-0.335249798167972,-0.335249798167972
-0.335249798167972,-0.335249798167972
-0.335249798167972,-0.335249798167972
-0.33610881800597747,-0.33610881800597747
-0.335249798167972,-0.335249798167972
-0.3421219568720158,-0.3421219568720158
-0.335249798167972,-0.335249798167972
-0.3120562625418243,-0.3120562625418243
-0.2837086078876437,-0.2837086078876437
-0.27769546902160536,-0.27769546902160536
-0.2837086078876437,-0.2837086078876437
-0.28972174675368195,-0.28972174675368195
-0.2837086078876437,-0.2837086078876437
-0.2828495880496382,-0.2828495880496382
-0.2837086078876437,-0.2837086078876437
-0.2871446872396656,-0.2871446872396656
-0.2837086078876437,-0.2837086078876437
-0.28456762772564914,-0.28456762772564914
-0.2837086078876437,-0.2837086078876437
-0.2854266475636546,-0.2854266475636546
-0.2837086078876437,-0.2837086078876437
-0.2854266475636546,-0.2854266475636546
-0.2837086078876437,-0.2837086078876437
-0.2854266475636546,-0.2854266475636546
-0.2837086078876437,-0.2837086078876437
-0.2862856674016601,-0.2862856674016601
-0.2837086078876437,-0.2837086078876437
-0.2837086078876437,-0.2837086078876437
-0.2837086078876437,-0.2837086078876437
-0.28800370707767103,-0.28800370707767103
-0.2837086078876437,-0.2837086078876437
-0.28113154837362725,-0.28113154837362725
-0.2837086078876437,-0.2837086078876437
-0.29401684594370936,-0.29401684594370936
-0.2837086078876437,-0.2837086078876437
-0.257078992909474,-0.257078992909474
-0.23216741760731532,-0.23216741760731532
-0.23130839776930986,-0.23130839776930986
-0.23216741760731532,-0.23216741760731532
-0.23130839776930986,-0.23130839776930986
-0.23216741760731532,-0.23216741760731532
-0.24333467550138646,-0.24333467550138646
-0.23216741760731532,-0.23216741760731532
-0.20296074311512927,-0.20296074311512927
-0.180626227326987,-0.180626227326987
-0.1866393661930253,-0.1866393661930253
-0.180626227326987,-0.180626227326987
-0.15056053299679545,-0.15056053299679545
-0.12908503704665863,-0.12908503704665863
-0.15313759251081185,-0.15313759251081185
-0.180626227326987,-0.180626227326987
-0.17031798927092132,-0.17031798927092132
-0.12908503704665863,-0.12908503704665863
-0.11534071963857108,-0.11534071963857108
-0.12908503704665863,-0.12908503704665863
-0.14197033461674072,-0.14197033461674072
-0.12908503704665863,-0.12908503704665863
-0.11877679899059297,-0.11877679899059297
-0.12908503704665863,-0.12908503704665863
-0.16000975121485564,-0.16000975121485564
-0.180626227326987,-0.180626227326987
-0.1866393661930253,-0.1866393661930253
-0.180626227326987,-0.180626227326987
-0.180626227326987,-0.180626227326987
-0.180626227326987,-0.180626227326987
-0.18234426700299794,-0.18234426700299794
-0.180626227326987,-0.180626227326987
-0.18406230667900886,-0.18406230667900886
-0.180626227326987,-0.180626227326987
-0.17890818765097605,-0.17890818765097605
-0.180626227326987,-0.180626227326987
-0.19007544554504718,-0.19007544554504718
-0.180626227326987,-0.180626227326987
-0.1557146520248283,-0.1557146520248283
-0.12908503704665863,-0.12908503704665863
-0.12650797753264223,-0.12650797753264223
-0.12908503704665863,-0.12908503704665863
-0.13080307672266958,-0.13080307672266958
-0.12908503704665863,-0.12908503704665863
-0.13681621558870788,-0.13681621558870788
-0.12908503704665863,-0.12908503704665863
-0.10503248158250542,-0.10503248158250542
-0.07754384676633029,-0.07754384676633029
-0.07496678725231387,-0.07496678725231387
-0.07754384676633029,-0.07754384676633029
-0.06551756903425368,-0.06551756903425368
-0.026002656486001946,-0.026002656486001946
0.021243434604299036,0.021243434604299036
0.07707972407465474,0.07707972407465474
0.12947993419298856,0.12947993419298856
0.18016210463531143,0.18016210463531143
0.22569015604960146,0.22569015604960146
0.2832444851959681,0.2832444851959681
0.32963155644826364,0.32963155644826364
0.33478567547629645,0.33478567547629645
0.28496252487197904,0.28496252487197904
0.23170329491563976,0.23170329491563976
0.2024966204234537,0.2024966204234537
0.18016210463531143,0.18016210463531143
0.11487659694689553,0.11487659694689553
0.0255385337943264,0.0255385337943264
-0.0337338350280512,-0.0337338350280512
-0.026002656486001946,-0.026002656486001946
-0.0045271605358651375,-0.0045271605358651375
-0.026002656486001946,-0.026002656486001946
-0.10503248158250542,-0.10503248158250542
-0.180626227326987,-0.180626227326987
-0.21842310019922775,-0.21842310019922775
-0.23216741760731532,-0.23216741760731532
-0.27254134999357255,-0.27254134999357255
-0.335249798167972,-0.335249798167972
-0.38421392893428397,-0.38421392893428397
-0.38679098844830034,-0.38679098844830034
-0.37648275039223467,-0.37648275039223467
-0.38679098844830034,-0.38679098844830034
-0.4237288414825357,-0.4237288414825357
-0.43833217872862873,-0.43833217872862873
-0.42115178196851927,-0.42115178196851927
-0.38679098844830034,-0.38679098844830034
-0.382495889258273,-0.382495889258273
-0.38679098844830034,-0.38679098844830034
-0.3945221669903496,-0.3945221669903496
-0.38679098844830034,-0.38679098844830034
-0.3910860876383277,-0.3910860876383277
-0.38679098844830034,-0.38679098844830034
-0.3704696115261964,-0.3704696115261964
-0.335249798167972,-0.335249798167972
-0.30604312367578596,-0.30604312367578596
-0.2837086078876437,-0.2837086078876437
-0.27941350869761633,-0.27941350869761633
-0.2837086078876437,-0.2837086078876437
-0.2699642904795561,-0.2699642904795561
-0.180626227326987,-0.180626227326987
-0.010540299401903444,-0.010540299401903444
0.23170329491563976,0.23170329491563976
0.5899145673639218,0.5899145673639218
1.15944471996155,1.15944471996155
1.9153821774063657,1.9153821774063657
2.704821408533395,2.704821408533395
3.3774339416916797,3.3774339416916797
3.8902687849809467,3.8902687849809467
4.150551795896605,4.150551795896605
3.9933511655416036,3.9933511655416036
3.3645486441215975,3.3645486441215975
2.4986566474120813,2.4986566474120813
1.6920370195249428,1.6920370195249428
1.0563623394008932,1.0563623394008932
0.5254880795135113,0.5254880795135113
0.07707972407465474,0.07707972407465474
-0.26309213177551233,-0.26309213177551233
-0.48987336900895706,-0.48987336900895706
-0.6487920390399694,-0.6487920390399694
-0.7467203005725933,-0.7467203005725933
-0.7905303123108723,-0.7905303123108723
-0.7982614908529216,-0.7982614908529216
-0.8077107090709819,-0.8077107090709819
-0.7982614908529216,-0.7982614908529216
-0.771631875874752,-0.771631875874752
-0.7467203005725933,-0.7467203005725933
-0.7656187370087137,-0.7656187370087137
-0.7982614908529216,-0.7982614908529216
-0.831763264535135,-0.831763264535135
-0.84980268113325,-0.84980268113325
-0.8704191572453813,-0.8704191572453813
-0.84980268113325,-0.84980268113325
-0.786235213120845,-0.786235213120845
-0.6960381301302704,-0.6960381301302704
-0.6436379200119366,-0.6436379200119366
-0.644496939849942,-0.644496939849942
-0.6900249912642321,-0.6900249912642321
-0.7467203005725933,-0.7467203005725933
-0.7948254115008998,-0.7948254115008998
-0.7982614908529216,-0.7982614908529216
-0.7570285386286589,-0.7570285386286589
-0.6960381301302704,-0.6960381301302704
-0.6702675349901063,-0.6702675349901063
-0.6960381301302704,-0.6960381301302704
-0.7544514791146425,-0.7544514791146425
-0.7982614908529216,-0.7982614908529216
-0.8137238479370201,-0.8137238479370201
-0.7982614908529216,-0.7982614908529216
-0.7776450147407903,-0.7776450147407903
-0.7467203005725933,-0.7467203005725933
-0.7054873483483306,-0.7054873483483306
-0.644496939849942,-0.644496939849942
-0.5886606503795864,-0.5886606503795864
-0.5414145592892854,-0.5414145592892854
-0.48643728965693517,-0.48643728965693517
-0.38679098844830034,-0.38679098844830034
-0.2682462508035452,-0.2682462508035452
-0.180626227326987,-0.180626227326987
-0.1522785726728064,-0.1522785726728064
-0.12908503704665863,-0.12908503704665863
-0.06551756903425368,-0.06551756903425368
0.0255385337943264,0.0255385337943264
0.07793874391266022,0.07793874391266022
0.07707972407465474,0.07707972407465474
0.0564632479625234,0.0564632479625234
0.07707972407465474,0.07707972407465474
0.14236523176307064,0.14236523176307064
0.23170329491563976,0.23170329491563976
0.30128390179408304,0.30128390179408304
0.33478567547629645,0.33478567547629645
0.31932331839219796,0.31932331839219796
0.2832444851959681,0.2832444851959681
0.2591919297318149,0.2591919297318149
0.2832444851959681,0.2832444851959681
0.3244774374202308,0.3244774374202308
0.33478567547629645,0.33478567547629645
0.28668056454799,0.28668056454799
0.23170329491563976,0.23170329491563976
0.21280485847951938,0.21280485847951938
0.23170329491563976,0.23170329491563976
0.23943447345768903,0.23943447345768903
0.23170329491563976,0.23170329491563976
0.22311309653558506,0.22311309653558506
0.23170329491563976,0.23170329491563976
0.22053603702156863,0.22053603702156863
0.18016210463531143,0.18016210463531143
0.12947993419298856,0.12947993419298856
0.12862091435498307,0.12862091435498307
0.17672602528328954,0.17672602528328954
0.23170329491563976,0.23170329491563976
0.22912623540162336,0.22912623540162336
0.18016210463531143,0.18016210463531143
0.12947993419298856,0.12947993419298856
0.12862091435498307,0.12862091435498307
0.1561095491711582,0.1561095491711582
0.18016210463531143,0.18016210463531143
0.17844406495930049,0.17844406495930049
0.18016210463531143,0.18016210463531143
0.18273916414932784,0.18273916414932784
0.18016210463531143,0.18016210463531143
0.16727680706522935,0.16727680706522935
0.18016210463531143,0.18016210463531143
0.19820152123342635,0.19820152123342635
0.18016210463531143,0.18016210463531143
0.11229953743287911,0.11229953743287911
0.07707972407465474,0.07707972407465474
0.11401757710889006,0.11401757710889006
0.18016210463531143,0.18016210463531143
0.193906422043399,0.193906422043399
0.18016210463531143,0.18016210463531143
0.18875230301536616,0.18875230301536616
0.23170329491563976,0.23170329491563976
0.24888369167574922,0.24888369167574922
0.23170329491563976,0.23170329491563976
0.2093687791274975,0.2093687791274975
0.23170329491563976,0.23170329491563976
0.28238546535796266,0.28238546535796266
0.33478567547629645,0.33478567547629645
0.35110705239840045,0.35110705239840045
0.33478567547629645,0.33478567547629645
0.28496252487197904,0.28496252487197904
0.23170329491563976,0.23170329491563976
0.2024966204234537,0.2024966204234537
0.23170329491563976,0.23170329491563976
0.29097566373801736,0.29097566373801736
0.33478567547629645,0.33478567547629645
0.33306763580028553,0.33306763580028553
0.33478567547629645,0.33478567547629645
0.37172352851053175,0.37172352851053175
0.43786805603695317,0.43786805603695317
0.4791010082612158,0.4791010082612158
0.4894092463172815,0.4894092463172815
0.4705108098811611,0.4705108098811611
0.43786805603695317,0.43786805603695317
0.38289078640460295,0.38289078640460295
0.33478567547629645,0.33478567547629645
0.32791351677225267,0.32791351677225267
0.38632686575662484,0.38632686575662484
0.46020257182509544,0.46020257182509544
0.4894092463172815,0.4894092463172815
0.4335729568469258,0.4335729568469258
0.33478567547629645,0.33478567547629645
0.2342803544296562,0.2342803544296562
0.18016210463531143,0.18016210463531143
0.19304740220539351,0.19304740220539351
0.2832444851959681,0.2832444851959681
0.36313333013047705,0.36313333013047705
0.33478567547629645,0.33478567547629645
0.1904703426913771,0.1904703426913771
0.07707972407465474,0.07707972407465474
0.08910600180673135,0.08910600180673135
0.18016210463531143,0.18016210463531143
0.21709995766954673,0.21709995766954673
0.18016210463531143,0.18016210463531143
0.09855522002479156,0.09855522002479156
0.0255385337943264,0.0255385337943264
-0.036310894542067616,-0.036310894542067616
-0.026002656486001946,-0.026002656486001946
0.059899327314545295,0.059899327314545295
0.18016210463531143,0.18016210463531143
0.23857545361968355,0.23857545361968355
0.23170329491563976,0.23170329491563976
0.193906422043399,0.193906422043399
0.18016210463531143,0.18016210463531143
0.17930308479730597,0.17930308479730597
0.18016210463531143,0.18016210463531143
0.16985386657924575,0.16985386657924575
0.18016210463531143,0.18016210463531143
0.24716565199973828,0.24716565199973828
0.43786805603695317,0.43786805603695317
0.8029514871892789,0.8029514871892789
1.3656094810828634,1.3656094810828634
2.050248291973225,2.050248291973225
2.7563625988137233,2.7563625988137233
3.4006274773178276,3.4006274773178276
3.941809975261275,3.941809975261275
4.257070255809284,4.257070255809284
4.199515926662917,4.199515926662917
3.738222273653978,3.738222273653978
3.0656097404956935,3.0656097404956935
2.38698406847137,2.38698406847137
1.77793900332549,1.77793900332549
1.2058317912138454,1.2058317912138454
0.6955740074385949,0.6955740074385949
0.2832444851959681,0.2832444851959681
-0.026002656486001946,-0.026002656486001946
-0.2579380127474795,-0.2579380127474795
-0.38679098844830034,-0.38679098844830034
-0.4091255042364426,-0.4091255042364426
-0.38679098844830034,-0.38679098844830034
-0.41342060342647,-0.41342060342647
-0.48987336900895706,-0.48987336900895706
-0.5654671147534386,-0.5654671147534386
-0.5929557495696137,-0.5929557495696137
-0.5981098685976466,-0.5981098685976466
-0.5929557495696137,-0.5929557495696137
-0.5972508487596411,-0.5972508487596411
-0.5929557495696137,-0.5929557495696137
-0.5955328090836302,-0.5955328090836302
-0.5929557495696137,-0.5929557495696137
-0.598968888435652,-0.598968888435652
-0.5929557495696137,-0.5929557495696137
-0.5766343726475097,-0.5766343726475097
-0.5414145592892854,-0.5414145592892854
-0.5104898451210884,-0.5104898451210884
-0.48987336900895706,-0.48987336900895706
-0.4890143491709516,-0.4890143491709516
-0.48987336900895706,-0.48987336900895706
-0.491591408684968,-0.491591408684968
-0.48987336900895706,-0.48987336900895706
-0.4924504285229735,-0.4924504285229735
-0.48987336900895706,-0.48987336900895706
-0.48987336900895706,-0.48987336900895706
-0.48987336900895706,-0.48987336900895706
-0.49588650787499533,-0.49588650787499533
-0.48987336900895706,-0.48987336900895706
-0.4709749325728367,-0.4709749325728367
-0.43833217872862873,-0.43833217872862873
-0.4125615835884645,-0.4125615835884645
-0.38679098844830034,-0.38679098844830034
-0.3489941155760596,-0.3489941155760596
-0.2837086078876437,-0.2837086078876437
-0.21928212003723324,-0.21928212003723324
-0.180626227326987,-0.180626227326987
-0.16516387024288848,-0.16516387024288848
-0.12908503704665863,-0.12908503704665863
-0.07238972773829745,-0.07238972773829745
-0.026002656486001946,-0.026002656486001946
-0.022566577133980057,-0.022566577133980057
-0.026002656486001946,-0.026002656486001946
-0.007963239887887026,-0.007963239887887026
0.0255385337943264,0.0255385337943264
0.03412873217438112,0.03412873217438112
0.0255385337943264,0.0255385337943264
0.01952539492828809,0.01952539492828809
0.0255385337943264,0.0255385337943264
0.013512256062249784,0.013512256062249784
-0.026002656486001946,-0.026002656486001946
-0.0835569856323686,-0.0835569856323686
-0.12908503704665863,-0.12908503704665863
-0.16086877105286113,-0.16086877105286113
-0.180626227326987,-0.180626227326987
-0.20639682246715116,-0.20639682246715116
-0.23216741760731532,-0.23216741760731532
-0.2613740920995014,-0.2613740920995014
-0.2837086078876437,-0.2837086078876437
-0.30947920302780785,-0.30947920302780785
-0.335249798167972,-0.335249798167972
-0.36617451233616904,-0.36617451233616904
-0.38679098844830034,-0.38679098844830034
-0.39624020666636056,-0.39624020666636056
-0.38679098844830034,-0.38679098844830034
-0.3807778495822621,-0.3807778495822621
-0.38679098844830034,-0.38679098844830034
-0.4022533455323989,-0.4022533455323989
-0.38679098844830034,-0.38679098844830034
-0.34126293703401034,-0.34126293703401034
-0.2837086078876437,-0.2837086078876437
-0.2519248738814412,-0.2519248738814412
-0.23216741760731532,-0.23216741760731532
-0.21240996133318946,-0.21240996133318946
-0.180626227326987,-0.180626227326987
-0.15657367186283375,-0.15657367186283375
-0.12908503704665863,-0.12908503704665863
-0.0895701244984069,-0.0895701244984069
-0.026002656486001946,-0.026002656486001946
0.03412873217438112,0.03412873217438112
0.07707972407465474,0.07707972407465474
0.09769620018678608,0.09769620018678608
0.12862091435498307,0.12862091435498307
0.17328994593126765,0.17328994593126765
0.23170329491563976,0.23170329491563976
0.28238546535796266,0.28238546535796266
0.33478567547629645,0.33478567547629645
0.3854678459186193,0.3854678459186193
0.43786805603695317,0.43786805603695317
0.46879277020515014,0.46879277020515014
0.4894092463172815,0.4894092463172815
0.5057306232393854,0.5057306232393854
0.5409504365976099,0.5409504365976099
0.5873375078499053,0.5873375078499053
0.6440328171582665,0.6440328171582665
0.6809706701925018,0.6809706701925018
0.6955740074385949,0.6955740074385949
0.6887018487345511,0.6887018487345511
0.6955740074385949,0.6955740074385949
0.7179085232267371,0.7179085232267371
0.7471151977189232,0.7471151977189232
0.7522693167469561,0.7522693167469561
0.7471151977189232,0.7471151977189232
0.7402430390148794,0.7402430390148794
0.7471151977189232,0.7471151977189232
0.7479742175569287,0.7479742175569287
0.7471151977189232,0.7471151977189232
0.7402430390148794,0.7402430390148794
0.7471151977189232,0.7471151977189232
0.7651546143170381,0.7651546143170381
0.7986563879992515,0.7986563879992515
0.8149777649213555,0.8149777649213555
0.7986563879992515,0.7986563879992515
0.7445381382049068,0.7445381382049068
0.6955740074385949,0.6955740074385949
0.6637902734323924,0.6637902734323924
0.6440328171582665,0.6440328171582665
0.599363785581982,0.599363785581982
0.5409504365976099,0.5409504365976099
0.4808190479372268,0.4808190479372268
0.43786805603695317,0.43786805603695317
0.3897629451086467,0.3897629451086467
0.33478567547629645,0.33478567547629645
0.272077227301897,0.272077227301897
0.23170329491563976,0.23170329491563976
0.2033556402614592,0.2033556402614592
0.18016210463531143,0.18016210463531143
0.14837837062910894,0.14837837062910894
0.12862091435498307,0.12862091435498307
0.1097224779188627,0.1097224779188627
0.07707972407465474,0.07707972407465474
0.018666375090282617,0.018666375090282617
-0.026002656486001946,-0.026002656486001946
-0.053491291302177064,-0.053491291302177064
-0.07754384676633029,-0.07754384676633029
-0.13509817591269693,-0.13509817591269693
-0.180626227326987,-0.180626227326987
-0.19780662408709643,-0.19780662408709643
-0.180626227326987,-0.180626227326987
-0.1797672074889815,-0.1797672074889815
-0.180626227326987,-0.180626227326987
-0.18406230667900886,-0.18406230667900886
-0.180626227326987,-0.180626227326987
-0.1866393661930253,-0.1866393661930253
-0.180626227326987,-0.180626227326987
-0.17289504878493772,-0.17289504878493772
-0.180626227326987,-0.180626227326987
-0.19007544554504718,-0.19007544554504718
-0.12908503704665863,-0.12908503704665863
0.01952539492828809,0.01952539492828809
0.23170329491563976,0.23170329491563976
0.5366553374075825,0.5366553374075825
1.0563623394008932,1.0563623394008932
1.7985554794376215,1.7985554794376215
2.601739027972738,2.601739027972738
3.2838007793490833,3.2838007793490833
3.7871864044202903,3.7871864044202903
4.035443137603871,4.035443137603871
3.8902687849809467,3.8902687849809467
3.319879612545313,3.319879612545313
2.55019783769241,2.55019783769241
1.8303392134438239,1.8303392134438239
1.2109859102418783,1.2109859102418783
0.6174032021800969,0.6174032021800969
0.07707972407465474,0.07707972407465474
-0.3404039171960048,-0.3404039171960048
-0.644496939849942,-0.644496939849942
-0.9039209309275947,-0.9039209309275947
-1.1075086325348917,-1.1075086325348917
-1.2217582709896195,-1.2217582709896195
-1.2621322033758768,-1.2621322033758768
-1.2930569175440738,-1.2930569175440738
-1.313673393656205,-1.313673393656205
-1.3179684928462325,-1.3179684928462325
-1.313673393656205,-1.313673393656205
-1.3274177110642926,-1.3274177110642926
-1.313673393656205,-1.313673393656205
-1.2672863224039095,-1.2672863224039095
-1.2105910130955484,-1.2105910130955484
-1.2037188543915047,-1.2037188543915047
-1.2105910130955484,-1.2105910130955484
-1.2011417948774883,-1.2011417948774883
-1.15904982281522,-1.15904982281522
-1.1272660888090176,-1.1272660888090176
-1.1075086325348917,-1.1075086325348917
-1.10407255318287,-1.10407255318287
-1.1075086325348917,-1.1075086325348917
-1.1186758904289629,-1.1186758904289629
-1.1075086325348917,-1.1075086325348917
-1.0791609778807112,-1.0791609778807112
-1.0559674422545633,-1.0559674422545633
-1.0594035216065854,-1.0594035216065854
-1.0559674422545633,-1.0559674422545633
-1.0327739066284156,-1.0327739066284156
-1.004426251974235,-1.004426251974235
-1.0035672321362294,-1.0035672321362294
-1.004426251974235,-1.004426251974235
-0.9872458552141256,-0.9872458552141256
-0.9528850616939066,-0.9528850616939066
-0.9288325062297534,-0.9288325062297534
-0.9013438714135783,-0.9013438714135783
-0.8592518993513102,-0.8592518993513102
-0.7982614908529216,-0.7982614908529216
-0.7450022608965824,-0.7450022608965824
-0.6960381301302704,-0.6960381301302704
-0.6470739993639585,-0.6470739993639585
-0.5929557495696137,-0.5929557495696137
-0.5431325989652963,-0.5431325989652963
-0.48987336900895706,-0.48987336900895706
-0.43661413905261776,-0.43661413905261776
-0.38679098844830034,-0.38679098844830034
-0.3421219568720158,-0.3421219568720158
-0.2837086078876437,-0.2837086078876437
-0.22185917955124965,-0.22185917955124965
-0.180626227326987,-0.180626227326987
-0.17804916781297056,-0.17804916781297056
-0.180626227326987,-0.180626227326987
-0.16344583056687753,-0.16344583056687753
-0.12908503704665863,-0.12908503704665863
-0.11619973947657655,-0.11619973947657655
-0.12908503704665863,-0.12908503704665863
-0.15915073137685018,-0.15915073137685018
-0.180626227326987,-0.180626227326987
-0.19007544554504718,-0.19007544554504718
-0.180626227326987,-0.180626227326987
-0.17117700910892678,-0.17117700910892678
-0.180626227326987,-0.180626227326987
-0.22701329857928249,-0.22701329857928249
-0.2837086078876437,-0.2837086078876437
-0.32494156011190634,-0.32494156011190634
-0.335249798167972,-0.335249798167972
-0.335249798167972,-0.335249798167972
-0.335249798167972,-0.335249798167972
-0.34126293703401034,-0.34126293703401034
-0.335249798167972,-0.335249798167972
-0.31635136173185163,-0.31635136173185163
-0.2837086078876437,-0.2837086078876437
-0.26910527064155065,-0.26910527064155065
-0.2837086078876437,-0.2837086078876437
-0.320646460921879,-0.320646460921879
-0.335249798167972,-0.335249798167972
-0.31806940140786255,-0.31806940140786255
-0.2837086078876437,-0.2837086078876437
-0.27254134999357255,-0.27254134999357255
-0.2837086078876437,-0.2837086078876437
-0.31291528237982974,-0.31291528237982974
-0.335249798167972,-0.335249798167972
-0.3507121552520705,-0.3507121552520705
-0.335249798167972,-0.335249798167972
-0.30947920302780785,-0.30947920302780785
-0.2837086078876437,-0.2837086078876437
-0.2854266475636546,-0.2854266475636546
-0.2837086078876437,-0.2837086078876437
-0.2699642904795561,-0.2699642904795561
-0.23216741760731532,-0.23216741760731532
-0.20210172327712378,-0.20210172327712378
-0.180626227326987,-0.180626227326987
-0.1771901479749651,-0.1771901479749651
-0.180626227326987,-0.180626227326987
-0.19093446538305264,-0.19093446538305264
-0.180626227326987,-0.180626227326987
-0.133380136236686,-0.133380136236686
-0.026002656486001946,-0.026002656486001946
0.15095543014312537,0.15095543014312537
0.43786805603695317,0.43786805603695317
0.8690960147157003,0.8690960147157003
1.46869186164352,1.46869186164352
2.1859734263780894,2.1859734263780894
2.9109861696547084,2.9109861696547084
3.470208084196271,3.470208084196271
3.7356452141399616,3.7356452141399616
3.676372845317584,3.676372845317584
3.374856882177663,3.374856882177663
2.912704209330719,2.912704209330719
2.3440330765710966,2.3440330765710966
1.7109354559610632,1.7109354559610632
1.1079035296812216,1.1079035296812216
0.6079539839620367,0.6079539839620367
0.23170329491563976,0.23170329491563976
-0.06036345000622084,-0.06036345000622084
-0.2837086078876437,-0.2837086078876437
-0.44348629775666154,-0.44348629775666154
-0.5414145592892854,-0.5414145592892854
-0.6049820273016904,-0.6049820273016904
-0.644496939849942,-0.644496939849942
-0.6728445945041227,-0.6728445945041227
-0.6960381301302704,-0.6960381301302704
-0.7252448046224564,-0.7252448046224564
-0.7467203005725933,-0.7467203005725933
-0.7724908957127574,-0.7724908957127574
-0.7982614908529216,-0.7982614908529216
-0.835199343887157,-0.835199343887157
-0.84980268113325,-0.84980268113325
-0.8540977803232773,-0.8540977803232773
-0.84980268113325,-0.84980268113325
-0.8601109191893157,-0.8601109191893157
-0.84980268113325,-0.84980268113325
-0.8094287487469928,-0.8094287487469928
-0.7467203005725933,-0.7467203005725933
-0.7192316657564182,-0.7192316657564182
-0.7467203005725933,-0.7467203005725933
-0.8205960066410639,-0.8205960066410639
-0.9013438714135783,-0.9013438714135783
-0.9958360535941803,-0.9958360535941803
-1.1075086325348917,-1.1075086325348917
-1.2303484693696742,-1.2303484693696742
-1.313673393656205,-1.313673393656205
-1.351470266528446,-1.351470266528446
-1.3652145839365335,-1.3652145839365335
-1.3806769410206319,-1.3806769410206319
-1.3652145839365335,-1.3652145839365335
-1.3162504531702215,-1.3162504531702215
-1.2621322033758768,-1.2621322033758768
-1.2397976875877346,-1.2397976875877346
-1.2105910130955484,-1.2105910130955484
-1.144446485569127,-1.144446485569127
-1.0559674422545633,-1.0559674422545633
-0.9949770337561749,-0.9949770337561749
-0.9528850616939066,-0.9528850616939066
-0.911652109469644,-0.911652109469644
-0.84980268113325,-0.84980268113325
-0.7690548163607356,-0.7690548163607356
-0.644496939849942,-0.644496939849942
-0.49846356738901176,-0.49846356738901176
-0.38679098844830034,-0.38679098844830034
-0.3489941155760596,-0.3489941155760596
-0.335249798167972,-0.335249798167972
-0.2983119451337367,-0.2983119451337367
-0.23216741760731532,-0.23216741760731532
-0.19179348522105813,-0.19179348522105813
-0.180626227326987,-0.180626227326987
-0.20124270343911832,-0.20124270343911832
-0.23216741760731532,-0.23216741760731532
-0.273400369831578,-0.273400369831578
-0.2837086078876437,-0.2837086078876437
-0.2648101714515233,-0.2648101714515233
-0.23216741760731532,-0.23216741760731532
-0.211550941495184,-0.211550941495184
-0.180626227326987,-0.180626227326987
-0.1454064139687626,-0.1454064139687626
-0.12908503704665863,-0.12908503704665863
-0.133380136236686,-0.133380136236686
-0.07754384676633029,-0.07754384676633029
0.10800443824285175,0.10800443824285175
0.43786805603695317,0.43786805603695317
0.8888534709898261,0.8888534709898261
1.46869186164352,1.46869186164352
2.1404453749637993,2.1404453749637993
2.8079037890940515,2.8079037890940515
3.355958445741543,3.355958445741543
3.7356452141399616,3.7356452141399616
3.9100262412550726,3.9100262412550726
3.8387275947006185,3.8387275947006185
3.510582016582528,3.510582016582528
3.014068550215365,3.014068550215365
2.4393842785897037,2.4393842785897037
1.8294801936058185,1.8294801936058185
1.1920874738057579,1.1920874738057579
0.5924916268779382,0.5924916268779382
0.09254208115875324,0.09254208115875324
-0.2837086078876437,-0.2837086078876437
-0.5628900552394223,-0.5628900552394223
-0.7467203005725933,-0.7467203005725933
-0.8394944430771843,-0.8394944430771843
-0.84980268113325,-0.84980268113325
-0.8283271851831132,-0.8283271851831132
-0.7982614908529216,-0.7982614908529216
-0.7888122726348614,-0.7888122726348614
-0.7982614908529216,-0.7982614908529216
-0.8343403240491515,-0.8343403240491515
-0.84980268113325,-0.84980268113325
-0.8266091455071022,-0.8266091455071022
-0.7467203005725933,-0.7467203005725933
-0.6745626341801336,-0.6745626341801336
-0.644496939849942,-0.644496939849942
-0.6857298920742048,-0.6857298920742048
-0.7467203005725933,-0.7467203005725933
-0.7948254115008998,-0.7948254115008998
-0.7982614908529216,-0.7982614908529216
-0.7948254115008998,-0.7948254115008998
-0.7982614908529216,-0.7982614908529216
-0.8145828677750256,-0.8145828677750256
-0.7982614908529216,-0.7982614908529216
-0.738989122030544,-0.738989122030544
-0.644496939849942,-0.644496939849942
-0.5542998568593674,-0.5542998568593674
-0.48987336900895706,-0.48987336900895706
-0.4726929722488476,-0.4726929722488476
-0.48987336900895706,-0.48987336900895706
-0.5010406269030282,-0.5010406269030282
-0.43833217872862873,-0.43833217872862873
-0.31119724270381877,-0.31119724270381877
-0.180626227326987,-0.180626227326987
-0.09730130304045616,-0.09730130304045616
-0.026002656486001946,-0.026002656486001946
0.05560422812451793,0.05560422812451793
0.12862091435498307,0.12862091435498307
0.15782758884716916,0.15782758884716916
0.18016210463531143,0.18016210463531143
0.22569015604960146,0.22569015604960146
0.2832444851959681,0.2832444851959681
0.3124511596881542,0.3124511596881542
0.33478567547629645,0.33478567547629645
0.3622743102924716,0.3622743102924716
0.38632686575662484,0.38632686575662484
0.36656940948249894,0.36656940948249894
0.33478567547629645,0.33478567547629645
0.3184642985541925,0.3184642985541925
0.33478567547629645,0.33478567547629645
0.3390807746663238,0.3390807746663238
0.33478567547629645,0.33478567547629645
0.3253364572582363,0.3253364572582363
0.33478567547629645,0.33478567547629645
0.3373627349903129,0.3373627349903129
0.33478567547629645,0.33478567547629645
0.3270544969342472,0.3270544969342472
0.33478567547629645,0.33478567547629645
0.34165783418034024,0.34165783418034024
0.33478567547629645,0.33478567547629645
0.3115921398501487,0.3115921398501487
0.33478567547629645,0.33478567547629645
0.4773829685852049,0.4773829685852049
0.7986563879992515,0.7986563879992515
1.2788484774443107,1.2788484774443107
1.8810213838861467,1.8810213838861467
2.5493388178544043,2.5493388178544043
3.220233311336678,3.220233311336678
3.7502485513860546,3.7502485513860546
3.9933511655416036,3.9933511655416036
3.8876917254669303,3.8876917254669303
3.5294804530186483,3.5294804530186483
3.0424162048695456,3.0424162048695456
2.4986566474120813,2.4986566474120813
1.8939066814562289,1.8939066814562289
1.2625271005222067,1.2625271005222067
0.6818296900305073,0.6818296900305073
0.23170329491563976,0.23170329491563976
-0.09558326336444521,-0.09558326336444521
-0.335249798167972,-0.335249798167972
-0.5096308252830829,-0.5096308252830829
-0.5929557495696137,-0.5929557495696137
-0.6024049677876739,-0.6024049677876739
-0.5929557495696137,-0.5929557495696137
-0.615290265357756,-0.615290265357756
-0.644496939849942,-0.644496939849942
-0.6530871382299968,-0.6530871382299968
-0.644496939849942,-0.644496939849942
-0.664254396124068,-0.664254396124068
-0.6960381301302704,-0.6960381301302704
-0.7157955864043963,-0.7157955864043963
-0.6960381301302704,-0.6960381301302704
-0.6814347928841774,-0.6814347928841774
-0.6960381301302704,-0.6960381301302704
-0.7639006973327027,-0.7639006973327027
-0.84980268113325,-0.84980268113325
-0.9288325062297534,-0.9288325062297534
-0.9528850616939066,-0.9528850616939066
-0.9219603475257097,-0.9219603475257097
-0.84980268113325,-0.84980268113325
-0.7982614908529216,-0.7982614908529216
-0.7982614908529216,-0.7982614908529216
-0.864406018379343,-0.864406018379343
-0.9528850616939066,-0.9528850616939066
-1.0276197876003828,-1.0276197876003828
-1.0559674422545633,-1.0559674422545633
-1.0482362637125142,-1.0482362637125142
-1.004426251974235,-1.004426251974235
-0.9399997641238246,-0.9399997641238246
-0.84980268113325,-0.84980268113325
-0.7518744196006262,-0.7518744196006262
-0.644496939849942,-0.644496939849942
-0.5405555394512799,-0.5405555394512799
-0.43833217872862873,-0.43833217872862873
-0.35328921476608693,-0.35328921476608693
-0.2837086078876437,-0.2837086078876437
-0.2201411398752387,-0.2201411398752387
-0.12908503704665863,-0.12908503704665863
-0.006245200211876082,-0.006245200211876082
0.12862091435498307,0.12862091435498307
0.21624093783154127,0.21624093783154127
0.23170329491563976,0.23170329491563976
0.18445720382533878,0.18445720382533878
0.12862091435498307,0.12862091435498307
0.0908240414827423,0.0908240414827423
0.07707972407465474,0.07707972407465474
0.0719256050466219,0.0719256050466219
0.07707972407465474,0.07707972407465474
0.08051580342667664,0.08051580342667664
0.07707972407465474,0.07707972407465474
0.06677148601858908,0.06677148601858908
0.07707972407465474,0.07707972407465474
0.09340110099675872,0.09340110099675872
0.07707972407465474,0.07707972407465474
0.0006269584921676972,0.0006269584921676972
-0.07754384676633029,-0.07754384676633029
-0.09214718401242332,-0.09214718401242332
-0.026002656486001946,-0.026002656486001946
0.04873206942047415,0.04873206942047415
0.07707972407465474,0.07707972407465474
0.049591089258479625,0.049591089258479625
0.0255385337943264,0.0255385337943264
0.032410692498370176,0.032410692498370176
0.07707972407465474,0.07707972407465474
0.09769620018678608,0.09769620018678608
0.07707972407465474,0.07707972407465474
0.013512256062249784,0.013512256062249784
-0.026002656486001946,-0.026002656486001946
-0.022566577133980057,-0.022566577133980057
0.0255385337943264,0.0255385337943264
0.06419442650457266,0.06419442650457266
0.07707972407465474,0.07707972407465474
0.06763050585659454,0.06763050585659454
0.07707972407465474,0.07707972407465474
0.115735616784901,0.115735616784901
0.18016210463531143,0.18016210463531143
0.24630663216173282,0.24630663216173282
0.33478567547629645,0.33478567547629645
0.49198630583129793,0.49198630583129793
0.7986563879992515,0.7986563879992515
1.2986059337184366,1.2986059337184366
1.9841037644468036,1.9841037644468036
2.7443363210816467,2.7443363210816467
3.426398072457992,3.426398072457992
3.8679342691928045,3.8679342691928045
3.9933511655416036,3.9933511655416036
3.8026487615043885,3.8026487615043885
3.374856882177663,3.374856882177663
2.790723392333942,2.790723392333942
2.1387273352877885,2.1387273352877885
1.4858722584036295,1.4858722584036295
0.9017387685599083,0.9017387685599083
0.412097460896789,0.412097460896789
0.0255385337943264,0.0255385337943264
-0.27769546902160536,-0.27769546902160536
-0.48987336900895706,-0.48987336900895706
-0.6084181066537122,-0.6084181066537122
-0.644496939849942,-0.644496939849942
-0.6565232175820187,-0.6565232175820187
-0.6960381301302704,-0.6960381301302704
-0.7785040345787958,-0.7785040345787958
-0.84980268113325,-0.84980268113325
-0.862687978703332,-0.862687978703332
-0.7982614908529216,-0.7982614908529216
-0.7269628442984675,-0.7269628442984675
-0.6960381301302704,-0.6960381301302704
-0.7226677451084401,-0.7226677451084401
-0.7467203005725933,-0.7467203005725933
-0.7535924592766371,-0.7535924592766371
-0.7467203005725933,-0.7467203005725933
-0.7690548163607356,-0.7690548163607356
-0.7982614908529216,-0.7982614908529216
-0.8291862050211186,-0.8291862050211186
-0.84980268113325,-0.84980268113325
-0.879009355625436,-0.879009355625436
-0.9013438714135783,-0.9013438714135783
-0.9236783872017206,-0.9236783872017206
-0.9528850616939066,-0.9528850616939066
-1.0070033114882515,-1.0070033114882515
-1.0559674422545633,-1.0559674422545633
-1.0903282357747823,-1.0903282357747823
-1.1075086325348917,-1.1075086325348917
-1.1221119697809847,-1.1221119697809847
-1.1075086325348917,-1.1075086325348917
-1.0611215612825962,-1.0611215612825962
-1.004426251974235,-1.004426251974235
-0.9769376171580599,-0.9769376171580599
-0.9528850616939066,-0.9528850616939066
-0.8875995540054907,-0.8875995540054907
-0.7467203005725933,-0.7467203005725933
-0.5783524123235207,-0.5783524123235207
-0.43833217872862873,-0.43833217872862873
-0.3635974528221526,-0.3635974528221526
-0.335249798167972,-0.335249798167972
-0.3335317584919611,-0.3335317584919611
-0.335249798167972,-0.335249798167972
-0.32837763946392823,-0.32837763946392823
-0.2837086078876437,-0.2837086078876437
-0.20725584230515662,-0.20725584230515662
-0.12908503704665863,-0.12908503704665863
-0.09042914433641237,-0.09042914433641237
-0.07754384676633029,-0.07754384676633029
-0.06208148968223179,-0.06208148968223179
-0.026002656486001946,-0.026002656486001946
0.004922057682195059,0.004922057682195059
0.0255385337943264,0.0255385337943264
0.04271893055443585,0.04271893055443585
0.07707972407465474,0.07707972407465474
0.11315855727088459,0.11315855727088459
0.12862091435498307,0.12862091435498307
0.1062863985668408,0.1062863985668408
0.07707972407465474,0.07707972407465474
0.062476386828561714,0.062476386828561714
0.07707972407465474,0.07707972407465474
0.08309286294069305,0.08309286294069305
0.07707972407465474,0.07707972407465474
0.06075834715255077,0.06075834715255077
0.07707972407465474,0.07707972407465474
0.10800443824285175,0.10800443824285175
0.12862091435498307,0.12862091435498307
0.10714541840484627,0.10714541840484627
0.07707972407465474,0.07707972407465474
0.06333540666656719,0.06333540666656719
0.07707972407465474,0.07707972407465474
0.08395188277869853,0.08395188277869853
0.07707972407465474,0.07707972407465474
0.06333540666656719,0.06333540666656719
0.07707972407465474,0.07707972407465474
0.15095543014312537,0.15095543014312537
0.33478567547629645,0.33478567547629645
0.6620722337563815,0.6620722337563815
1.15944471996155,1.15944471996155
1.7976964595996159,1.7976964595996159
2.4986566474120813,2.4986566474120813
3.09653445466389,3.09653445466389
3.426398072457992,3.426398072457992
3.408358655859877,3.408358655859877
3.1171509307760217,3.1171509307760217
2.6799098332312363,2.6799098332312363
2.1902685255681167,2.1902685255681167
1.6465089681106528,1.6465089681106528
1.0563623394008932,1.0563623394008932
0.4679337503671447,0.4679337503671447
-0.026002656486001946,-0.026002656486001946
-0.39022706780032224,-0.39022706780032224
-0.644496939849942,-0.644496939849942
-0.8326222843731406,-0.8326222843731406
-0.9528850616939066,-0.9528850616939066
-1.0061442916502459,-1.0061442916502459
-1.004426251974235,-1.004426251974235
-0.9992721329462022,-0.9992721329462022
-1.004426251974235,-1.004426251974235
-1.0164525297063116,-1.0164525297063116
-1.004426251974235,-1.004426251974235
-0.9838097758621037,-0.9838097758621037
-0.9528850616939066,-0.9528850616939066
-0.9331276054197808,-0.9331276054197808
-0.9013438714135783,-0.9013438714135783
-0.8764322961114196,-0.8764322961114196
-0.84980268113325,-0.84980268113325
-0.8343403240491515,-0.8343403240491515
-0.7982614908529216,-0.7982614908529216
-0.7501563799246151,-0.7501563799246151
-0.6960381301302704,-0.6960381301302704
-0.6659724358000789,-0.6659724358000789
-0.644496939849942,-0.644496939849942
-0.6238804637378107,-0.6238804637378107
-0.5929557495696137,-0.5929557495696137
-0.5663261345914441,-0.5663261345914441
-0.5414145592892854,-0.5414145592892854
-0.5336833807472361,-0.5336833807472361
-0.5414145592892854,-0.5414145592892854
-0.5439916188033018,-0.5439916188033018
-0.48987336900895706,-0.48987336900895706
-0.38679098844830034,-0.38679098844830034
-0.2837086078876437,-0.2837086078876437
-0.2141280010092004,-0.2141280010092004
-0.12908503704665863,-0.12908503704665863
-0.00538618037387061,-0.00538618037387061
0.12862091435498307,0.12862091435498307
0.2308442750776343,0.2308442750776343
0.33478567547629645,0.33478567547629645
0.4627796313391119,0.4627796313391119
0.5924916268779382,0.5924916268779382
0.6783936106784855,0.6783936106784855
0.7471151977189232,0.7471151977189232
0.8252860029774212,0.8252860029774212
0.9017387685599083,0.9017387685599083
0.9257913240240615,0.9257913240240615
0.9017387685599083,0.9017387685599083
0.8519156179555909,0.8519156179555909
0.7986563879992515,0.7986563879992515
0.7385249993388685,0.7385249993388685
0.6955740074385949,0.6955740074385949
0.6680853726224197,0.6680853726224197
0.6440328171582665,0.6440328171582665
0.5942096665539491,0.5942096665539491
0.5409504365976099,0.5409504365976099
0.5022945438873636,0.5022945438873636
0.4894092463172815,0.4894092463172815
0.46965179004315566,0.46965179004315566
0.43786805603695317,0.43786805603695317
0.3871858855946303,0.3871858855946303
0.33478567547629645,0.33478567547629645
0.27637232649192434,0.27637232649192434
0.23170329491563976,0.23170329491563976
0.19562446171940995,0.19562446171940995
0.18016210463531143,0.18016210463531143
0.1561095491711582,0.1561095491711582
0.12862091435498307,0.12862091435498307
0.08910600180673135,0.08910600180673135
0.07707972407465474,0.07707972407465474
0.08996502164473683,0.08996502164473683
0.12862091435498307,0.12862091435498307
0.1440832714390816,0.1440832714390816
0.12862091435498307,0.12862091435498307
0.0908240414827423,0.0908240414827423
0.07707972407465474,0.07707972407465474
0.07879776375066569,0.07879776375066569
0.07707972407465474,0.07707972407465474
0.059899327314545295,0.059899327314545295
0.07707972407465474,0.07707972407465474
0.14837837062910894,0.14837837062910894
0.2832444851959681,0.2832444851959681
0.506589643077391,0.506589643077391
0.9017387685599083,0.9017387685599083
1.4747050005095583,1.4747050005095583
2.1387273352877885,2.1387273352877885
2.763234757517767,2.763234757517767
3.271774501617007,3.271774501617007
3.55009692913078,3.55009692913078
3.47793926273832,3.47793926273832
3.0458522842215676,3.0458522842215676
2.447115457131753,2.447115457131753
1.8750082450201084,1.8750082450201084
1.3656094810828634,1.3656094810828634
0.8450434592515471,0.8450434592515471
0.33478567547629645,0.33478567547629645
-0.07496678725231387,-0.07496678725231387
-0.335249798167972,-0.335249798167972
-0.50447670625505,-0.50447670625505
-0.644496939849942,-0.644496939849942
-0.7690548163607356,-0.7690548163607356
-0.84980268113325,-0.84980268113325
-0.8884585738434962,-0.8884585738434962
-0.9013438714135783,-0.9013438714135783
-0.9236783872017206,-0.9236783872017206
-0.9528850616939066,-0.9528850616939066
-0.9881048750521311,-0.9881048750521311
-1.004426251974235,-1.004426251974235
-1.0130164503542898,-1.0130164503542898
-1.004426251974235,-1.004426251974235
-1.002708212298224,-1.002708212298224
-1.004426251974235,-1.004426251974235
-1.0301968471143992,-1.0301968471143992
-1.0559674422545633,-1.0559674422545633
-1.0851741167467495,-1.0851741167467495
-1.1075086325348917,-1.1075086325348917
-1.1367153070270777,-1.1367153070270777
-1.15904982281522,-1.15904982281522
-1.1822433584413679,-1.1822433584413679
-1.2105910130955484,-1.2105910130955484
-1.2595551438618604,-1.2595551438618604
-1.313673393656205,-1.313673393656205
-1.3695096831265607,-1.3695096831265607
-1.4167557742168617,-1.4167557742168617
-1.457129706603119,-1.457129706603119
-1.4682969644971902,-1.4682969644971902
-1.4511165677370808,-1.4511165677370808
-1.4167557742168617,-1.4167557742168617
-1.3927032187527086,-1.3927032187527086
-1.3652145839365335,-1.3652145839365335
-1.3119553539801942,-1.3119553539801942
-1.2105910130955484,-1.2105910130955484
-1.0834560770707384,-1.0834560770707384
-0.9528850616939066,-0.9528850616939066
-0.8429305224292062,-0.8429305224292062
-0.7467203005725933,-0.7467203005725933
-0.6651134159620734,-0.6651134159620734
-0.5929557495696137,-0.5929557495696137
-0.5379784799372636,-0.5379784799372636
-0.48987336900895706,-0.48987336900895706
-0.4417682580806506,-0.4417682580806506
-0.38679098844830034,-0.38679098844830034
-0.3472760759000486,-0.3472760759000486
-0.335249798167972,-0.335249798167972
-0.3421219568720158,-0.3421219568720158
-0.335249798167972,-0.335249798167972
-0.30947920302780785,-0.30947920302780785
-0.2837086078876437,-0.2837086078876437
-0.28113154837362725,-0.28113154837362725
-0.2837086078876437,-0.2837086078876437
-0.2682462508035452,-0.2682462508035452
-0.23216741760731532,-0.23216741760731532
-0.2141280010092004,-0.2141280010092004
-0.23216741760731532,-0.23216741760731532
-0.26910527064155065,-0.26910527064155065
-0.2837086078876437,-0.2837086078876437
-0.2819905682116327,-0.2819905682116327
-0.2837086078876437,-0.2837086078876437
-0.30088900464775314,-0.30088900464775314
-0.2837086078876437,-0.2837086078876437
-0.23474447712133176,-0.23474447712133176
-0.180626227326987,-0.180626227326987
-0.17289504878493772,-0.17289504878493772
-0.180626227326987,-0.180626227326987
-0.1857803463550198,-0.1857803463550198
-0.180626227326987,-0.180626227326987
-0.18749838603103075,-0.18749838603103075
-0.180626227326987,-0.180626227326987
-0.1557146520248283,-0.1557146520248283
-0.12908503704665863,-0.12908503704665863
-0.13166209656067507,-0.13166209656067507
-0.12908503704665863,-0.12908503704665863
-0.07324874757630292,-0.07324874757630292
0.07707972407465474,0.07707972407465474
0.3493890127223895,0.3493890127223895
0.7986563879992515,0.7986563879992515
1.4326130284472902,1.4326130284472902
2.1902685255681167,2.1902685255681167
2.9350387251188614,2.9350387251188614
3.5294804530186483,3.5294804530186483
3.8258422971305364,3.8258422971305364
3.7356452141399616,3.7356452141399616
3.285518819025094,3.285518819025094
2.6532802182530664,2.6532802182530664
2.019323577805028,2.019323577805028
1.46869186164352,1.46869186164352
0.9799095738184063,0.9799095738184063
0.5409504365976099,0.5409504365976099
0.16298170787520197,0.16298170787520197
-0.12908503704665863,-0.12908503704665863
-0.3421219568720158,-0.3421219568720158
-0.48987336900895706,-0.48987336900895706
-0.6032639876256795,-0.6032639876256795
-0.6960381301302704,-0.6960381301302704
-0.7681957965227301,-0.7681957965227301
-0.7982614908529216,-0.7982614908529216
-0.7999795305289326,-0.7999795305289326
-0.7982614908529216,-0.7982614908529216
-0.8248911058310913,-0.8248911058310913
-0.84980268113325,-0.84980268113325
-0.8609699390273211,-0.8609699390273211
-0.84980268113325,-0.84980268113325
-0.864406018379343,-0.864406018379343
-0.9013438714135783,-0.9013438714135783
-0.9460129029898628,-0.9460129029898628
-0.9528850616939066,-0.9528850616939066
-0.9460129029898628,-0.9460129029898628
-0.9528850616939066,-0.9528850616939066
-0.9881048750521311,-0.9881048750521311
-1.004426251974235,-1.004426251974235
-1.0009901726222132,-1.0009901726222132
-1.004426251974235,-1.004426251974235
-1.0525313629025415,-1.0525313629025415
-1.1075086325348917,-1.1075086325348917
-1.1427284458931162,-1.1427284458931162
-1.15904982281522,-1.15904982281522
-1.1908335568214226,-1.1908335568214226
-1.2105910130955484,-1.2105910130955484
-1.1848204179553843,-1.1848204179553843
-1.1075086325348917,-1.1075086325348917
-1.0379280256564485,-1.0379280256564485
-1.004426251974235,-1.004426251974235
-0.9949770337561749,-0.9949770337561749
-0.9528850616939066,-0.9528850616939066
-0.864406018379343,-0.864406018379343
-0.7467203005725933,-0.7467203005725933
-0.6393428208219093,-0.6393428208219093
-0.5414145592892854,-0.5414145592892854
-0.4426272779186561,-0.4426272779186561
-0.335249798167972,-0.335249798167972
-0.24333467550138646,-0.24333467550138646
-0.180626227326987,-0.180626227326987
-0.1488424933207845,-0.1488424933207845
-0.12908503704665863,-0.12908503704665863
-0.12221287834261486,-0.12221287834261486
-0.12908503704665863,-0.12908503704665863
-0.1557146520248283,-0.1557146520248283
-0.180626227326987,-0.180626227326987
-0.19093446538305264,-0.19093446538305264
-0.180626227326987,-0.180626227326987
-0.17289504878493772,-0.17289504878493772
-0.180626227326987,-0.180626227326987
-0.20897388198116756,-0.20897388198116756
-0.23216741760731532,-0.23216741760731532
-0.24161663582537551,-0.24161663582537551
-0.23216741760731532,-0.23216741760731532
-0.22615427874127703,-0.22615427874127703
-0.23216741760731532,-0.23216741760731532
-0.2579380127474795,-0.2579380127474795
-0.2837086078876437,-0.2837086078876437
-0.29917096497174217,-0.29917096497174217
-0.2837086078876437,-0.2837086078876437
-0.25965605242349044,-0.25965605242349044
-0.23216741760731532,-0.23216741760731532
-0.2149870208472059,-0.2149870208472059
-0.180626227326987,-0.180626227326987
-0.1488424933207845,-0.1488424933207845
-0.12908503704665863,-0.12908503704665863
-0.13767523542671337,-0.13767523542671337
-0.12908503704665863,-0.12908503704665863
-0.08871110466040143,-0.08871110466040143
-0.026002656486001946,-0.026002656486001946
0.010935196548233366,0.010935196548233366
0.0255385337943264,0.0255385337943264
0.03670579168839754,0.03670579168839754
0.07707972407465474,0.07707972407465474
0.1500964103051199,0.1500964103051199
0.2832444851959681,0.2832444851959681
0.5160388612954512,0.5160388612954512
0.9017387685599083,0.9017387685599083
1.4403442069893395,1.4403442069893395
2.0871861450074602,2.0871861450074602
2.7366051425395974,2.7366051425395974
3.271774501617007,3.271774501617007
3.5612641870248507,3.5612641870248507
3.5294804530186483,3.5294804530186483
3.1858725178164593,3.1858725178164593
2.6532802182530664,2.6532802182530664
2.0674286887333344,2.0674286887333344
1.5202330519238485,1.5202330519238485
1.0245786053946908,1.0245786053946908
0.5924916268779382,0.5924916268779382
0.2342803544296562,0.2342803544296562
-0.026002656486001946,-0.026002656486001946
-0.1926525050590636,-0.1926525050590636
-0.2837086078876437,-0.2837086078876437
-0.3404039171960048,-0.3404039171960048
-0.38679098844830034,-0.38679098844830034
-0.43833217872862873,-0.43833217872862873
-0.48987336900895706,-0.48987336900895706
-0.555158876697373,-0.555158876697373
-0.644496939849942,-0.644496939849942
-0.75874657830467,-0.75874657830467
-0.84980268113325,-0.84980268113325
-0.8987668118995619,-0.8987668118995619
-0.9013438714135783,-0.9013438714135783
-0.9142291689836605,-0.9142291689836605
-0.9528850616939066,-0.9528850616939066
-1.0301968471143992,-1.0301968471143992
-1.1075086325348917,-1.1075086325348917
-1.1745121798993186,-1.1745121798993186
-1.2105910130955484,-1.2105910130955484
-1.2372206280737181,-1.2372206280737181
-1.2621322033758768,-1.2621322033758768
-1.3093782944661778,-1.3093782944661778
-1.3652145839365335,-1.3652145839365335
-1.4253459725969164,-1.4253459725969164
-1.4682969644971902,-1.4682969644971902
-1.5017987381794036,-1.5017987381794036
-1.5198381547775184,-1.5198381547775184
-1.5301463928335841,-1.5301463928335841
-1.5198381547775184,-1.5198381547775184
-1.4983626588273817,-1.4983626588273817
-1.4682969644971902,-1.4682969644971902
-1.4451034288710425,-1.4451034288710425
-1.4167557742168617,-1.4167557742168617
-1.378958901344621,-1.378958901344621
-1.313673393656205,-1.313673393656205
-1.224335330503636,-1.224335330503636
-1.1075086325348917,-1.1075086325348917
-0.9803736965100818,-0.9803736965100818
-0.84980268113325,-0.84980268113325
-0.7381301021925386,-0.7381301021925386
-0.644496939849942,-0.644496939849942
-0.5663261345914441,-0.5663261345914441
-0.48987336900895706,-0.48987336900895706
-0.4263059009965521,-0.4263059009965521
-0.38679098844830034,-0.38679098844830034
-0.3807778495822621,-0.3807778495822621
-0.38679098844830034,-0.38679098844830034
-0.3919451074763332,-0.3919451074763332
-0.38679098844830034,-0.38679098844830034
-0.37132863136420186,-0.37132863136420186
-0.335249798167972,-0.335249798167972
-0.29659390545772574,-0.29659390545772574
-0.2837086078876437,-0.2837086078876437
-0.31119724270381877,-0.31119724270381877
-0.335249798167972,-0.335249798167972
-0.32494156011190634,-0.32494156011190634
-0.2837086078876437,-0.2837086078876437
-0.25106585404343573,-0.25106585404343573
-0.23216741760731532,-0.23216741760731532
-0.22873133825529343,-0.22873133825529343
-0.23216741760731532,-0.23216741760731532
-0.24333467550138646,-0.24333467550138646
-0.23216741760731532,-0.23216741760731532
-0.20639682246715116,-0.20639682246715116
-0.180626227326987,-0.180626227326987
-0.1832032868410034,-0.1832032868410034
-0.180626227326987,-0.180626227326987
-0.1771901479749651,-0.1771901479749651
-0.180626227326987,-0.180626227326987
-0.20038368360111286,-0.20038368360111286
-0.180626227326987,-0.180626227326987
-0.11104562044854371,-0.11104562044854371
-0.026002656486001946,-0.026002656486001946
0.028115593308342814,0.028115593308342814
0.07707972407465474,0.07707972407465474
0.1337750333830159,0.1337750333830159
0.18016210463531143,0.18016210463531143
0.2024966204234537,0.2024966204234537
0.2832444851959681,0.2832444851959681
0.5057306232393854,0.5057306232393854
0.9017387685599083,0.9017387685599083
1.436049107799312,1.436049107799312
2.0871861450074602,2.0871861450074602
2.781274174115882,2.781274174115882
3.374856882177663,3.374856882177663
3.6823859841836226,3.6823859841836226
3.632562833579305,3.632562833579305
3.290672938053127,3.290672938053127
2.8079037890940515,2.8079037890940515
