ECG,PPG
-0.13053645986166945,-0.13053645986166945
-0.14837047796546915,-0.14837047796546915
-0.13456349620768873,-0.13456349620768873
-0.11385302357101812,-0.11385302357101812
-0.11327773266444394,-0.11327773266444394
-0.13916582346028222,-0.13916582346028222
-0.1719574051350107,-0.1719574051350107
-0.19094200505195877,-0.19094200505195877
-0.1897914232388104,-0.1897914232388104
-0.17023153241528813,-0.17023153241528813
-0.15815042337723026,-0.15815042337723026
-0.21625480494122287,-0.21625480494122287
-0.33936705894809827,-0.33936705894809827
-0.34281880438754336,-0.34281880438754336
0.012710975875302384,0.012710975875302384
0.7433304272245161,0.7433304272245161
1.6482630232657078,1.6482630232657078
2.599794182739408,2.599794182739408
3.546723014960515,3.546723014960515
4.1668866122474855,4.1668866122474855
3.8976504679707675,3.8976504679707675
2.6072729645248724,2.6072729645248724
0.9774738262002091,0.9774738262002091
-0.09199196912119911,-0.09199196912119911
-0.33591531350865317,-0.33591531350865317
-0.16677978697584303,-0.16677978697584303
-0.036188751183503266,-0.036188751183503266
-0.035613460276929076,-0.035613460276929076
-0.05517335110045134,-0.05517335110045134
-0.049995732941283684,-0.049995732941283684
-0.06322742379248991,-0.06322742379248991
-0.11385302357101812,-0.11385302357101812
-0.16160216881667538,-0.16160216881667538
-0.1754091505744558,-0.1754091505744558
-0.17368327785473325,-0.17368327785473325
-0.19151729595853295,-0.19151729595853295
-0.2191312594740938,-0.2191312594740938
-0.22430887763326143,-0.22430887763326143
-0.204173695903165,-0.204173695903165
-0.19381845958482968,-0.19381845958482968
-0.18864084142566204,-0.18864084142566204
-0.17023153241528813,-0.17023153241528813
-0.11903064173018577,-0.11903064173018577
-0.06898033285823175,-0.06898033285823175
-0.04079107843609674,-0.04079107843609674
-0.033312296650632345,-0.033312296650632345
-0.029285260304613054,-0.029285260304613054
-0.012026533107387532,-0.012026533107387532
0.022490921287063512,0.022490921287063512
0.05988483021438548,0.05988483021438548
0.08462233919707539,0.08462233919707539
0.09555286642198489,0.09555286642198489
0.10820926636661694,0.10820926636661694
0.13524793897560358,0.13524793897560358
0.16919010246348049,0.16919010246348049
0.1933523205395962,0.1933523205395962
0.2008311023250606,0.2008311023250606
0.20198168413820897,0.20198168413820897
0.2117616295499701,0.2117616295499701
0.23880030215895676,0.23880030215895676
0.2773447928994271,0.2773447928994271
0.3170398654530458,0.3170398654530458
0.34695499259490337,0.34695499259490337
0.3665148834184256,0.3665148834184256
0.37917128336305767,0.37917128336305767
0.39355355602741227,0.39355355602741227
0.40966170141148944,0.40966170141148944
0.417715774103528,0.417715774103528
0.40966170141148944,0.40966170141148944
0.3993064650931541,0.3993064650931541
0.4102369923180636,0.4102369923180636
0.44360386489936626,0.44360386489936626
0.46373904662946275,0.46373904662946275
0.4355497922073277,0.4355497922073277
0.3636384288855547,0.3636384288855547
0.280221247432298,0.280221247432298
0.2123369204565443,0.2123369204565443
0.15883486614514516,0.15883486614514516
0.11281159361921042,0.11281159361921042
0.07254123015901753,0.07254123015901753
0.046077848456605064,0.046077848456605064
0.03514732123169556,0.03514732123169556
0.03342144851197301,0.03342144851197301
0.032270866698824646,0.032270866698824646
0.02766853944623117,0.02766853944623117
0.016738012221321673,0.016738012221321673
0.0006298668372445185,0.0006298668372445185
-0.01605356945340682,-0.01605356945340682
-0.025258223958593767,-0.025258223958593767
-0.021231187612574476,-0.021231187612574476
-0.009725369481090795,-0.009725369481090795
-0.002246587695626402,-0.002246587695626402
0.0012051577438187025,0.0012051577438187025
0.014436848595024936,0.014436848595024936
0.046077848456605064,0.046077848456605064
0.0736918119721659,0.0736918119721659
0.06793890290642406,0.06793890290642406
0.029969703072527908,0.029969703072527908
0.0006298668372445185,0.0006298668372445185
0.004656903183263807,0.004656903183263807
0.017313303127895856,0.017313303127895856
-0.00915007857451661,-0.00915007857451661
-0.08221202370943799,-0.08221202370943799
-0.1644786233495463,-0.1644786233495463
-0.2185559685675196,-0.2185559685675196
-0.2363899866713193,-0.2363899866713193
-0.23236295032530002,-0.23236295032530002
-0.22488416853983562,-0.22488416853983562
-0.22085713219381634,-0.22085713219381634
-0.21683009584779706,-0.21683009584779706
-0.20532427771631337,-0.20532427771631337
-0.18864084142566204,-0.18864084142566204
-0.17771031420075253,-0.17771031420075253
-0.17771031420075253,-0.17771031420075253
-0.17828560510732672,-0.17828560510732672
-0.16562920516269466,-0.16562920516269466
-0.13628936892741128,-0.13628936892741128
-0.10119662362638607,-0.10119662362638607
-0.07530853283054778,-0.07530853283054778
-0.0638027146990641,-0.0638027146990641
-0.060350969259619,-0.060350969259619
-0.05574864200702552,-0.05574864200702552
-0.044818114782116024,-0.044818114782116024
-0.03158642393090979,-0.03158642393090979
-0.01605356945340682,-0.01605356945340682
-0.00915007857451661,-0.00915007857451661
-0.00915007857451661,-0.00915007857451661
-0.018354733079703558,-0.018354733079703558
-0.014327696733684267,-0.014327696733684267
-0.007424205854794059,-0.007424205854794059
-0.01605356945340682,-0.01605356945340682
-0.031011133024335606,-0.031011133024335606
-0.03158642393090979,-0.03158642393090979
-0.036188751183503266,-0.036188751183503266
-0.08623906005545728,-0.08623906005545728
-0.15527396884435934,-0.15527396884435934
-0.17655973238760417,-0.17655973238760417
-0.1725326960415849,-0.1725326960415849
-0.2513475502422481,-0.2513475502422481
-0.413579585896168,-0.413579585896168
-0.46305460386154784,-0.46305460386154784
-0.19266787777168132,-0.19266787777168132
0.4108122832246378,0.4108122832246378
1.2156442615219214,1.2156442615219214
2.1309320938814484,2.1309320938814484
3.0853397078880196,3.0853397078880196
3.799851013853156,3.799851013853156
3.777989959403337,3.777989959403337
2.752821563888141,2.752821563888141
1.1477599345461675,1.1477599345461675
-0.15182222340491425,-0.15182222340491425
-0.5942209305604619,-0.5942209305604619
-0.40207376776468434,-0.40207376776468434
-0.14089169618000477,-0.14089169618000477
-0.06437800560563828,-0.06437800560563828
-0.05574864200702552,-0.05574864200702552
-0.003972460415348955,-0.003972460415348955
0.03457203032512138,0.03457203032512138
0.006958066809560543,0.006958066809560543
-0.028134678491464685,-0.028134678491464685
-0.0131771149205359,-0.0131771149205359
0.028243830352805355,0.028243830352805355
0.040900230297437404,0.040900230297437404
0.0121356849687282,0.0121356849687282
-0.025258223958593767,-0.025258223958593767
-0.04136636934267092,-0.04136636934267092
-0.029285260304613054,-0.029285260304613054
-0.022381769425722845,-0.022381769425722845
-0.02698409667831632,-0.02698409667831632
-0.03388758755720653,-0.03388758755720653
-0.0131771149205359,-0.0131771149205359
0.011560394062154016,0.011560394062154016
0.0029310304635412547,0.0029310304635412547
-0.05172160566100623,-0.05172160566100623
-0.12133180535648251,-0.12133180535648251
-0.16965624150871395,-0.16965624150871395
-0.18288793235992018,-0.18288793235992018
-0.17310798694815907,-0.17310798694815907
-0.14837047796546915,-0.14837047796546915
-0.11212715085129556,-0.11212715085129556
-0.06955562376480594,-0.06955562376480594
-0.033312296650632345,-0.033312296650632345
-0.002821878602200586,-0.002821878602200586
0.03572261213826975,0.03572261213826975
0.09555286642198489,0.09555286642198489
0.16861481155690627,0.16861481155690627
0.23937559306553094,0.23937559306553094
0.2969046837229493,0.2969046837229493
0.3492561562212001,0.3492561562212001
0.4062099559720443,0.4062099559720443
0.4683413738820562,0.4683413738820562
0.5350751190446615,0.5350751190446615
0.6058359005532862,0.6058359005532862
0.6760213911553365,0.6760213911553365
0.7289481545601615,0.7289481545601615
0.755411536262574,0.755411536262574
0.7651914816743351,0.7651914816743351
0.7766972998058188,0.7766972998058188
0.7928054451898959,0.7928054451898959
0.7945313179096185,0.7945313179096185
0.758287990795445,0.758287990795445
0.6788978456882075,0.6788978456882075
0.5707431552522609,0.5707431552522609
0.4574108466571467,0.4574108466571467
0.3567349380066645,0.3567349380066645
0.2687154293008143,0.2687154293008143
0.1829970842212609,0.1829970842212609
0.09325170279568816,0.09325170279568816
0.009834521342431464,0.009834521342431464
-0.05057102384785787,-0.05057102384785787
-0.08278731461601217,-0.08278731461601217
-0.11040127813157301,-0.11040127813157301
-0.1529728052180626,-0.1529728052180626
-0.19611962321112641,-0.19611962321112641
-0.19209258686510713,-0.19209258686510713
-0.13053645986166945,-0.13053645986166945
-0.0419416602492451,-0.0419416602492451
0.017313303127895856,0.017313303127895856
0.05585779386836619,0.05585779386836619
0.09267641188911398,0.09267641188911398
0.15193137526625494,0.15193137526625494
0.21693924770913775,0.21693924770913775
0.2623872293284983,0.2623872293284983
0.280221247432298,0.280221247432298
0.28539886559146566,0.28539886559146566
0.280221247432298,0.280221247432298
0.26066135660877576,0.26066135660877576
0.252031993010163,0.252031993010163
0.27792008380600125,0.27792008380600125
0.2900011928440591,0.2900011928440591
0.2330473930932149,0.2330473930932149
0.20830988411052498,0.20830988411052498
0.43497450130075355,0.43497450130075355
1.0045124988091958,1.0045124988091958
1.8243020406774082,1.8243020406774082
2.80632361819954,2.80632361819954
3.844148413659368,3.844148413659368
4.522416392510332,4.522416392510332
4.227867448344349,4.227867448344349
2.843142236220288,2.843142236220288
1.1051884074596778,1.1051884074596778
-0.029860551211187237,-0.029860551211187237
-0.2772356410380864,-0.2772356410380864
-0.08393789642916054,-0.08393789642916054
0.03974964848428904,0.03974964848428904
-0.02008060579942611,-0.02008060579942611
-0.11903064173018577,-0.11903064173018577
-0.1713821142284365,-0.1713821142284365
-0.2151042231280745,-0.2151042231280745
-0.28183796829067986,-0.28183796829067986
-0.3203824590311502,-0.3203824590311502
-0.27493447741178967,-0.27493447741178967
-0.16620449606926885,-0.16620449606926885
-0.06955562376480594,-0.06955562376480594
-0.013752405827110084,-0.013752405827110084
0.024216794006786065,0.024216794006786065
0.06621303018670151,0.06621303018670151
0.09440228460883653,0.09440228460883653
0.11511275724550715,0.11511275724550715
0.13409735716245522,0.13409735716245522
0.16171132067801608,0.16171132067801608
0.17379242971607395,0.17379242971607395
0.17149126608977722,0.17149126608977722
0.16573835702403536,0.16573835702403536
0.16573835702403536,0.16573835702403536
0.17091597518320303,0.17091597518320303
0.18357237512783509,0.18357237512783509
0.2008311023250606,0.2008311023250606
0.2186651204288603,0.2186651204288603
0.22384273858802797,0.22384273858802797
0.2123369204565443,0.2123369204565443
0.19220173872644783,0.19220173872644783
0.18587353875413182,0.18587353875413182
0.20025581141848642,0.20025581141848642
0.22096628405515703,0.22096628405515703
0.22039099314858285,0.22039099314858285
0.19622877507246714,0.19622877507246714
0.16688893883718373,0.16688893883718373
0.1605607388648677,0.1605607388648677
0.18874999328700273,0.18874999328700273
0.24627908394442113,0.24627908394442113
0.3187657381727683,0.3187657381727683
0.39700530146685736,0.39700530146685736
0.4786966102003915,0.4786966102003915
0.5672914098128159,0.5672914098128159
0.6633649912107046,0.6633649912107046
0.7628903180480384,0.7628903180480384
0.858388608539353,0.858388608539353
0.9469834081517773,0.9469834081517773
1.0275241350721631,1.0275241350721631
1.0931072984216201,1.0931072984216201
1.1195706801240326,1.1195706801240326
1.086779098449304,1.086779098449304
0.9953078443040088,0.9953078443040088
0.8762226266431526,0.8762226266431526
0.758287990795445,0.758287990795445
0.6478321367332016,0.6478321367332016
0.546005646269571,0.546005646269571
0.4660402102557595,0.4660402102557595
0.4211675195429731,0.4211675195429731
0.39873117418657994,0.39873117418657994
0.3688160470447224,0.3688160470447224
0.32164219270563926,0.32164219270563926
0.26066135660877576,0.26066135660877576
0.21061104773682174,0.21061104773682174
0.1829970842212609,0.1829970842212609
0.19507819325931874,0.19507819325931874
0.20255697504478315,0.20255697504478315
0.16171132067801608,0.16171132067801608
0.09037524826281723,0.09037524826281723
0.06103541202753385,0.06103541202753385
0.06333657565383058,0.06333657565383058
0.024216794006786065,0.024216794006786065
-0.060350969259619,-0.060350969259619
-0.09199196912119911,-0.09199196912119911
-0.05402276928730297,-0.05402276928730297
-0.054598060193877154,-0.054598060193877154
-0.13743995074055967,-0.13743995074055967
-0.15930100519037865,-0.15930100519037865
0.04205081211058577,0.04205081211058577
0.4902024283318752,0.4902024283318752
1.1684704071828382,1.1684704071828382
2.145314366545803,2.145314366545803
3.383915688400021,3.383915688400021
4.442450956496519,4.442450956496519
4.602381828524143,4.602381828524143
3.5444218513342185,3.5444218513342185
1.8438619315009304,1.8438619315009304
0.546005646269571,0.546005646269571
0.17321713880949977,0.17321713880949977
0.3475302835014775,0.3475302835014775
0.445905028525663,0.445905028525663
0.323943356331936,0.323943356331936
0.20946046592367334,0.20946046592367334
0.18932528419357691,0.18932528419357691
0.14445259348079054,0.14445259348079054
0.046077848456605064,0.046077848456605064
-0.01030066038766498,-0.01030066038766498
-0.006273624041645691,-0.006273624041645691
-0.02698409667831632,-0.02698409667831632
-0.09371784184092168,-0.09371784184092168
-0.1397411143668564,-0.1397411143668564
-0.132262332581392,-0.132262332581392
-0.1144283144775923,-0.1144283144775923
-0.12133180535648251,-0.12133180535648251
-0.15987629609695284,-0.15987629609695284
-0.2012972413702941,-0.2012972413702941
-0.2266100412595582,-0.2266100412595582
-0.19784549593084896,-0.19784549593084896
-0.12478355079592761,-0.12478355079592761
-0.03388758755720653,-0.03388758755720653
0.05470721205521782,0.05470721205521782
0.1392749753216229,0.1392749753216229
0.20946046592367334,0.20946046592367334
0.2508814111970146,0.2508814111970146
0.27446833836655615,0.27446833836655615
0.31761515635961995,0.31761515635961995
0.38665006514852207,0.38665006514852207
0.4430285739927921,0.4430285739927921
0.45971201028344344,0.45971201028344344
0.4660402102557595,0.4660402102557595
0.49768121011733957,0.49768121011733957
0.5385268644841067,0.5385268644841067
0.5517585553353129,0.5517585553353129
0.5408280281104034,0.5408280281104034
0.5465809371761452,0.5465809371761452
0.5903030460757832,0.5903030460757832
0.6466815549200532,0.6466815549200532
0.6794731365947817,0.6794731365947817
0.6829248820342267,0.6829248820342267
0.6794731365947817,0.6794731365947817
0.6921295365394138,0.6921295365394138
0.7231952454944197,0.7231952454944197
0.7605891544217417,0.7605891544217417
0.7859019543110057,0.7859019543110057
0.7795737543386897,0.7795737543386897
0.7352763545324775,0.7352763545324775
0.6668167366501496,0.6668167366501496
0.6029594460204152,0.6029594460204152
0.5500326826155904,0.5500326826155904
0.4861753919858559,0.4861753919858559
0.39355355602741227,0.39355355602741227
0.2934529382835042,0.2934529382835042
0.2117616295499701,0.2117616295499701
0.15250666617282913,0.15250666617282913
0.08634821191679795,0.08634821191679795
0.013861557688450753,0.013861557688450753
-0.04826986022156113,-0.04826986022156113
-0.05517335110045134,-0.05517335110045134
-0.01605356945340682,-0.01605356945340682
0.04780372117632761,0.04780372117632761
0.09957990276800419,0.09957990276800419
0.12891973900328757,0.12891973900328757
0.14905492073338403,0.14905492073338403
0.186448829660706,0.186448829660706
0.24167675669182767,0.24167675669182767
0.2940282291900784,0.2940282291900784
0.3233680654253618,0.3233680654253618
0.3233680654253618,0.3233680654253618
0.273893047459982,0.273893047459982
0.1824217933146867,0.1824217933146867
0.14905492073338403,0.14905492073338403
0.30668462913471045,0.30668462913471045
0.6909789547262654,0.6909789547262654
1.2806521339648043,1.2806521339648043
2.1355344211340417,2.1355344211340417
3.26137872529972,3.26137872529972
4.2658366481782455,4.2658366481782455
4.446477992842539,4.446477992842539
3.4702093243861487,3.4702093243861487
1.8432866405943562,1.8432866405943562
0.49250359195817195,0.49250359195817195
-0.07300736920425105,-0.07300736920425105
-0.05517335110045134,-0.05517335110045134
0.0696647756261466,0.0696647756261466
0.0518307575223469,0.0518307575223469
-0.0563239329135997,-0.0563239329135997
-0.13398820530111455,-0.13398820530111455
-0.16045158700352702,-0.16045158700352702
-0.18576438689279112,-0.18576438689279112
-0.22315829582011307,-0.22315829582011307
-0.24271818664363534,-0.24271818664363534
-0.2294864957924291,-0.2294864957924291
-0.21222776859520356,-0.21222776859520356
-0.20992660496890683,-0.20992660496890683
-0.20187253227686827,-0.20187253227686827
-0.16275275062982375,-0.16275275062982375
-0.10407307815925698,-0.10407307815925698
-0.05114631475443205,-0.05114631475443205
-0.03216171483748397,-0.03216171483748397
-0.0384899148098,-0.0384899148098
-0.06265213288591573,-0.06265213288591573
-0.07645911464369615,-0.07645911464369615
-0.07185678739110267,-0.07185678739110267
-0.05862509653989644,-0.05862509653989644
-0.0563239329135997,-0.0563239329135997
-0.07703440555027033,-0.07703440555027033
-0.11270244175786974,-0.11270244175786974
-0.14261756889972732,-0.14261756889972732
-0.15182222340491425,-0.15182222340491425
-0.15239751431148843,-0.15239751431148843
-0.16620449606926885,-0.16620449606926885
-0.20244782318344245,-0.20244782318344245
-0.2513475502422481,-0.2513475502422481
-0.2985214045813312,-0.2985214045813312
-0.3376411862283757,-0.3376411862283757
-0.37273393152940093,-0.37273393152940093
-0.40034789504496177,-0.40034789504496177
-0.4141548768027422,-0.4141548768027422
-0.4153054586158906,-0.4153054586158906
-0.4170313313356131,-0.4170313313356131
-0.42335953130792914,-0.42335953130792914
-0.4227842404013549,-0.4227842404013549
-0.4066760950172778,-0.4066760950172778
-0.38423974966088464,-0.38423974966088464
-0.36065282249134306,-0.36065282249134306
-0.329011822629763,-0.329011822629763
-0.28528971373012496,-0.28528971373012496
-0.2473205138962288,-0.2473205138962288
-0.23236295032530002,-0.23236295032530002
-0.24214289573706116,-0.24214289573706116
-0.2663051138131769,-0.2663051138131769
-0.31002722271281485,-0.31002722271281485
-0.36928218608995583,-0.36928218608995583
-0.42738656765394845,-0.42738656765394845
-0.4619040220483995,-0.4619040220483995
-0.48146391287192175,-0.48146391287192175
-0.4981473491625731,-0.4981473491625731
-0.5188578217992437,-0.5188578217992437
-0.5395682944359144,-0.5395682944359144
-0.5637305125120301,-0.5637305125120301
-0.585591566961849,-0.585591566961849
-0.5936456396538877,-0.5936456396538877
-0.597672675999907,-0.597672675999907
-0.6183831486365776,-0.6183831486365776
-0.6644064211625124,-0.6644064211625124
-0.6925956755846474,-0.6925956755846474
-0.6920203846780731,-0.6920203846780731
-0.6897192210517764,-0.6897192210517764
-0.7018003300898343,-0.7018003300898343
-0.713306148221318,-0.713306148221318
-0.7202096391002082,-0.7202096391002082
-0.7478236026157691,-0.7478236026157691
-0.7892445478891102,-0.7892445478891102
-0.8047774023666132,-0.8047774023666132
-0.791545711515407,-0.791545711515407
-0.8116808932455034,-0.8116808932455034
-0.882441674754128,-0.882441674754128
-0.9066038928302438,-0.9066038928302438
-0.738618948110582,-0.738618948110582
-0.32786124081661455,-0.32786124081661455
0.2825224110585947,0.2825224110585947
1.079875607570414,1.079875607570414
2.106194584898758,2.106194584898758
3.1762356711267405,3.1762356711267405
3.714707959680177,3.714707959680177
3.156100489396644,3.156100489396644
1.664371168649785,1.664371168649785
0.1392749753216229,0.1392749753216229
-0.6373677485535256,-0.6373677485535256
-0.7012250391832601,-0.7012250391832601
-0.5683328397646236,-0.5683328397646236
-0.5349659671833209,-0.5349659671833209
-0.5355412580898951,-0.5355412580898951
-0.5108037491072052,-0.5108037491072052
-0.522884858145263,-0.522884858145263
-0.5907691851210167,-0.5907691851210167
-0.6339160031140806,-0.6339160031140806
-0.6241360577023195,-0.6241360577023195
-0.6114796577576874,-0.6114796577576874
-0.632190130394358,-0.632190130394358
-0.6649817120690865,-0.6649817120690865
-0.6925956755846474,-0.6925956755846474
-0.716757893660763,-0.716757893660763
-0.7432212753631755,-0.7432212753631755
-0.7748622752247557,-0.7748622752247557
-0.8053526932731875,-0.8053526932731875
-0.8300902022558774,-0.8300902022558774
-0.8318160749756,-0.8318160749756
-0.8191596750309679,-0.8191596750309679
-0.8059279841797616,-0.8059279841797616
-0.7892445478891102,-0.7892445478891102
-0.760480002560401,-0.760480002560401
-0.7190590572870598,-0.7190590572870598
-0.6862674756123314,-0.6862674756123314
-0.6741863665742734,-0.6741863665742734
-0.6724604938545509,-0.6724604938545509
-0.6621052575362156,-0.6621052575362156
-0.6431206576192675,-0.6431206576192675
-0.6275878031417645,-0.6275878031417645
-0.6195337304497259,-0.6195337304497259
-0.6028502941590747,-0.6028502941590747
-0.5689081306711977,-0.5689081306711977
-0.5234601490518371,-0.5234601490518371
-0.4837650764982185,-0.4837650764982185
-0.4498229130103416,-0.4498229130103416
-0.4153054586158906,-0.4153054586158906
-0.3773362587819944,-0.3773362587819944
-0.3491470043598594,-0.3491470043598594
-0.32498478628374367,-0.32498478628374367
-0.28183796829067986,-0.28183796829067986
-0.20014665955714572,-0.20014665955714572
-0.10234720543953443,-0.10234720543953443
-0.02698409667831632,-0.02698409667831632
0.0029310304635412547,0.0029310304635412547
0.005232194089837991,0.005232194089837991
0.0029310304635412547,0.0029310304635412547
0.004656903183263807,0.004656903183263807
-0.009725369481090795,-0.009725369481090795
-0.057474514726748076,-0.057474514726748076
-0.14491873252602405,-0.14491873252602405
-0.25077225933567393,-0.25077225933567393
-0.35144816798615613,-0.35144816798615613
-0.4285371494670968,-0.4285371494670968
-0.48491565831136685,-0.48491565831136685
-0.5286377672110049,-0.5286377672110049
-0.5717845852040686,-0.5717845852040686
-0.616657275916855,-0.616657275916855
-0.6569276393770479,-0.6569276393770479
-0.6822404392663121,-0.6822404392663121
-0.6805145665465895,-0.6805145665465895
-0.6626805484427898,-0.6626805484427898
-0.6425453667126934,-0.6425453667126934
-0.6396689121798225,-0.6396689121798225
-0.6373677485535256,-0.6373677485535256
-0.638518330366674,-0.638518330366674
-0.6569276393770479,-0.6569276393770479
-0.6736110756676993,-0.6736110756676993
-0.6546264757507512,-0.6546264757507512
-0.6201090213563002,-0.6201090213563002
-0.6310395485812097,-0.6310395485812097
-0.6586535120967705,-0.6586535120967705
-0.6218348940760227,-0.6218348940760227
-0.5551011489134173,-0.5551011489134173
-0.5907691851210167,-0.5907691851210167
-0.6885686392386281,-0.6885686392386281
-0.6034255850656488,-0.6034255850656488
-0.1966949141177006,-0.1966949141177006
0.42001693772982474,0.42001693772982474
1.179976225314322,1.179976225314322
2.183283566379699,2.183283566379699
3.3286877613688994,3.3286877613688994
4.012708649285604,4.012708649285604
3.581240469354966,3.581240469354966
2.0780053304766235,2.0780053304766235
0.3492561562212001,0.3492561562212001
-0.7156073118476147,-0.7156073118476147
-0.9169591291485791,-0.9169591291485791
-0.719634348193634,-0.719634348193634
-0.6011244214393521,-0.6011244214393521
-0.6367924576469515,-0.6367924576469515
-0.66958403932168,-0.66958403932168
-0.6649817120690865,-0.6649817120690865
-0.7018003300898343,-0.7018003300898343
-0.7834916388233685,-0.7834916388233685
-0.8272137477230064,-0.8272137477230064
-0.8254878750032839,-0.8254878750032839
-0.8369936931347676,-0.8369936931347676
-0.8703605657160702,-0.8703605657160702
-0.8709358566226444,-0.8709358566226444
-0.8318160749756,-0.8318160749756
-0.8030515296468907,-0.8030515296468907
-0.80707856599291,-0.80707856599291
-0.8260631659098581,-0.8260631659098581
-0.8306654931624515,-0.8306654931624515
-0.8300902022558774,-0.8300902022558774
-0.8266384568164322,-0.8266384568164322
-0.8226114204704129,-0.8226114204704129
-0.8151326386849486,-0.8151326386849486
-0.7955727478614263,-0.7955727478614263
-0.7673834934392912,-0.7673834934392912
-0.7380436572040079,-0.7380436572040079
-0.7127308573147438,-0.7127308573147438
-0.6833910210794604,-0.6833910210794604
-0.6454218212455642,-0.6454218212455642
-0.6080279123182423,-0.6080279123182423
-0.5901938942144426,-0.5901938942144426
-0.5936456396538877,-0.5936456396538877
-0.6011244214393521,-0.6011244214393521
-0.5959468032801845,-0.5959468032801845
-0.5832904033355523,-0.5832904033355523
-0.5712092942974945,-0.5712092942974945
-0.5568270216331398,-0.5568270216331398
-0.522884858145263,-0.522884858145263
-0.46708164020756715,-0.46708164020756715
-0.39804673141866503,-0.39804673141866503
-0.3399423498546724,-0.3399423498546724
-0.31060251361938906,-0.31060251361938906
-0.3169307135917051,-0.3169307135917051
-0.32268362265744693,-0.32268362265744693
-0.28528971373012496,-0.28528971373012496
-0.19554433230455223,-0.19554433230455223
-0.10579895087897953,-0.10579895087897953
-0.06667916923193502,-0.06667916923193502
-0.08336260552258636,-0.08336260552258636
-0.11845535082361158,-0.11845535082361158
-0.1466446052457466,-0.1466446052457466
-0.1708068233218623,-0.1708068233218623
-0.20820073224918428,-0.20820073224918428
-0.260552204747435,-0.260552204747435
-0.32153304084429857,-0.32153304084429857
-0.3721586406228268,-0.3721586406228268
-0.40207376776468434,-0.40207376776468434
-0.4141548768027422,-0.4141548768027422
-0.4279618585605226,-0.4279618585605226
-0.44867233119719324,-0.44867233119719324
-0.47225925836673477,-0.47225925836673477
-0.48779211284423774,-0.48779211284423774
-0.5027496764151665,-0.5027496764151665
-0.5217342763321147,-0.5217342763321147
-0.5418694580622111,-0.5418694580622111
-0.5504988216608239,-0.5504988216608239
-0.5504988216608239,-0.5504988216608239
-0.5493482398476754,-0.5493482398476754
-0.5562517307265656,-0.5562517307265656
-0.5740857488303653,-0.5740857488303653
-0.6016997123459262,-0.6016997123459262
-0.6316148394877839,-0.6316148394877839
-0.6517500212178803,-0.6517500212178803
-0.6534758939376029,-0.6534758939376029
-0.647722984871861,-0.647722984871861
-0.6575029302836222,-0.6575029302836222
-0.6966227119306666,-0.6966227119306666
-0.7420706935500272,-0.7420706935500272
-0.7650823298129945,-0.7650823298129945
-0.7708352388787364,-0.7708352388787364
-0.8007503660205939,-0.8007503660205939
-0.8559782930517157,-0.8559782930517157
-0.885318129286999,-0.885318129286999
-0.8387195658544901,-0.8387195658544901
-0.738618948110582,-0.738618948110582
-0.6408194939929708,-0.6408194939929708
-0.572935167017217,-0.572935167017217
-0.5234601490518371,-0.5234601490518371
-0.485490949217941,-0.485490949217941
-0.45442524026293507,-0.45442524026293507
-0.4262359858408001,-0.4262359858408001
-0.3957455677923683,-0.3957455677923683
-0.37330922243597514,-0.37330922243597514
-0.3652551497439365,-0.3652551497439365
-0.3664057315570849,-0.3664057315570849
-0.3664057315570849,-0.3664057315570849
-0.37330922243597514,-0.37330922243597514
-0.3865409132871814,-0.3865409132871814
-0.39459498597921994,-0.39459498597921994
-0.39056794963320063,-0.39056794963320063
-0.39286911325949736,-0.39286911325949736
-0.41242900408301963,-0.41242900408301963
-0.4348653494394128,-0.4348653494394128
-0.43083831309339354,-0.43083831309339354
-0.4043749313909811,-0.4043749313909811
-0.3865409132871814,-0.3865409132871814
-0.40782667683042617,-0.40782667683042617
-0.4601781493286769,-0.4601781493286769
-0.5182825308926695,-0.5182825308926695
-0.5620046397923075,-0.5620046397923075
-0.597672675999907,-0.597672675999907
-0.6356418758338032,-0.6356418758338032
-0.6747616574808476,-0.6747616574808476
-0.6989238755569633,-0.6989238755569633
-0.7023756209964085,-0.7023756209964085
-0.6874180574254797,-0.6874180574254797
-0.6621052575362156,-0.6621052575362156
-0.6298889667680613,-0.6298889667680613
-0.5999738396262038,-0.5999738396262038
-0.5838656942421265,-0.5838656942421265
-0.585591566961849,-0.585591566961849
-0.5936456396538877,-0.5936456396538877
-0.5919197669341651,-0.5919197669341651
-0.5671822579514751,-0.5671822579514751
-0.5240354399584114,-0.5240354399584114
-0.4785874583390508,-0.4785874583390508
-0.44809704029061903,-0.44809704029061903
-0.4250854040276517,-0.4250854040276517
-0.3951702768857941,-0.3951702768857941
-0.3629539861176398,-0.3629539861176398
-0.33706589532180153,-0.33706589532180153
-0.31808129540485347,-0.31808129540485347
-0.27953680466438313,-0.27953680466438313
-0.2266100412595582,-0.2266100412595582
-0.18461380507964273,-0.18461380507964273
-0.18403851417306855,-0.18403851417306855
-0.21740538675437124,-0.21740538675437124
-0.2363899866713193,-0.2363899866713193
-0.21970655038066797,-0.21970655038066797
-0.20647485952946174,-0.20647485952946174
-0.247895804802803,-0.247895804802803
-0.3088766408996665,-0.3088766408996665
-0.3341894407889306,-0.3341894407889306
-0.3710080588096784,-0.3710080588096784
-0.5108037491072052,-0.5108037491072052
-0.6592288030033446,-0.6592288030033446
-0.5620046397923075,-0.5620046397923075
-0.09601900546721841,-0.09601900546721841
0.6081370641795829,0.6081370641795829
1.4273513151412212,1.4273513151412212
2.3731295655491795,2.3731295655491795
3.3016490887599126,3.3016490887599126
3.6939974870435064,3.6939974870435064
3.0554245807461617,3.0554245807461617
1.5286025146982776,1.5286025146982776
-0.07991086008314126,-0.07991086008314126
-0.985418747030907,-0.985418747030907
-1.0561795285395317,-1.0561795285395317
-0.7512753480552141,-0.7512753480552141
-0.5395682944359144,-0.5395682944359144
-0.5154060763597986,-0.5154060763597986
-0.5274871853978564,-0.5274871853978564
-0.5015990946020181,-0.5015990946020181
-0.4820392037784959,-0.4820392037784959
-0.4860662401245152,-0.4860662401245152
-0.47053338564701225,-0.47053338564701225
-0.4296877312802452,-0.4296877312802452
-0.4066760950172778,-0.4066760950172778
-0.4141548768027422,-0.4141548768027422
-0.4118537131764455,-0.4118537131764455
-0.38021271331486534,-0.38021271331486534
-0.3433940952941176,-0.3433940952941176
-0.3169307135917051,-0.3169307135917051
-0.2967955318616086,-0.2967955318616086
-0.2645792410934543,-0.2645792410934543
-0.2363899866713193,-0.2363899866713193
-0.2266100412595582,-0.2266100412595582
-0.2398417321107644,-0.2398417321107644
-0.2622780774671576,-0.2622780774671576
-0.27435918650521546,-0.27435918650521546
-0.27953680466438313,-0.27953680466438313
-0.2870155864498475,-0.2870155864498475
-0.29737082276818283,-0.29737082276818283
-0.30657547727336976,-0.30657547727336976
-0.3169307135917051,-0.3169307135917051
-0.3330388589757822,-0.3330388589757822
-0.3491470043598594,-0.3491470043598594
-0.3577763679584722,-0.3577763679584722
-0.3595022406781947,-0.3595022406781947
-0.35144816798615613,-0.35144816798615613
-0.3232589135640211,-0.3232589135640211
-0.2772356410380864,-0.2772356410380864
-0.23696527757789349,-0.23696527757789349
-0.22258300491353888,-0.22258300491353888
-0.23121236851215166,-0.23121236851215166
-0.24674522298965462,-0.24674522298965462
-0.25652516840141576,-0.25652516840141576
-0.24616993208308044,-0.24616993208308044
-0.19611962321112641,-0.19611962321112641
-0.10177191453296025,-0.10177191453296025
0.0017804486503928867,0.0017804486503928867
0.06793890290642406,0.06793890290642406
0.08059530285105611,0.08059530285105611
0.0736918119721659,0.0736918119721659
0.08749879372994632,0.08749879372994632
0.12604328447041666,0.12604328447041666
0.15653370251884843,0.15653370251884843
0.15538312070570007,0.15538312070570007
0.13639852078875198,0.13639852078875198
0.13754910260190034,0.13754910260190034
0.16343719339773863,0.16343719339773863
0.17436772062264813,0.17436772062264813
0.12489270265726828,0.12489270265726828
0.02364150310021188,0.02364150310021188
-0.07358266011082523,-0.07358266011082523
-0.12133180535648251,-0.12133180535648251
-0.13168704167481782,-0.13168704167481782
-0.14549402343259824,-0.14549402343259824
-0.182312641453346,-0.182312641453346
-0.22718533216613238,-0.22718533216613238
-0.26170278656058343,-0.26170278656058343
-0.2841391319169766,-0.2841391319169766
-0.30312373183392466,-0.30312373183392466
-0.32440949537716945,-0.32440949537716945
-0.3451199680138401,-0.3451199680138401
-0.36467985883736237,-0.36467985883736237
-0.38021271331486534,-0.38021271331486534
-0.391718531446349,-0.391718531446349
-0.39804673141866503,-0.39804673141866503
-0.3997726041383876,-0.3997726041383876
-0.40149847685811013,-0.40149847685811013
-0.4101278404567229,-0.4101278404567229
-0.42335953130792914,-0.42335953130792914
-0.4262359858408001,-0.4262359858408001
-0.4066760950172778,-0.4066760950172778
-0.36985747699653004,-0.36985747699653004
-0.3364906044152273,-0.3364906044152273
-0.319807168124576,-0.319807168124576
-0.31060251361938906,-0.31060251361938906
-0.28874145916957006,-0.28874145916957006
-0.24962167752252554,-0.24962167752252554
-0.20302311409001664,-0.20302311409001664
-0.16390333244297212,-0.16390333244297212
-0.14089169618000477,-0.14089169618000477
-0.13513878711426291,-0.13513878711426291
-0.1368646598339855,-0.1368646598339855
-0.1403164052734306,-0.1403164052734306
-0.14837047796546915,-0.14837047796546915
-0.16677978697584303,-0.16677978697584303
-0.17943618692047508,-0.17943618692047508
-0.16217745972324957,-0.16217745972324957
-0.11960593263675995,-0.11960593263675995
-0.09544371456064422,-0.09544371456064422
-0.1178800599170374,-0.1178800599170374
-0.1644786233495463,-0.1644786233495463
-0.1869149687059395,-0.1869149687059395
-0.17655973238760417,-0.17655973238760417
-0.1673550778824172,-0.1673550778824172
-0.19439375049140387,-0.19439375049140387
-0.24501935026993207,-0.24501935026993207
-0.2806873864775315,-0.2806873864775315
-0.2772356410380864,-0.2772356410380864
-0.25422400477511903,-0.25422400477511903
-0.2438687684567837,-0.2438687684567837
-0.260552204747435,-0.260552204747435
-0.2858650046366991,-0.2858650046366991
-0.29967198639447956,-0.29967198639447956
-0.297946113674757,-0.297946113674757
-0.2950696591418861,-0.2950696591418861
-0.2967955318616086,-0.2967955318616086
-0.3002472773010537,-0.3002472773010537
-0.3054248954602214,-0.3054248954602214
-0.319807168124576,-0.319807168124576
-0.34224351348096915,-0.34224351348096915
-0.35374933161245287,-0.35374933161245287
-0.34224351348096915,-0.34224351348096915
-0.30830134999309233,-0.30830134999309233
-0.27493447741178967,-0.27493447741178967
-0.24214289573706116,-0.24214289573706116
-0.21625480494122287,-0.21625480494122287
-0.1863396777993653,-0.1863396777993653
-0.15757513247065608,-0.15757513247065608
-0.1431928598063015,-0.1431928598063015
-0.13743995074055967,-0.13743995074055967
-0.12708471442222435,-0.12708471442222435
-0.11385302357101812,-0.11385302357101812
-0.11500360538416649,-0.11500360538416649
-0.1144283144775923,-0.1144283144775923
-0.09889546000008932,-0.09889546000008932
-0.125934132609076,-0.125934132609076
-0.2473205138962288,-0.2473205138962288
-0.3267106590034662,-0.3267106590034662
-0.11212715085129556,-0.11212715085129556
0.4643143375360369,0.4643143375360369
1.2294512432797018,1.2294512432797018
2.071677130504307,2.071677130504307
2.9955943264624465,2.9955943264624465
3.759005359486389,3.759005359486389
3.7756887957770404,3.7756887957770404
2.7206052731199866,2.7206052731199866
1.0539875167745756,1.0539875167745756
-0.32440949537716945,-0.32440949537716945
-0.8985498201382053,-0.8985498201382053
-0.8369936931347676,-0.8369936931347676
-0.5942209305604619,-0.5942209305604619
-0.44522058575774814,-0.44522058575774814
-0.4032243495778327,-0.4032243495778327
-0.3848150405674588,-0.3848150405674588
-0.3508728770795819,-0.3508728770795819
-0.3129036772456858,-0.3129036772456858
-0.2858650046366991,-0.2858650046366991
-0.26745569562632526,-0.26745569562632526
-0.2513475502422481,-0.2513475502422481
-0.24214289573706116,-0.24214289573706116
-0.2363899866713193,-0.2363899866713193
-0.2294864957924291,-0.2294864957924291
-0.22258300491353888,-0.22258300491353888
-0.2294864957924291,-0.2294864957924291
-0.23408882304502257,-0.23408882304502257
-0.22373358672668725,-0.22373358672668725
-0.18864084142566204,-0.18864084142566204
-0.1564245506575077,-0.1564245506575077
-0.1368646598339855,-0.1368646598339855
-0.13111175076824363,-0.13111175076824363
-0.12996116895509527,-0.12996116895509527
-0.11730476901046322,-0.11730476901046322
-0.08278731461601217,-0.08278731461601217
-0.026408805771742132,-0.026408805771742132
0.03572261213826975,0.03572261213826975
0.08117059375763029,0.08117059375763029
0.0984293209548558,0.0984293209548558
0.09497757551541071,0.09497757551541071
0.08519763010364959,0.08519763010364959
0.07311652106559172,0.07311652106559172
0.05643308477494038,0.05643308477494038
0.03514732123169556,0.03514732123169556
0.024216794006786065,0.024216794006786065
0.04205081211058577,0.04205081211058577
0.08864937554309468,0.08864937554309468
0.14502788438736472,0.14502788438736472
0.19162644781987365,0.19162644781987365
0.2261439022143247,0.2261439022143247
0.26411310204822086,0.26411310204822086
0.31473870182674907,0.31473870182674907
0.37169250157759326,0.37169250157759326
0.4205922286363989,0.4205922286363989
0.45626026484399834,0.45626026484399834
0.4873259737990043,0.4873259737990043
0.520692846380307,0.520692846380307
0.5488821008024419,0.5488821008024419
0.5529091371484612,0.5529091371484612
0.520692846380307,0.520692846380307
0.4568355557505725,0.4568355557505725
0.38032186517620603,0.38032186517620603
0.3043834655084137,0.3043834655084137
0.23247210218664072,0.23247210218664072
0.16286190249116445,0.16286190249116445
0.10303164820744928,0.10303164820744928
0.05988483021438548,0.05988483021438548
0.02364150310021188,0.02364150310021188
-0.022957060332297028,-0.022957060332297028
-0.0747332419239736,-0.0747332419239736
-0.10292249634610862,-0.10292249634610862
-0.10177191453296025,-0.10177191453296025
-0.10579895087897953,-0.10579895087897953
-0.1466446052457466,-0.1466446052457466
-0.20705015043603592,-0.20705015043603592
-0.2398417321107644,-0.2398417321107644
-0.22430887763326143,-0.22430887763326143
-0.1897914232388104,-0.1897914232388104
-0.17655973238760417,-0.17655973238760417
-0.19439375049140387,-0.19439375049140387
-0.22028184128724215,-0.22028184128724215
-0.2294864957924291,-0.2294864957924291
-0.2191312594740938,-0.2191312594740938
-0.21452893222150032,-0.21452893222150032
-0.2363899866713193,-0.2363899866713193
-0.2806873864775315,-0.2806873864775315
-0.3186565863114276,-0.3186565863114276
-0.329011822629763,-0.329011822629763
-0.3077260590865181,-0.3077260590865181
-0.28183796829067986,-0.28183796829067986
-0.26688040471975105,-0.26688040471975105
-0.2726333137854929,-0.2726333137854929
-0.27378389559864125,-0.27378389559864125
-0.27608505922493803,-0.27608505922493803
-0.2950696591418861,-0.2950696591418861
-0.33361414988235644,-0.33361414988235644
-0.3704327679031042,-0.3704327679031042
-0.38941736782005226,-0.38941736782005226
-0.385390331474033,-0.385390331474033
-0.33706589532180153,-0.33706589532180153
-0.23811585939104185,-0.23811585939104185
-0.1500963506851917,-0.1500963506851917
-0.15930100519037865,-0.15930100519037865
-0.2501969684290997,-0.2501969684290997
-0.2801120955709573,-0.2801120955709573
-0.09429313274749586,-0.09429313274749586
0.3509820289409226,0.3509820289409226
1.0275241350721631,1.0275241350721631
1.9284296947673354,1.9284296947673354
3.0099765991268015,3.0099765991268015
3.951727813188741,3.951727813188741
4.150203175956834,4.150203175956834
3.2199577800263786,3.2199577800263786
1.5659964236255994,1.5659964236255994
0.16861481155690627,0.16861481155690627
-0.33591531350865317,-0.33591531350865317
-0.1851890959862169,-0.1851890959862169
0.00925923043585728,0.00925923043585728
-0.003972460415348955,-0.003972460415348955
-0.07933556917656708,-0.07933556917656708
-0.11327773266444394,-0.11327773266444394
-0.1673550778824172,-0.1673550778824172
-0.2582510411211383,-0.2582510411211383
-0.30715076817994397,-0.30715076817994397
-0.29276849551558937,-0.29276849551558937
-0.2841391319169766,-0.2841391319169766
-0.3146295499654083,-0.3146295499654083
-0.34454467710726594,-0.34454467710726594
-0.33936705894809827,-0.33936705894809827
-0.3169307135917051,-0.3169307135917051
-0.2967955318616086,-0.2967955318616086
-0.29219320460901516,-0.29219320460901516
-0.28528971373012496,-0.28528971373012496
-0.28126267738410565,-0.28126267738410565
-0.27493447741178967,-0.27493447741178967
-0.2772356410380864,-0.2772356410380864
-0.27435918650521546,-0.27435918650521546
-0.24501935026993207,-0.24501935026993207
-0.1869149687059395,-0.1869149687059395
-0.12133180535648251,-0.12133180535648251
-0.06782975104508339,-0.06782975104508339
-0.033312296650632345,-0.033312296650632345
-0.005123042228497322,-0.005123042228497322
0.039174357577714855,0.039174357577714855
0.11856450268495225,0.11856450268495225
0.2261439022143247,0.2261439022143247
0.32509393814508436,0.32509393814508436
0.3820477378959286,0.3820477378959286
0.3924029742142639,0.3924029742142639
0.38434890152222534,0.38434890152222534
0.3820477378959286,0.3820477378959286
0.39297826512083806,0.39297826512083806
0.40908641050491523,0.40908641050491523
0.43094746495473424,0.43094746495473424
0.46373904662946275,0.46373904662946275
0.5063105737159523,0.5063105737159523
0.5385268644841067,0.5385268644841067
0.5454303553629969,0.5454303553629969
0.5310480826986422,0.5310480826986422
0.5126387736882684,0.5126387736882684
0.5040094100896556,0.5040094100896556
0.5091870282488232,0.5091870282488232
0.5264457554460488,0.5264457554460488
0.5327739554183648,0.5327739554183648
0.49768121011733957,0.49768121011733957
0.41253815594436033,0.41253815594436033
0.3009317200689686,0.3009317200689686
0.1829970842212609,0.1829970842212609
0.06103541202753385,0.06103541202753385
-0.05574864200702552,-0.05574864200702552
-0.13513878711426291,-0.13513878711426291
-0.16160216881667538,-0.16160216881667538
-0.16217745972324957,-0.16217745972324957
-0.16908095060213976,-0.16908095060213976
-0.17771031420075253,-0.17771031420075253
-0.16850565969556558,-0.16850565969556558
-0.14089169618000477,-0.14089169618000477
-0.10925069631842464,-0.10925069631842464
-0.0707062055779543,-0.0707062055779543
-0.01893002398627774,-0.01893002398627774
0.03514732123169556,0.03514732123169556
0.06736361199984987,0.06736361199984987
0.07254123015901753,0.07254123015901753
0.06333657565383058,0.06333657565383058
0.0518307575223469,0.0518307575223469
0.04147552120401159,0.04147552120401159
0.03457203032512138,0.03457203032512138
0.033996739418547195,0.033996739418547195
0.03284615760539883,0.03284615760539883
0.008683939529283096,0.008683939529283096
-0.05172160566100623,-0.05172160566100623
-0.12420825988935343,-0.12420825988935343
-0.16390333244297212,-0.16390333244297212
-0.16390333244297212,-0.16390333244297212
-0.16908095060213976,-0.16908095060213976
-0.21683009584779706,-0.21683009584779706
-0.2881661682629959,-0.2881661682629959
-0.33361414988235644,-0.33361414988235644
-0.33534002260207896,-0.33534002260207896
-0.3186565863114276,-0.3186565863114276
-0.31405425905883416,-0.31405425905883416
-0.33188827716263386,-0.33188827716263386
-0.36410456793078816,-0.36410456793078816
-0.391718531446349,-0.391718531446349
-0.3899926587266265,-0.3899926587266265
-0.3525987497993045,-0.3525987497993045
-0.29622024095503446,-0.29622024095503446
-0.24616993208308044,-0.24616993208308044
-0.20992660496890683,-0.20992660496890683
-0.18173735054677181,-0.18173735054677181
-0.1535480961246368,-0.1535480961246368
-0.11672947810388903,-0.11672947810388903
-0.06667916923193502,-0.06667916923193502
-0.01030066038766498,-0.01030066038766498
0.03342144851197301,0.03342144851197301
0.05470721205521782,0.05470721205521782
0.06563773928012732,0.06563773928012732
0.07311652106559172,0.07311652106559172
0.07484239378531427,0.07484239378531427
0.048379012082901796,0.048379012082901796
0.0012051577438187025,0.0012051577438187025
-0.059200387446470625,-0.059200387446470625
-0.11212715085129556,-0.11212715085129556
-0.14089169618000477,-0.14089169618000477
-0.14779518705889497,-0.14779518705889497
-0.15182222340491425,-0.15182222340491425
-0.1725326960415849,-0.1725326960415849
-0.20014665955714572,-0.20014665955714572
-0.2156795140346487,-0.2156795140346487
-0.23178765941872584,-0.23178765941872584
-0.2985214045813312,-0.2985214045813312
-0.44119354941172884,-0.44119354941172884
-0.5781127851763846,-0.5781127851763846
-0.529213058117579,-0.529213058117579
-0.16045158700352702,-0.16045158700352702
0.4930788828647461,0.4930788828647461
1.3151695883592551,1.3151695883592551
2.255770220608046,2.255770220608046
3.2113284164277656,3.2113284164277656
3.764758268552131,3.764758268552131
3.375286324801408,3.375286324801408
2.0003410580891083,2.0003410580891083
0.3561596471000903,0.3561596471000903
-0.6828157301728862,-0.6828157301728862
-0.8600053293977349,-0.8600053293977349
-0.5792633669895331,-0.5792633669895331
-0.3221083317508727,-0.3221083317508727
-0.2254594594464098,-0.2254594594464098
-0.18173735054677181,-0.18173735054677181
-0.11155185994472137,-0.11155185994472137
-0.04366753296896766,-0.04366753296896766
-0.021806478519148662,-0.021806478519148662
-0.029285260304613054,-0.029285260304613054
-0.019505314892851924,-0.019505314892851924
0.019614466754192594,0.019614466754192594
0.05988483021438548,0.05988483021438548
0.08232117557077866,0.08232117557077866
0.09555286642198489,0.09555286642198489
0.10993513908633949,0.10993513908633949
0.10935984817976531,0.10935984817976531
0.09612815732855907,0.09612815732855907
0.07311652106559172,0.07311652106559172
0.05585779386836619,0.05585779386836619
0.036297903044843934,0.036297903044843934
0.015587430408173305,0.015587430408173305
0.0012051577438187025,0.0012051577438187025
-0.005698333135071507,-0.005698333135071507
-0.007999496761368243,-0.007999496761368243
-0.0131771149205359,-0.0131771149205359
-0.029860551211187237,-0.029860551211187237
-0.0563239329135997,-0.0563239329135997
-0.08336260552258636,-0.08336260552258636
-0.09601900546721841,-0.09601900546721841
-0.08738964186860565,-0.08738964186860565
-0.062076841979341546,-0.062076841979341546
-0.03964049662294837,-0.03964049662294837
-0.036188751183503266,-0.036188751183503266
-0.04596869659526439,-0.04596869659526439
-0.044818114782116024,-0.044818114782116024
-0.01893002398627774,-0.01893002398627774
0.02076504856734096,0.02076504856734096
0.0518307575223469,0.0518307575223469
0.06851419381299824,0.06851419381299824
0.08232117557077866,0.08232117557077866
0.10820926636661694,0.10820926636661694
0.15825957523857098,0.15825957523857098
0.23534855671951163,0.23534855671951163
0.32451864723851015,0.32451864723851015
0.39873117418657994,0.39873117418657994
0.4482061921519597,0.4482061921519597
0.49250359195817195,0.49250359195817195
0.5506079735221645,0.5506079735221645
0.6041100278335636,0.6041100278335636
0.6138899732453247,0.6138899732453247
0.5626890825602224,0.5626890825602224
0.4729437011346497,0.4729437011346497
0.3820477378959286,0.3820477378959286
0.30841050185443303,0.30841050185443303
0.2439779203181244,0.2439779203181244
0.1720665569963514,0.1720665569963514
0.08922466644966887,0.08922466644966887
0.011560394062154016,0.011560394062154016
-0.049420442034709494,-0.049420442034709494
-0.09659429637379259,-0.09659429637379259
-0.13398820530111455,-0.13398820530111455
-0.1725326960415849,-0.1725326960415849
-0.19727020502427478,-0.19727020502427478
-0.20820073224918428,-0.20820073224918428
-0.19727020502427478,-0.19727020502427478
-0.18864084142566204,-0.18864084142566204
-0.20187253227686827,-0.20187253227686827
-0.2220077140069647,-0.2220077140069647
-0.21165247768862938,-0.21165247768862938
-0.17828560510732672,-0.17828560510732672
-0.16505391425612048,-0.16505391425612048
-0.17483385966788162,-0.17483385966788162
-0.1610268779101012,-0.1610268779101012
-0.13283762348796618,-0.13283762348796618
-0.1500963506851917,-0.1500963506851917
-0.18806555051908785,-0.18806555051908785
-0.09314255093434749,-0.09314255093434749
0.2623872293284983,0.2623872293284983
0.8906048993075073,0.8906048993075073
1.774251731805454,1.774251731805454
2.8857137633067773,2.8857137633067773
3.984519394863469,3.984519394863469
4.53047046520237,4.53047046520237
4.040897903707739,4.040897903707739
2.6107247099643174,2.6107247099643174
0.9774738262002091,0.9774738262002091
-0.05114631475443205,-0.05114631475443205
-0.24329347755020952,-0.24329347755020952
0.003506321370115439,0.003506321370115439
0.18414766603440927,0.18414766603440927
0.14732904801366148,0.14732904801366148
0.03974964848428904,0.03974964848428904
-0.020655896706000293,-0.020655896706000293
-0.0563239329135997,-0.0563239329135997
-0.10694953269212791,-0.10694953269212791
-0.14952105977861752,-0.14952105977861752
-0.16275275062982375,-0.16275275062982375
-0.1713821142284365,-0.1713821142284365
-0.19611962321112641,-0.19611962321112641
-0.22488416853983562,-0.22488416853983562
-0.2329382412318742,-0.2329382412318742
-0.22258300491353888,-0.22258300491353888
-0.20589956862288755,-0.20589956862288755
-0.204173695903165,-0.204173695903165
-0.20532427771631337,-0.20532427771631337
-0.20589956862288755,-0.20589956862288755
-0.19151729595853295,-0.19151729595853295
-0.16677978697584303,-0.16677978697584303
-0.13513878711426291,-0.13513878711426291
-0.10694953269212791,-0.10694953269212791
-0.09256726002777331,-0.09256726002777331
-0.08796493277517983,-0.08796493277517983
-0.07300736920425105,-0.07300736920425105
-0.04826986022156113,-0.04826986022156113
-0.03446287846378071,-0.03446287846378071
-0.03676404209007745,-0.03676404209007745
-0.022957060332297028,-0.022957060332297028
0.019614466754192594,0.019614466754192594
0.06218599384068221,0.06218599384068221
0.0736918119721659,0.0736918119721659
0.07541768469188845,0.07541768469188845
0.10533281183374603,0.10533281183374603
0.1611360297714419,0.1611360297714419
0.20255697504478315,0.20255697504478315
0.20946046592367334,0.20946046592367334
0.2077345932039508,0.2077345932039508
0.2370744294392342,0.2370744294392342
0.30495875641498793,0.30495875641498793
0.3849241924287995,0.3849241924287995
0.44015211945992117,0.44015211945992117
0.4602873011900176,0.4602873011900176
0.47351899204122383,0.47351899204122383
0.517816391847436,0.517816391847436
0.6006582823941184,0.6006582823941184
0.6932801183525621,0.6932801183525621
0.7640408998611867,0.7640408998611867
0.799133645162212,0.799133645162212
0.7951066088161927,0.7951066088161927
0.7467821726639612,0.7467821726639612
0.6535850457989434,0.6535850457989434
0.5304727917920681,0.5304727917920681
0.39873117418657994,0.39873117418657994
0.27274246564683363,0.27274246564683363
0.16573835702403536,0.16573835702403536
0.08864937554309468,0.08864937554309468
0.04262610301715996,0.04262610301715996
0.008108648622708912,0.008108648622708912
-0.029285260304613054,-0.029285260304613054
-0.062076841979341546,-0.062076841979341546
-0.08854022368175402,-0.08854022368175402
-0.11040127813157301,-0.11040127813157301
-0.14434344161944987,-0.14434344161944987
-0.1679303687889914,-0.1679303687889914
-0.18576438689279112,-0.18576438689279112
-0.21165247768862938,-0.21165247768862938
-0.24501935026993207,-0.24501935026993207
-0.25940162293428665,-0.25940162293428665
-0.2582510411211383,-0.2582510411211383
-0.2663051138131769,-0.2663051138131769
-0.2789615137578089,-0.2789615137578089
-0.26170278656058343,-0.26170278656058343
-0.24271818664363534,-0.24271818664363534
-0.29219320460901516,-0.29219320460901516
-0.400923185951536,-0.400923185951536
-0.4296877312802452,-0.4296877312802452
-0.2409923139239128,-0.2409923139239128
0.18587353875413182,0.18587353875413182
0.8227205723317536,0.8227205723317536
1.7121203138954422,1.7121203138954422
2.8713314906424228,2.8713314906424228
3.9885464312094885,3.9885464312094885
4.3889489021851205,4.3889489021851205
3.5927462874864498,3.5927462874864498
1.955468367376322,1.955468367376322
0.4873259737990043,0.4873259737990043
-0.10810011450527628,-0.10810011450527628
-0.019505314892851924,-0.019505314892851924
0.1456031752939389,0.1456031752939389
0.1133868845257846,0.1133868845257846
0.016738012221321673,0.016738012221321673
-0.03216171483748397,-0.03216171483748397
-0.08336260552258636,-0.08336260552258636
-0.15584925975093353,-0.15584925975093353
-0.18403851417306855,-0.18403851417306855
-0.16390333244297212,-0.16390333244297212
-0.17023153241528813,-0.17023153241528813
-0.23466411395159675,-0.23466411395159675
-0.304274313647073,-0.304274313647073
-0.33534002260207896,-0.33534002260207896
-0.3376411862283757,-0.3376411862283757
-0.3382164771349499,-0.3382164771349499
-0.3618034043044914,-0.3618034043044914
-0.39286911325949736,-0.39286911325949736
-0.413579585896168,-0.413579585896168
-0.39459498597921994,-0.39459498597921994
-0.3600775315847689,-0.3600775315847689
-0.34224351348096915,-0.34224351348096915
-0.34684584073356267,-0.34684584073356267
-0.35029758617300777,-0.35029758617300777
-0.3399423498546724,-0.3399423498546724
-0.3232589135640211,-0.3232589135640211
-0.31060251361938906,-0.31060251361938906
-0.28298855010382823,-0.28298855010382823
-0.21970655038066797,-0.21970655038066797
-0.13053645986166945,-0.13053645986166945
-0.05172160566100623,-0.05172160566100623
-0.003972460415348955,-0.003972460415348955
0.025942666726508617,0.025942666726508617
0.06793890290642406,0.06793890290642406
0.13582322988217777,0.13582322988217777
0.2186651204288603,0.2186651204288603
0.2992058473492461,0.2992058473492461
0.3601866834461096,0.3601866834461096
0.39700530146685736,0.39700530146685736
0.41253815594436033,0.41253815594436033
0.42231810135612147,0.42231810135612147
0.44763090124538557,0.44763090124538557
0.49595533739761705,0.49595533739761705
0.5494573917090162,0.5494573917090162
0.5839748461034672,0.5839748461034672
0.5926042097020799,0.5926042097020799
0.5908783369823574,0.5908783369823574
0.5920289187955057,0.5920289187955057
0.5810983915705963,0.5810983915705963
0.5258704645394746,0.5258704645394746
0.41656519229037964,0.41656519229037964
0.27849537471257546,0.27849537471257546
0.14675375710708727,0.14675375710708727
0.036873193951418116,0.036873193951418116
-0.05344747838072879,-0.05344747838072879
-0.11845535082361158,-0.11845535082361158
-0.1644786233495463,-0.1644786233495463
-0.19094200505195877,-0.19094200505195877
-0.21165247768862938,-0.21165247768862938
-0.21165247768862938,-0.21165247768862938
-0.21222776859520356,-0.21222776859520356
-0.23121236851215166,-0.23121236851215166
-0.24559464117650626,-0.24559464117650626
-0.20820073224918428,-0.20820073224918428
-0.13513878711426291,-0.13513878711426291
-0.1000460418132377,-0.1000460418132377
-0.11327773266444394,-0.11327773266444394
-0.10292249634610862,-0.10292249634610862
-0.049420442034709494,-0.049420442034709494
-0.03388758755720653,-0.03388758755720653
-0.09199196912119911,-0.09199196912119911
-0.10119662362638607,-0.10119662362638607
0.11568804815208134,0.11568804815208134
0.6202181732176407,0.6202181732176407
1.367521060857506,1.367521060857506
2.3196275112377807,2.3196275112377807
3.400599124690672,3.400599124690672
4.279068339029451,4.279068339029451
4.379168956773359,4.379168956773359
3.362629924856776,3.362629924856776
1.648838314172282,1.648838314172282
0.19565348416589293,0.19565348416589293
-0.3721586406228268,-0.3721586406228268
-0.26745569562632526,-0.26745569562632526
-0.09544371456064422,-0.09544371456064422
-0.13513878711426291,-0.13513878711426291
-0.2501969684290997,-0.2501969684290997
-0.29737082276818283,-0.29737082276818283
-0.31923187721800184,-0.31923187721800184
-0.37330922243597514,-0.37330922243597514
-0.4245101131210775,-0.4245101131210775
-0.4314136039999677,-0.4314136039999677
-0.4170313313356131,-0.4170313313356131
-0.41127842226987127,-0.41127842226987127
-0.40552551320412944,-0.40552551320412944
-0.37273393152940093,-0.37273393152940093
-0.31175309543253743,-0.31175309543253743
-0.24674522298965462,-0.24674522298965462
-0.22373358672668725,-0.22373358672668725
-0.23696527757789349,-0.23696527757789349
-0.24962167752252554,-0.24962167752252554
-0.20705015043603592,-0.20705015043603592
-0.13053645986166945,-0.13053645986166945
-0.07128149648452849,-0.07128149648452849
-0.05057102384785787,-0.05057102384785787
-0.036188751183503266,-0.036188751183503266
0.004656903183263807,0.004656903183263807
0.05988483021438548,0.05988483021438548
0.09382699370226234,0.09382699370226234
0.10015519367457837,0.10015519367457837
0.10130577548772673,0.10130577548772673
0.11453746633893297,0.11453746633893297
0.13007032081643594,0.13007032081643594
0.13524793897560358,0.13524793897560358
0.1283444480967134,0.1283444480967134
0.1133868845257846,0.1133868845257846
0.08979995735624305,0.08979995735624305
0.05988483021438548,0.05988483021438548
0.03572261213826975,0.03572261213826975
0.033996739418547195,0.033996739418547195
0.06161070293410803,0.06161070293410803
0.11166101180606204,0.11166101180606204
0.16516306611746118,0.16516306611746118
0.21003575683024756,0.21003575683024756
0.24800495666414368,0.24800495666414368
0.2877000292177624,0.2877000292177624
0.33717504718314223,0.33717504718314223
0.3975805923734316,0.3975805923734316
0.45510968303085,0.45510968303085
0.49250359195817195,0.49250359195817195
0.4948047555844687,0.4948047555844687
0.46201317390974017,0.46201317390974017
0.39873117418657994,0.39873117418657994
0.31473870182674907,0.31473870182674907
0.22729448402747307,0.22729448402747307
0.1576842843319968,0.1576842843319968
0.10705868455346858,0.10705868455346858
0.06161070293410803,0.06161070293410803
5.4575930670334396e-05,5.4575930670334396e-05
-0.06322742379248991,-0.06322742379248991
-0.11327773266444394,-0.11327773266444394
-0.12305767807620506,-0.12305767807620506
-0.10177191453296025,-0.10177191453296025
-0.07358266011082523,-0.07358266011082523
-0.0419416602492451,-0.0419416602492451
0.007533357716134727,0.007533357716134727
0.05930953930781129,0.05930953930781129
0.07541768469188845,0.07541768469188845
0.0627612847472564,0.0627612847472564
0.05758366658808874,0.05758366658808874
0.027093248539656986,0.027093248539656986
-0.08796493277517983,-0.08796493277517983
-0.21050189587548102,-0.21050189587548102
-0.1431928598063015,-0.1431928598063015
0.20255697504478315,0.20255697504478315
0.7588632817020191,0.7588632817020191
1.5147955329404972,1.5147955329404972
2.5273075285110607,2.5273075285110607
3.5639817421577407,3.5639817421577407
3.985094685770043,3.985094685770043
3.2930197251613,3.2930197251613
1.7564177137016543,1.7564177137016543
0.2692907202073885,0.2692907202073885
-0.4538499493563609,-0.4538499493563609
-0.4429194221314514,-0.4429194221314514
-0.2254594594464098,-0.2254594594464098
-0.18288793235992018,-0.18288793235992018
-0.27435918650521546,-0.27435918650521546
-0.3186565863114276,-0.3186565863114276
-0.29909669548790535,-0.29909669548790535
-0.3077260590865181,-0.3077260590865181
-0.34051764076124663,-0.34051764076124663
-0.32095774993772436,-0.32095774993772436
-0.2582510411211383,-0.2582510411211383
-0.22430887763326143,-0.22430887763326143
-0.22603475035298398,-0.22603475035298398
-0.21337835040835196,-0.21337835040835196
-0.18461380507964273,-0.18461380507964273
-0.18173735054677181,-0.18173735054677181
-0.19151729595853295,-0.19151729595853295
-0.17310798694815907,-0.17310798694815907
-0.11385302357101812,-0.11385302357101812
-0.06322742379248991,-0.06322742379248991
-0.040215787529522554,-0.040215787529522554
-0.04079107843609674,-0.04079107843609674
-0.05402276928730297,-0.05402276928730297
-0.07760969645684451,-0.07760969645684451
-0.10694953269212791,-0.10694953269212791
-0.13456349620768873,-0.13456349620768873
-0.15067164159176588,-0.15067164159176588
-0.1564245506575077,-0.1564245506575077
-0.1569998415640819,-0.1569998415640819
-0.15239751431148843,-0.15239751431148843
-0.13743995074055967,-0.13743995074055967
-0.1178800599170374,-0.1178800599170374
-0.10925069631842464,-0.10925069631842464
-0.11327773266444394,-0.11327773266444394
-0.11385302357101812,-0.11385302357101812
-0.09832016909351514,-0.09832016909351514
-0.07530853283054778,-0.07530853283054778
-0.0528721874741546,-0.0528721874741546
-0.018354733079703558,-0.018354733079703558
0.03802377576456648,0.03802377576456648
0.1024563573008751,0.1024563573008751
0.15998544795829353,0.15998544795829353
0.2152133749894152,0.2152133749894152
0.27849537471257546,0.27849537471257546
0.3440785380620324,0.3440785380620324
0.3998817559997283,0.3998817559997283
0.445905028525663,0.445905028525663
0.48675068289243006,0.48675068289243006
0.5166658100342877,0.5166658100342877
0.5258704645394746,0.5258704645394746
0.51148819187512,0.51148819187512
0.47754602838724314,0.47754602838724314
0.42346868316926983,0.42346868316926983
0.35558435619351614,0.35558435619351614
0.2934529382835042,0.2934529382835042
0.25836019298247903,0.25836019298247903
0.2474296657575695,0.2474296657575695
0.23534855671951163,0.23534855671951163
0.2008311023250606,0.2008311023250606
0.14847962982680984,0.14847962982680984
0.10360693911402347,0.10360693911402347
0.08864937554309468,0.08864937554309468
0.09440228460883653,0.09440228460883653
0.07944472103790774,0.07944472103790774
0.010985103155579832,0.010985103155579832
-0.09716958728036677,-0.09716958728036677
-0.18806555051908785,-0.18806555051908785
-0.22315829582011307,-0.22315829582011307
-0.21683009584779706,-0.21683009584779706
-0.20992660496890683,-0.20992660496890683
-0.21740538675437124,-0.21740538675437124
-0.22488416853983562,-0.22488416853983562
-0.21683009584779706,-0.21683009584779706
-0.20359840499659082,-0.20359840499659082
-0.19496904139797805,-0.19496904139797805
-0.2047489868097392,-0.2047489868097392
-0.22028184128724215,-0.22028184128724215
-0.2438687684567837,-0.2438687684567837
-0.25997691384086086,-0.25997691384086086
-0.27493447741178967,-0.27493447741178967
-0.2967955318616086,-0.2967955318616086
-0.3129036772456858,-0.3129036772456858
-0.3019731500207763,-0.3019731500207763
-0.2858650046366991,-0.2858650046366991
-0.30484960455364724,-0.30484960455364724
-0.32440949537716945,-0.32440949537716945
-0.27838622285123477,-0.27838622285123477
-0.21222776859520356,-0.21222776859520356
-0.2335135321384484,-0.2335135321384484
-0.27090744106577036,-0.27090744106577036
-0.08451318733573472,-0.08451318733573472
0.4211675195429731,0.4211675195429731
1.099435498393936,1.099435498393936
1.8680241495770462,1.8680241495770462
2.8109259454521336,2.8109259454521336
3.781441704842782,3.781441704842782
4.187597084884156,4.187597084884156
3.524861960510696,3.524861960510696
2.032557348857263,2.032557348857263
0.5638396643733707,0.5638396643733707
-0.20820073224918428,-0.20820073224918428
-0.2910426227958668,-0.2910426227958668
-0.1253588417025018,-0.1253588417025018
-0.04136636934267092,-0.04136636934267092
-0.054598060193877154,-0.054598060193877154
-0.06667916923193502,-0.06667916923193502
-0.08221202370943799,-0.08221202370943799
-0.14894576887204333,-0.14894576887204333
-0.23063707760557747,-0.23063707760557747
-0.247895804802803,-0.247895804802803
-0.20935131406233265,-0.20935131406233265
-0.19611962321112641,-0.19611962321112641
-0.2294864957924291,-0.2294864957924291
-0.26342865928030595,-0.26342865928030595
-0.27090744106577036,-0.27090744106577036
-0.2841391319169766,-0.2841391319169766
-0.3146295499654083,-0.3146295499654083
-0.3485717134532852,-0.3485717134532852
-0.3508728770795819,-0.3508728770795819
-0.32958711353633713,-0.32958711353633713
-0.2910426227958668,-0.2910426227958668
-0.2501969684290997,-0.2501969684290997
-0.21625480494122287,-0.21625480494122287
-0.18921613233223622,-0.18921613233223622
-0.16045158700352702,-0.16045158700352702
-0.11672947810388903,-0.11672947810388903
-0.0528721874741546,-0.0528721874741546
0.010985103155579832,0.010985103155579832
0.04435197573688251,0.04435197573688251
0.03974964848428904,0.03974964848428904
0.029969703072527908,0.029969703072527908
0.04665313936317925,0.04665313936317925
0.08519763010364959,0.08519763010364959
0.1168386299652297,0.1168386299652297
0.12374212084411991,0.12374212084411991
0.12201624812439736,0.12201624812439736
0.13352206625588103,0.13352206625588103
0.164587775210887,0.164587775210887
0.2008311023250606,0.2008311023250606
0.22902035674719562,0.22902035674719562
0.23880030215895676,0.23880030215895676
0.2261439022143247,0.2261439022143247
0.1899005751001511,0.1899005751001511
0.14157613894791962,0.14157613894791962
0.10763397546004276,0.10763397546004276
0.11281159361921042,0.11281159361921042
0.15998544795829353,0.15998544795829353
0.22556861130775052,0.22556861130775052
0.27504362927313036,0.27504362927313036
0.27849537471257546,0.27849537471257546
0.2295956476537698,0.2295956476537698
0.15078079345310658,0.15078079345310658
0.08174588466420447,0.08174588466420447
0.039174357577714855,0.039174357577714855
0.0121356849687282,0.0121356849687282
-0.01605356945340682,-0.01605356945340682
-0.037914623903225815,-0.037914623903225815
-0.03446287846378071,-0.03446287846378071
-0.009725369481090795,-0.009725369481090795
0.003506321370115439,0.003506321370115439
-0.01893002398627774,-0.01893002398627774
-0.059200387446470625,-0.059200387446470625
-0.07243207829767687,-0.07243207829767687
-0.037914623903225815,-0.037914623903225815
0.017888594034470042,0.017888594034470042
0.055282502961792004,0.055282502961792004
0.06218599384068221,0.06218599384068221
0.05758366658808874,0.05758366658808874
0.05758366658808874,0.05758366658808874
0.05758366658808874,0.05758366658808874
0.04952959389605017,0.04952959389605017
0.03802377576456648,0.03802377576456648
0.033996739418547195,0.033996739418547195
0.03514732123169556,0.03514732123169556
0.027093248539656986,0.027093248539656986
-0.0010960058824780337,-0.0010960058824780337
-0.0384899148098,-0.0384899148098
-0.06667916923193502,-0.06667916923193502
-0.08221202370943799,-0.08221202370943799
-0.09716958728036677,-0.09716958728036677
-0.12420825988935343,-0.12420825988935343
-0.16332804153639793,-0.16332804153639793
-0.20187253227686827,-0.20187253227686827
-0.22315829582011307,-0.22315829582011307
-0.22143242310039052,-0.22143242310039052
-0.21165247768862938,-0.21165247768862938
-0.21337835040835196,-0.21337835040835196
-0.2329382412318742,-0.2329382412318742
-0.24847109570937717,-0.24847109570937717
-0.23754056848446767,-0.23754056848446767
-0.19784549593084896,-0.19784549593084896
-0.15124693249834006,-0.15124693249834006
-0.12133180535648251,-0.12133180535648251
-0.11385302357101812,-0.11385302357101812
-0.11557889629074067,-0.11557889629074067
-0.10694953269212791,-0.10694953269212791
-0.07588382373712196,-0.07588382373712196
-0.029285260304613054,-0.029285260304613054
0.0121356849687282,0.0121356849687282
0.03974964848428904,0.03974964848428904
0.06506244837355314,0.06506244837355314
0.10073048458115255,0.10073048458115255
0.142726720761068,0.142726720761068
0.17149126608977722,0.17149126608977722
0.16976539337005467,0.16976539337005467
0.13524793897560358,0.13524793897560358
0.08059530285105611,0.08059530285105611
0.032270866698824646,0.032270866698824646
0.00925923043585728,0.00925923043585728
0.004656903183263807,0.004656903183263807
-0.011451242200813347,-0.011451242200813347
-0.05804980563332226,-0.05804980563332226
-0.12478355079592761,-0.12478355079592761
-0.18116205964019763,-0.18116205964019763
-0.21050189587548102,-0.21050189587548102
-0.2151042231280745,-0.2151042231280745
-0.20532427771631337,-0.20532427771631337
-0.1869149687059395,-0.1869149687059395
-0.16505391425612048,-0.16505391425612048
-0.14721989615232078,-0.14721989615232078
-0.1397411143668564,-0.1397411143668564
-0.1437681507128757,-0.1437681507128757
-0.15469867793778516,-0.15469867793778516
-0.16965624150871395,-0.16965624150871395
-0.18749025961251367,-0.18749025961251367
-0.20359840499659082,-0.20359840499659082
-0.2110771867820552,-0.2110771867820552
-0.20647485952946174,-0.20647485952946174
-0.19496904139797805,-0.19496904139797805
-0.1869149687059395,-0.1869149687059395
-0.18346322326649436,-0.18346322326649436
-0.17943618692047508,-0.17943618692047508
-0.1673550778824172,-0.1673550778824172
-0.14779518705889497,-0.14779518705889497
-0.1253588417025018,-0.1253588417025018
-0.10407307815925698,-0.10407307815925698
-0.08106144189628962,-0.08106144189628962
-0.04884515112813531,-0.04884515112813531
-0.002821878602200586,-0.002821878602200586
0.05240604842892108,0.05240604842892108
0.10188106639430092,0.10188106639430092
0.1277691571901392,0.1277691571901392
0.12201624812439736,0.12201624812439736
0.09497757551541071,0.09497757551541071
0.06793890290642406,0.06793890290642406
0.05413192114864364,0.05413192114864364
0.05010488480262435,0.05010488480262435
0.04262610301715996,0.04262610301715996
0.022490921287063512,0.022490921287063512
-0.003972460415348955,-0.003972460415348955
-0.023532351238871214,-0.023532351238871214
-0.024107642145445397,-0.024107642145445397
-0.005123042228497322,-0.005123042228497322
0.02479208491336025,0.02479208491336025
0.04722843026975343,0.04722843026975343
0.04780372117632761,0.04780372117632761
0.024216794006786065,0.024216794006786065
-0.013752405827110084,-0.013752405827110084
-0.047694569314986945,-0.047694569314986945
-0.06552858741878666,-0.06552858741878666
-0.06898033285823175,-0.06898033285823175
-0.07415795101739941,-0.07415795101739941
-0.09141667821462493,-0.09141667821462493
-0.10637424178555373,-0.10637424178555373
-0.09314255093434749,-0.09314255093434749
-0.049420442034709494,-0.049420442034709494
-0.003972460415348955,-0.003972460415348955
0.014436848595024936,0.014436848595024936
0.013286266781876568,0.013286266781876568
0.015587430408173305,0.015587430408173305
0.02881912125937954,0.02881912125937954
0.04665313936317925,0.04665313936317925
0.06448715746697896,0.06448715746697896
0.0840470482905012,0.0840470482905012
0.10130577548772673,0.10130577548772673
0.10878455727319113,0.10878455727319113
0.10475752092717183,0.10475752092717183
0.08864937554309468,0.08864937554309468
0.06448715746697896,0.06448715746697896
0.050680175709198534,0.050680175709198534
0.06218599384068221,0.06218599384068221
0.08174588466420447,0.08174588466420447
0.06736361199984987,0.06736361199984987
0.011560394062154016,0.011560394062154016
-0.04079107843609674,-0.04079107843609674
-0.05114631475443205,-0.05114631475443205
-0.03733933299665163,-0.03733933299665163
-0.0384899148098,-0.0384899148098
-0.05689922382017389,-0.05689922382017389
-0.07013091467138012,-0.07013091467138012
-0.0672544601385092,-0.0672544601385092
-0.059200387446470625,-0.059200387446470625
-0.052296896567580416,-0.052296896567580416
-0.04826986022156113,-0.04826986022156113
-0.05172160566100623,-0.05172160566100623
-0.06322742379248991,-0.06322742379248991
-0.0707062055779543,-0.0707062055779543
-0.0707062055779543,-0.0707062055779543
-0.07358266011082523,-0.07358266011082523
-0.08278731461601217,-0.08278731461601217
-0.07645911464369615,-0.07645911464369615
-0.03733933299665163,-0.03733933299665163
0.020189757660766777,0.020189757660766777
0.06621303018670151,0.06621303018670151
0.08174588466420447,0.08174588466420447
0.06736361199984987,0.06736361199984987
0.040900230297437404,0.040900230297437404
0.019614466754192594,0.019614466754192594
0.03284615760539883,0.03284615760539883
0.07484239378531427,0.07484239378531427
0.1283444480967134,0.1283444480967134
0.14157613894791962,0.14157613894791962
0.10360693911402347,0.10360693911402347
0.050680175709198534,0.050680175709198534
0.02881912125937954,0.02881912125937954
0.031695575792250456,0.031695575792250456
0.028243830352805355,0.028243830352805355
0.032270866698824646,0.032270866698824646
0.08462233919707539,0.08462233919707539
0.15135608435968076,0.15135608435968076
0.13409735716245522,0.13409735716245522
0.008683939529283096,0.008683939529283096
-0.0816367328028638,-0.0816367328028638
0.07024006653272079,0.07024006653272079
0.5425539008301259,0.5425539008301259
1.2501617159163725,1.2501617159163725
2.0998663849264423,2.0998663849264423
3.0611774898119037,3.0611774898119037
3.9632336313202243,3.9632336313202243
4.323365738835664,4.323365738835664
3.684217541631745,3.684217541631745
2.21089752989526,2.21089752989526
0.718017627335252,0.718017627335252
-0.08451318733573472,-0.08451318733573472
-0.18461380507964273,-0.18461380507964273
-0.010875951294239163,-0.010875951294239163
0.15825957523857098,0.15825957523857098
0.2946035200966526,0.2946035200966526
0.3636384288855547,0.3636384288855547
0.2946035200966526,0.2946035200966526
0.14790433892023566,0.14790433892023566
0.07426710287874008,0.07426710287874008
0.11396217543235879,0.11396217543235879
0.17091597518320303,0.17091597518320303
0.17091597518320303,0.17091597518320303
0.12489270265726828,0.12489270265726828
0.0736918119721659,0.0736918119721659
0.03514732123169556,0.03514732123169556
0.02364150310021188,0.02364150310021188
0.031120284885676273,0.031120284885676273
0.04320139392373414,0.04320139392373414
0.02479208491336025,0.02479208491336025
-0.018354733079703558,-0.018354733079703558
-0.06437800560563828,-0.06437800560563828
-0.07703440555027033,-0.07703440555027033
-0.05862509653989644,-0.05862509653989644
-0.042516951155819285,-0.042516951155819285
-0.04654398750183858,-0.04654398750183858
-0.036188751183503266,-0.036188751183503266
0.02076504856734096,0.02076504856734096
0.10763397546004276,0.10763397546004276
0.16343719339773863,0.16343719339773863
0.15998544795829353,0.15998544795829353
0.12259153903097154,0.12259153903097154
0.10303164820744928,0.10303164820744928
0.11913979359152645,0.11913979359152645
0.15653370251884843,0.15653370251884843
0.18932528419357691,0.18932528419357691
0.21406279317626684,0.21406279317626684
0.23995088397210512,0.23995088397210512
0.2721671747402594,0.2721671747402594
0.29978113825582026,0.29978113825582026
0.31416341092017486,0.31416341092017486
0.3164645745464716,0.3164645745464716
0.32279277451878763,0.32279277451878763
0.3423526653423099,0.3423526653423099
0.37687011973676093,0.37687011973676093
0.4171404831969538,0.4171404831969538
0.4499320648716823,0.4499320648716823
0.4608625920965918,0.4608625920965918
0.4585614284702951,0.4585614284702951
0.489627137425301,0.489627137425301
0.5995077005809701,0.5995077005809701
0.7600138635151674,0.7600138635151674
0.8756473357365785,0.8756473357365785
0.8721955902971333,0.8721955902971333
0.777272590712393,0.777272590712393
0.6742955184356141,0.6742955184356141
0.6138899732453247,0.6138899732453247
0.577071355224577,0.577071355224577
0.5293222099789197,0.5293222099789197
0.46143788300316596,0.46143788300316596
0.39125239240111553,0.39125239240111553
0.33199742902397456,0.33199742902397456
0.2842482837783173,0.2842482837783173
0.23649913853266,0.23649913853266
0.18759941147385437,0.18759941147385437
0.1496302116399582,0.1496302116399582
0.13985026622819707,0.13985026622819707
0.15538312070570007,0.15538312070570007
0.1783947569686674,0.1783947569686674
0.18817470238042855,0.18817470238042855
0.18529824784755763,0.18529824784755763
0.1818465024081125,0.1818465024081125
0.192777029633022,0.192777029633022
0.21636395680256357,0.21636395680256357
0.2411014657852535,0.2411014657852535
0.24455321122469859,0.24455321122469859
0.21981570224200866,0.21981570224200866
0.1818465024081125,0.1818465024081125
0.16171132067801608,0.16171132067801608
0.1720665569963514,0.1720665569963514
0.19680406597904132,0.19680406597904132
0.21406279317626684,0.21406279317626684
0.22441802949460216,0.22441802949460216
0.23074622946691817,0.23074622946691817
0.22844506584062144,0.22844506584062144
0.20888517501709916,0.20888517501709916
0.17954533878181578,0.17954533878181578
0.14905492073338403,0.14905492073338403
0.12316682993754573,0.12316682993754573
0.10763397546004276,0.10763397546004276
0.11741392087180388,0.11741392087180388
0.15595841161227425,0.15595841161227425
0.2071593022973766,0.2071593022973766
0.24570379303784695,0.24570379303784695
0.26411310204822086,0.26411310204822086
0.264688392954795,0.264688392954795
0.252031993010163,0.252031993010163
0.22902035674719562,0.22902035674719562
0.2221168658683054,0.2221168658683054
0.24455321122469859,0.24455321122469859
0.29978113825582026,0.29978113825582026
0.34465382896860663,0.34465382896860663
0.35443377438036777,0.35443377438036777
0.3262445199582327,0.3262445199582327
0.27792008380600125,0.27792008380600125
0.2295956476537698,0.2295956476537698
0.192777029633022,0.192777029633022
0.1576842843319968,0.1576842843319968
0.1168386299652297,0.1168386299652297
0.09670344823513326,0.09670344823513326
0.11108572089948786,0.11108572089948786
0.0840470482905012,0.0840470482905012
-0.044818114782116024,-0.044818114782116024
-0.12938587804852109,-0.12938587804852109
0.09497757551541071,0.09497757551541071
0.6811990093145043,0.6811990093145043
1.4474864968713175,1.4474864968713175
2.30582052948,2.30582052948
3.287266816095558,3.287266816095558
4.099002285271732,4.099002285271732
4.085770594420525,4.085770594420525
2.9662544902271635,2.9662544902271635
1.3588916972588931,1.3588916972588931
0.21463808408284102,0.21463808408284102
-0.10694953269212791,-0.10694953269212791
0.032270866698824646,0.032270866698824646
0.17954533878181578,0.17954533878181578
0.20485813867107988,0.20485813867107988
0.19047586600672528,0.19047586600672528
0.1933523205395962,0.1933523205395962
0.21003575683024756,0.21003575683024756
0.2261439022143247,0.2261439022143247
0.23995088397210512,0.23995088397210512
0.2537578657298855,0.2537578657298855
0.2664142656745176,0.2664142656745176
0.2698660111139627,0.2698660111139627
0.264688392954795,0.264688392954795
0.26008606570220155,0.26008606570220155
0.2623872293284983,0.2623872293284983
0.25663432026275645,0.25663432026275645
0.24455321122469859,0.24455321122469859
0.22556861130775052,0.22556861130775052
0.21463808408284102,0.21463808408284102
0.20543342957765406,0.20543342957765406
0.20888517501709916,0.20888517501709916
0.22384273858802797,0.22384273858802797
0.2405261748786793,0.2405261748786793
0.24800495666414368,0.24800495666414368
0.2474296657575695,0.2474296657575695
0.23247210218664072,0.23247210218664072
0.1979546477921897,0.1979546477921897
0.14847962982680984,0.14847962982680984
0.11396217543235879,0.11396217543235879
0.10533281183374603,0.10533281183374603
0.11108572089948786,0.11108572089948786
0.10935984817976531,0.10935984817976531
0.10763397546004276,0.10763397546004276
0.12546799356384247,0.12546799356384247
0.17666888424894486,0.17666888424894486
0.2514567021035888,0.2514567021035888
0.33890091990286475,0.33890091990286475
0.4263451377021408,0.4263451377021408
0.5091870282488232,0.5091870282488232
0.589727755169209,0.589727755169209
0.677171972968485,0.677171972968485
0.7663420634874835,0.7663420634874835
0.8399792995289791,0.8399792995289791
0.890029608400933,0.890029608400933
0.9349022991137195,0.9349022991137195
0.9958831352105829,0.9958831352105829
1.0666439167192077,1.0666439167192077
1.1230224255634775,1.1230224255634775
1.1443081891067224,1.1443081891067224
1.1253235891897744,1.1253235891897744
1.076999153037543,1.076999153037543
1.0200453532866987,1.0200453532866987
0.9705703353213189,0.9705703353213189
0.9153424082901972,0.9153424082901972
0.8244464450514761,0.8244464450514761
0.696156572885433,0.696156572885433
0.5695925734391126,0.5695925734391126
0.47812131929381735,0.47812131929381735
0.41138757413121196,0.41138757413121196
0.3342985926502713,0.3342985926502713
0.2411014657852535,0.2411014657852535
0.1530819570794033,0.1530819570794033
0.08749879372994632,0.08749879372994632
0.033996739418547195,0.033996739418547195
-0.019505314892851924,-0.019505314892851924
-0.0707062055779543,-0.0707062055779543
-0.10407307815925698,-0.10407307815925698
-0.11845535082361158,-0.11845535082361158
-0.12650942351565017,-0.12650942351565017
-0.14434344161944987,-0.14434344161944987
-0.16677978697584303,-0.16677978697584303
-0.1788608960139009,-0.1788608960139009
-0.15930100519037865,-0.15930100519037865
-0.12133180535648251,-0.12133180535648251
-0.0747332419239736,-0.0747332419239736
-0.049995732941283684,-0.049995732941283684
-0.03906520571637418,-0.03906520571637418
-0.03676404209007745,-0.03676404209007745
-0.020655896706000293,-0.020655896706000293
0.021340339473915147,0.021340339473915147
0.08232117557077866,0.08232117557077866
0.13179619353615848,0.13179619353615848
0.15653370251884843,0.15653370251884843
0.17436772062264813,0.17436772062264813
0.20543342957765406,0.20543342957765406
0.23937559306553094,0.23937559306553094
0.2439779203181244,0.2439779203181244
0.2117616295499701,0.2117616295499701
0.21348750226969265,0.21348750226969265
0.38780064696167044,0.38780064696167044
0.8480333722210176,0.8480333722210176
1.5901586417017153,1.5901586417017153
2.522129910351893,2.522129910351893
3.5294642877632896,3.5294642877632896
4.355006738697243,4.355006738697243
4.49882946534079,4.49882946534079
3.5668581966906117,3.5668581966906117
1.8599700768850076,1.8599700768850076
0.3199163199859167,0.3199163199859167
-0.33591531350865317,-0.33591531350865317
-0.24904638661595135,-0.24904638661595135
-0.0384899148098,-0.0384899148098
-0.031011133024335606,-0.031011133024335606
-0.12363296898277924,-0.12363296898277924
-0.17655973238760417,-0.17655973238760417
-0.21798067766094542,-0.21798067766094542
-0.28471442282355075,-0.28471442282355075
-0.33361414988235644,-0.33361414988235644
-0.3307376953494855,-0.3307376953494855
-0.30657547727336976,-0.30657547727336976
-0.29046733188929263,-0.29046733188929263
-0.2726333137854929,-0.2726333137854929
-0.22891120488585492,-0.22891120488585492
-0.16390333244297212,-0.16390333244297212
-0.09314255093434749,-0.09314255093434749
-0.047694569314986945,-0.047694569314986945
-0.01777944217312937,-0.01777944217312937
0.008108648622708912,0.008108648622708912
0.053556630242069456,0.053556630242069456
0.1024563573008751,0.1024563573008751
0.14330201166764217,0.14330201166764217
0.17379242971607395,0.17379242971607395
0.20198168413820897,0.20198168413820897
0.23189681128006653,0.23189681128006653
0.26698955658109175,0.26698955658109175
0.29978113825582026,0.29978113825582026
0.32451864723851015,0.32451864723851015
0.3331480108371229,0.3331480108371229
0.3314221381174004,0.3314221381174004
0.32451864723851015,0.32451864723851015
0.32509393814508436,0.32509393814508436
0.3423526653423099,0.3423526653423099
0.37859599245648345,0.37859599245648345
0.4142640286640829,0.4142640286640829
0.43324862858103097,0.43324862858103097
0.44475444671251463,0.44475444671251463
0.4746695738543722,0.4746695738543722
0.5235693009131779,0.5235693009131779
0.558086755307629,0.558086755307629
0.5575114644010547,0.5575114644010547
0.5465809371761452,0.5465809371761452
0.5638396643733707,0.5638396643733707
0.6081370641795829,0.6081370641795829
0.643229809480608,0.643229809480608
0.6512838821726467,0.6512838821726467
0.6518591730792208,0.6518591730792208
0.6748708093421882,0.6748708093421882
0.7134153000826585,0.7134153000826585
0.7329751909061808,0.7329751909061808
0.70536122739062,0.70536122739062
0.6351757367885695,0.6351757367885695
0.5448550644564227,0.5448550644564227
0.4568355557505725,0.4568355557505725
0.38377361061565113,0.38377361061565113
0.3342985926502713,0.3342985926502713
0.29978113825582026,0.29978113825582026
0.2554837384496081,0.2554837384496081
0.18529824784755763,0.18529824784755763
0.10475752092717183,0.10475752092717183
0.043776684830308325,0.043776684830308325
0.018463884941044225,0.018463884941044225
0.01616272131474749,0.01616272131474749
0.02191563038048933,0.02191563038048933
0.020189757660766777,0.020189757660766777
0.008108648622708912,0.008108648622708912
-0.0131771149205359,-0.0131771149205359
-0.03216171483748397,-0.03216171483748397
-0.04884515112813531,-0.04884515112813531
-0.0638027146990641,-0.0638027146990641
-0.06782975104508339,-0.06782975104508339
-0.03906520571637418,-0.03906520571637418
0.017888594034470042,0.017888594034470042
0.07081535743929497,0.07081535743929497
0.08864937554309468,0.08864937554309468
0.08749879372994632,0.08749879372994632
0.08749879372994632,0.08749879372994632
0.10188106639430092,0.10188106639430092
0.1133868845257846,0.1133868845257846
0.1312209026295843,0.1312209026295843
0.13697381169532616,0.13697381169532616
0.10533281183374603,0.10533281183374603
0.05413192114864364,0.05413192114864364
0.03514732123169556,0.03514732123169556
0.04032493939086322,0.04032493939086322
0.002355739556967071,0.002355739556967071
-0.07933556917656708,-0.07933556917656708
-0.1253588417025018,-0.1253588417025018
-0.13398820530111455,-0.13398820530111455
-0.1863396777993653,-0.1863396777993653
-0.2398417321107644,-0.2398417321107644
-0.09601900546721841,-0.09601900546721841
0.3377503380897164,0.3377503380897164
0.95561277175039,0.95561277175039
1.7121203138954422,1.7121203138954422
2.7142770731476706,2.7142770731476706
3.8418472500330716,3.8418472500330716
4.4878989381158805,4.4878989381158805
4.016160394725049,4.016160394725049
2.5031453104349453,2.5031453104349453
0.8158170814528634,0.8158170814528634
-0.15239751431148843,-0.15239751431148843
-0.23581469576474512,-0.23581469576474512
0.05298133933549527,0.05298133933549527
0.20025581141848642,0.20025581141848642
0.14502788438736472,0.14502788438736472
0.0840470482905012,0.0840470482905012
0.08749879372994632,0.08749879372994632
0.07081535743929497,0.07081535743929497
0.013286266781876568,0.013286266781876568
-0.014327696733684267,-0.014327696733684267
0.002355739556967071,0.002355739556967071
-0.0005207149759038497,-0.0005207149759038497
-0.04366753296896766,-0.04366753296896766
-0.07991086008314126,-0.07991086008314126
-0.07933556917656708,-0.07933556917656708
-0.0672544601385092,-0.0672544601385092
-0.057474514726748076,-0.057474514726748076
-0.05517335110045134,-0.05517335110045134
-0.0528721874741546,-0.0528721874741546
-0.06610387832536084,-0.06610387832536084
-0.08451318733573472,-0.08451318733573472
-0.10234720543953443,-0.10234720543953443
-0.11557889629074067,-0.11557889629074067
-0.12996116895509527,-0.12996116895509527
-0.15182222340491425,-0.15182222340491425
-0.18116205964019763,-0.18116205964019763
-0.19957136865057154,-0.19957136865057154
-0.19094200505195877,-0.19094200505195877
-0.1535480961246368,-0.1535480961246368
-0.10407307815925698,-0.10407307815925698
-0.054598060193877154,-0.054598060193877154
-0.002246587695626402,-0.002246587695626402
0.06678832109327569,0.06678832109327569
0.15423253889255167,0.15423253889255167
0.2474296657575695,0.2474296657575695
0.323943356331936,0.323943356331936
0.3745689561104642,0.3745689561104642
0.4142640286640829,0.4142640286640829
0.46316375572288854,0.46316375572288854
0.520692846380307,0.520692846380307
0.5701678643456868,0.5701678643456868
0.6087123550861571,0.6087123550861571
0.6576120821449627,0.6576120821449627
0.733550481812755,0.733550481812755
0.8215699905186051,0.8215699905186051
0.8860025720549137,0.8860025720549137
0.9095894992244553,0.9095894992244553
0.9078636265047327,0.9078636265047327
0.8980836810929717,0.8980836810929717
0.8750720448300042,0.8750720448300042
0.8163923723594375,0.8163923723594375
0.7162917546155295,0.7162917546155295
0.5949053733283767,0.5949053733283767
0.4758201556675206,0.4758201556675206
0.36421371979212885,0.36421371979212885
0.2554837384496081,0.2554837384496081
0.15480782979912586,0.15480782979912586
0.06621303018670151,0.06621303018670151
-0.011451242200813347,-0.011451242200813347
-0.08336260552258636,-0.08336260552258636
-0.14204227799315314,-0.14204227799315314
-0.18749025961251367,-0.18749025961251367
-0.2254594594464098,-0.2254594594464098
-0.25997691384086086,-0.25997691384086086
-0.27378389559864125,-0.27378389559864125
-0.25652516840141576,-0.25652516840141576
-0.2156795140346487,-0.2156795140346487
-0.17483385966788162,-0.17483385966788162
-0.13801524164713386,-0.13801524164713386
-0.10177191453296025,-0.10177191453296025
-0.05977567835304481,-0.05977567835304481
-0.020655896706000293,-0.020655896706000293
0.010985103155579832,0.010985103155579832
0.027093248539656986,0.027093248539656986
0.03974964848428904,0.03974964848428904
0.0518307575223469,0.0518307575223469
0.08347175738392702,0.08347175738392702
0.12259153903097154,0.12259153903097154
0.1605607388648677,0.1605607388648677
0.18357237512783509,0.18357237512783509
0.18472295694098345,0.18472295694098345
0.17034068427662885,0.17034068427662885
0.15538312070570007,0.15538312070570007
0.1421514298544938,0.1421514298544938
0.120865666311249,0.120865666311249
0.11051042999291368,0.11051042999291368
0.12719386628356502,0.12719386628356502
0.12029037540467481,0.12029037540467481
0.04435197573688251,0.04435197573688251
0.013286266781876568,0.013286266781876568
0.23017093856034399,0.23017093856034399
0.7393033908784968,0.7393033908784968
1.4244748606083502,1.4244748606083502
2.263249002393511,2.263249002393511
3.281513907029816,3.281513907029816
4.130643285133312,4.130643285133312
4.11108339430979,4.11108339430979
2.91908063588808,2.91908063588808
1.1736480253420059,1.1736480253420059
-0.1178800599170374,-0.1178800599170374
-0.5102284582006309,-0.5102284582006309
-0.3341894407889306,-0.3341894407889306
-0.10867540541185046,-0.10867540541185046
-0.03158642393090979,-0.03158642393090979
-0.019505314892851924,-0.019505314892851924
0.006958066809560543,0.006958066809560543
0.02766853944623117,0.02766853944623117
0.013861557688450753,0.013861557688450753
-0.0005207149759038497,-0.0005207149759038497
0.02191563038048933,0.02191563038048933
0.05930953930781129,0.05930953930781129
0.06908948471957242,0.06908948471957242
0.0627612847472564,0.0627612847472564
0.07771884831818518,0.07771884831818518
0.11166101180606204,0.11166101180606204
0.1168386299652297,0.1168386299652297
0.09727873914170744,0.09727873914170744
0.077143557411611,0.077143557411611
0.07656826650503681,0.07656826650503681
0.06908948471957242,0.06908948471957242
0.053556630242069456,0.053556630242069456
0.04205081211058577,0.04205081211058577
0.03802377576456648,0.03802377576456648
0.03054499397910209,0.03054499397910209
0.014436848595024936,0.014436848595024936
-0.006273624041645691,-0.006273624041645691
-0.022381769425722845,-0.022381769425722845
-0.03733933299665163,-0.03733933299665163
-0.054598060193877154,-0.054598060193877154
-0.07300736920425105,-0.07300736920425105
-0.07760969645684451,-0.07760969645684451
-0.05804980563332226,-0.05804980563332226
-0.01605356945340682,-0.01605356945340682
0.031695575792250456,0.031695575792250456
0.07771884831818518,0.07771884831818518
0.12546799356384247,0.12546799356384247
0.1818465024081125,0.1818465024081125
0.24512850213127277,0.24512850213127277
0.3095610836675814,0.3095610836675814
0.37341837429731584,0.37341837429731584
0.4424532830862179,0.4424532830862179
0.5189669736605844,0.5189669736605844
0.596055955141525,0.596055955141525
0.6685426093698722,0.6685426093698722
0.7358516454390517,0.7358516454390517
0.7922301542833218,0.7922301542833218
0.8261723177711986,0.8261723177711986
0.8353769722763856,0.8353769722763856
0.8313499359303663,0.8313499359303663
0.8186935359857342,0.8186935359857342
0.7882031179373025,0.7882031179373025
0.7312493181864582,0.7312493181864582
0.6570367912383885,0.6570367912383885
0.5724690279719835,0.5724690279719835
0.4717931193215013,0.4717931193215013
0.358460810726387,0.358460810726387
0.2595107747956274,0.2595107747956274
0.20255697504478315,0.20255697504478315
0.18529824784755763,0.18529824784755763
0.17494301152922231,0.17494301152922231
0.14100084804134544,0.14100084804134544
0.07311652106559172,0.07311652106559172
-0.01777944217312937,-0.01777944217312937
-0.10522365997240535,-0.10522365997240535
-0.16160216881667538,-0.16160216881667538
-0.18058676873362345,-0.18058676873362345
-0.18346322326649436,-0.18346322326649436
-0.19784549593084896,-0.19784549593084896
-0.22488416853983562,-0.22488416853983562
-0.2409923139239128,-0.2409923139239128
-0.22028184128724215,-0.22028184128724215
-0.1644786233495463,-0.1644786233495463
-0.09141667821462493,-0.09141667821462493
-0.025258223958593767,-0.025258223958593767
0.027093248539656986,0.027093248539656986
0.06563773928012732,0.06563773928012732
0.08577292101022377,0.08577292101022377
0.07944472103790774,0.07944472103790774
0.0518307575223469,0.0518307575223469
0.026517957633082803,0.026517957633082803
0.02766853944623117,0.02766853944623117
0.04952959389605017,0.04952959389605017
0.06448715746697896,0.06448715746697896
0.05125546661577272,0.05125546661577272
0.02364150310021188,0.02364150310021188
0.015587430408173305,0.015587430408173305
0.0374484848579923,0.0374484848579923
0.0627612847472564,0.0627612847472564
0.05700837568151456,0.05700837568151456
0.024216794006786065,0.024216794006786065
-0.002821878602200586,-0.002821878602200586
-0.004547751321923138,-0.004547751321923138
-0.002821878602200586,-0.002821878602200586
-0.025258223958593767,-0.025258223958593767
-0.06667916923193502,-0.06667916923193502
-0.09716958728036677,-0.09716958728036677
-0.10062133271981188,-0.10062133271981188
-0.08796493277517983,-0.08796493277517983
-0.07415795101739941,-0.07415795101739941
-0.07013091467138012,-0.07013091467138012
-0.07530853283054778,-0.07530853283054778
-0.07991086008314126,-0.07991086008314126
-0.07760969645684451,-0.07760969645684451
-0.08278731461601217,-0.08278731461601217
-0.11500360538416649,-0.11500360538416649
-0.16562920516269466,-0.16562920516269466
-0.19266787777168132,-0.19266787777168132
-0.1708068233218623,-0.1708068233218623
-0.12708471442222435,-0.12708471442222435
-0.10522365997240535,-0.10522365997240535
-0.11097656903814719,-0.11097656903814719
-0.11212715085129556,-0.11212715085129556
-0.08681435096203147,-0.08681435096203147
-0.04366753296896766,-0.04366753296896766
-0.009725369481090795,-0.009725369481090795
0.006958066809560543,0.006958066809560543
0.01501213950159912,0.01501213950159912
0.02766853944623117,0.02766853944623117
0.03974964848428904,0.03974964848428904
0.04147552120401159,0.04147552120401159
0.029969703072527908,0.029969703072527908
0.013286266781876568,0.013286266781876568
0.008683939529283096,0.008683939529283096
0.00925923043585728,0.00925923043585728
0.0121356849687282,0.0121356849687282
-0.005698333135071507,-0.005698333135071507
-0.04136636934267092,-0.04136636934267092
-0.08048615098971544,-0.08048615098971544
-0.11270244175786974,-0.11270244175786974
-0.13743995074055967,-0.13743995074055967
-0.1564245506575077,-0.1564245506575077
-0.17425856876130744,-0.17425856876130744
-0.19439375049140387,-0.19439375049140387
-0.21222776859520356,-0.21222776859520356
-0.23926644120419022,-0.23926644120419022
-0.32498478628374367,-0.32498478628374367
-0.4659310583944188,-0.4659310583944188
-0.49124385828368283,-0.49124385828368283
-0.18116205964019763,-0.18116205964019763
0.47064253750835294,0.47064253750835294
1.2875556248436943,1.2875556248436943
2.195939966324331,2.195939966324331
3.1923438165108178,3.1923438165108178
3.950001940469018,3.950001940469018
3.8447237045659426,3.8447237045659426
2.6694043824348843,2.6694043824348843
1.067794498532356,1.067794498532356
-0.05402276928730297,-0.05402276928730297
-0.3922938223529232,-0.3922938223529232
-0.29967198639447956,-0.29967198639447956
-0.17598444148102999,-0.17598444148102999
-0.11097656903814719,-0.11097656903814719
-0.04424282387554184,-0.04424282387554184
0.016738012221321673,0.016738012221321673
0.02364150310021188,0.02364150310021188
-0.014902987640258452,-0.014902987640258452
-0.044818114782116024,-0.044818114782116024
-0.03676404209007745,-0.03676404209007745
-0.01777944217312937,-0.01777944217312937
-0.02583351486516795,-0.02583351486516795
-0.06092626016619318,-0.06092626016619318
-0.0816367328028638,-0.0816367328028638
-0.06782975104508339,-0.06782975104508339
-0.05172160566100623,-0.05172160566100623
-0.0563239329135997,-0.0563239329135997
-0.08278731461601217,-0.08278731461601217
-0.09947075090666352,-0.09947075090666352
-0.11327773266444394,-0.11327773266444394
-0.13283762348796618,-0.13283762348796618
-0.15987629609695284,-0.15987629609695284
-0.18116205964019763,-0.18116205964019763
-0.19439375049140387,-0.19439375049140387
-0.21452893222150032,-0.21452893222150032
-0.25249813205539645,-0.25249813205539645
-0.2864402955432733,-0.2864402955432733
-0.2898920409827184,-0.2898920409827184
-0.26400395018688017,-0.26400395018688017
-0.23408882304502257,-0.23408882304502257
-0.21280305950177775,-0.21280305950177775
-0.19094200505195877,-0.19094200505195877
-0.1564245506575077,-0.1564245506575077
-0.11155185994472137,-0.11155185994472137
-0.06322742379248991,-0.06322742379248991
-0.015478278546832636,-0.015478278546832636
0.038599066671140665,0.038599066671140665
0.10475752092717183,0.10475752092717183
0.17724417515551905,0.17724417515551905
0.2376497203458084,0.2376497203458084
0.27446833836655615,0.27446833836655615
0.29978113825582026,0.29978113825582026
0.33947621080943896,0.33947621080943896
0.40045704690630246,0.40045704690630246
0.4643143375360369,0.4643143375360369
0.5149399373145651,0.5149399373145651
0.558086755307629,0.558086755307629
0.5977818278612476,0.5977818278612476
0.6213687550307891,0.6213687550307891
0.6196428823110666,0.6196428823110666
0.5977818278612476,0.5977818278612476
0.5644149552799449,0.5644149552799449
0.5040094100896556,0.5040094100896556
0.40218291962602504,0.40218291962602504
0.2767695019928529,0.2767695019928529
0.16631364793060954,0.16631364793060954
0.09267641188911398,0.09267641188911398
0.038599066671140665,0.038599066671140665
-0.02583351486516795,-0.02583351486516795
-0.10810011450527628,-0.10810011450527628
-0.18806555051908785,-0.18806555051908785
-0.2444440593633579,-0.2444440593633579
-0.27378389559864125,-0.27378389559864125
-0.2910426227958668,-0.2910426227958668
-0.30312373183392466,-0.30312373183392466
-0.3146295499654083,-0.3146295499654083
-0.3111778045259632,-0.3111778045259632
-0.29737082276818283,-0.29737082276818283
-0.26342865928030595,-0.26342865928030595
-0.23811585939104185,-0.23811585939104185
-0.2335135321384484,-0.2335135321384484
-0.2404170230173386,-0.2404170230173386
-0.2266100412595582,-0.2266100412595582
-0.1851890959862169,-0.1851890959862169
-0.1403164052734306,-0.1403164052734306
-0.11845535082361158,-0.11845535082361158
-0.11270244175786974,-0.11270244175786974
-0.09486842365407004,-0.09486842365407004
-0.06552858741878666,-0.06552858741878666
-0.06322742379248991,-0.06322742379248991
-0.08796493277517983,-0.08796493277517983
-0.007424205854794059,-0.007424205854794059
0.3596113925395354,0.3596113925395354
1.070670953065227,1.070670953065227
2.0388855488295787,2.0388855488295787
3.1474711257980315,3.1474711257980315
4.184145339444711,4.184145339444711
4.673142610032768,4.673142610032768
4.111658685216364,4.111658685216364
2.5894389464210725,2.5894389464210725
0.9360528809268678,0.9360528809268678
5.4575930670334396e-05,5.4575930670334396e-05
-0.11155185994472137,-0.11155185994472137
0.07829413922475938,0.07829413922475938
0.12316682993754573,0.12316682993754573
0.0017804486503928867,0.0017804486503928867
-0.11327773266444394,-0.11327773266444394
-0.15239751431148843,-0.15239751431148843
-0.1673550778824172,-0.1673550778824172
-0.20935131406233265,-0.20935131406233265
-0.2663051138131769,-0.2663051138131769
-0.29276849551558937,-0.29276849551558937
-0.2714827319723445,-0.2714827319723445
-0.23581469576474512,-0.23581469576474512
-0.23063707760557747,-0.23063707760557747
-0.25997691384086086,-0.25997691384086086
-0.2864402955432733,-0.2864402955432733
-0.29391907732873773,-0.29391907732873773
-0.27435918650521546,-0.27435918650521546
-0.23811585939104185,-0.23811585939104185
-0.17483385966788162,-0.17483385966788162
-0.11385302357101812,-0.11385302357101812
-0.08336260552258636,-0.08336260552258636
-0.08106144189628962,-0.08106144189628962
-0.06898033285823175,-0.06898033285823175
-0.030435842117761423,-0.030435842117761423
0.0012051577438187025,0.0012051577438187025
-0.014327696733684267,-0.014327696733684267
-0.059200387446470625,-0.059200387446470625
-0.0850884782423089,-0.0850884782423089
-0.07013091467138012,-0.07013091467138012
-0.042516951155819285,-0.042516951155819285
-0.030435842117761423,-0.030435842117761423
-0.03216171483748397,-0.03216171483748397
-0.021806478519148662,-0.021806478519148662
0.010409812249005649,0.010409812249005649
0.053556630242069456,0.053556630242069456
0.08979995735624305,0.08979995735624305
0.11396217543235879,0.11396217543235879
0.13812439350847452,0.13812439350847452
0.18127121150153833,0.18127121150153833
0.2543331566364597,0.2543331566364597
0.35155731984749683,0.35155731984749683
0.44935677396510815,0.44935677396510815
0.5201175554737327,0.5201175554737327
0.5517585553353129,0.5517585553353129
0.561538500747074,0.561538500747074
0.5787972279442996,0.5787972279442996
0.617917009591344,0.617917009591344
0.6673920275567238,0.6673920275567238
0.7088129728300651,0.7088129728300651
0.7387280999719227,0.7387280999719227
0.76173973623489,0.76173973623489
0.7640408998611867,0.7640408998611867
0.7185929182418263,0.7185929182418263
0.6207934641242149,0.6207934641242149
0.5034341191830815,0.5034341191830815
0.40448408325232177,0.40448408325232177
0.3233680654253618,0.3233680654253618
0.23419797490636327,0.23419797490636327
0.13524793897560358,0.13524793897560358
0.043776684830308325,0.043776684830308325
-0.012026533107387532,-0.012026533107387532
-0.047694569314986945,-0.047694569314986945
-0.07530853283054778,-0.07530853283054778
-0.11557889629074067,-0.11557889629074067
-0.16677978697584303,-0.16677978697584303
-0.204173695903165,-0.204173695903165
-0.204173695903165,-0.204173695903165
-0.19727020502427478,-0.19727020502427478
-0.22430887763326143,-0.22430887763326143
-0.2576757502145641,-0.2576757502145641
-0.2329382412318742,-0.2329382412318742
-0.18576438689279112,-0.18576438689279112
-0.2156795140346487,-0.2156795140346487
-0.29391907732873773,-0.29391907732873773
-0.23523940485817094,-0.23523940485817094
0.07484239378531427,0.07484239378531427
0.6104382278058796,0.6104382278058796
1.389957406213899,1.389957406213899
2.496241819556055,2.496241819556055
3.728514941437957,3.728514941437957
4.4355474656176295,4.4355474656176295
4.006955740219862,4.006955740219862
2.559523819279215,2.559523819279215
0.9653927171621511,0.9653927171621511
0.08347175738392702,0.08347175738392702
0.03284615760539883,0.03284615760539883
0.2807965383388722,0.2807965383388722
0.3406267926225873,0.3406267926225873
0.19680406597904132,0.19680406597904132
0.06621303018670151,0.06621303018670151
0.006958066809560543,0.006958066809560543
-0.06150155107276736,-0.06150155107276736
-0.13801524164713386,-0.13801524164713386
-0.15067164159176588,-0.15067164159176588
-0.11960593263675995,-0.11960593263675995
-0.125934132609076,-0.125934132609076
-0.1644786233495463,-0.1644786233495463
-0.16677978697584303,-0.16677978697584303
-0.132262332581392,-0.132262332581392
-0.12363296898277924,-0.12363296898277924
-0.14491873252602405,-0.14491873252602405
-0.16217745972324957,-0.16217745972324957
-0.14837047796546915,-0.14837047796546915
-0.13398820530111455,-0.13398820530111455
-0.12305767807620506,-0.12305767807620506
-0.12248238716963088,-0.12248238716963088
-0.13916582346028222,-0.13916582346028222
-0.17023153241528813,-0.17023153241528813
-0.19151729595853295,-0.19151729595853295
-0.19094200505195877,-0.19094200505195877
-0.1788608960139009,-0.1788608960139009
-0.1754091505744558,-0.1754091505744558
-0.1725326960415849,-0.1725326960415849
-0.15067164159176588,-0.15067164159176588
-0.10407307815925698,-0.10407307815925698
-0.05344747838072879,-0.05344747838072879
-0.016628860359981006,-0.016628860359981006
0.004081612276689623,0.004081612276689623
0.025367375819934434,0.025367375819934434
0.06448715746697896,0.06448715746697896
0.12719386628356502,0.12719386628356502
0.192777029633022,0.192777029633022
0.23592384762608581,0.23592384762608581
0.25663432026275645,0.25663432026275645
0.27849537471257546,0.27849537471257546
0.32279277451878763,0.32279277451878763
0.3820477378959286,0.3820477378959286
0.43670037402047607,0.43670037402047607
0.47754602838724314,0.47754602838724314
0.5132140645948425,0.5132140645948425
0.5506079735221645,0.5506079735221645
0.5839748461034672,0.5839748461034672
0.6035347369269894,0.6035347369269894
0.6058359005532862,0.6058359005532862
0.5868513006363382,0.5868513006363382
0.5408280281104034,0.5408280281104034
0.4648896284426111,0.4648896284426111
0.3745689561104642,0.3745689561104642
0.2940282291900784,0.2940282291900784
0.2267191931208989,0.2267191931208989
0.15653370251884843,0.15653370251884843
0.06851419381299824,0.06851419381299824
-0.014327696733684267,-0.014327696733684267
-0.07185678739110267,-0.07185678739110267
-0.09371784184092168,-0.09371784184092168
-0.11212715085129556,-0.11212715085129556
-0.13398820530111455,-0.13398820530111455
-0.15584925975093353,-0.15584925975093353
-0.17368327785473325,-0.17368327785473325
-0.19381845958482968,-0.19381845958482968
-0.21337835040835196,-0.21337835040835196
-0.2254594594464098,-0.2254594594464098
-0.22028184128724215,-0.22028184128724215
-0.18461380507964273,-0.18461380507964273
-0.1288105871419469,-0.1288105871419469
-0.12075651444990833,-0.12075651444990833
-0.19381845958482968,-0.19381845958482968
-0.22718533216613238,-0.22718533216613238
-0.020655896706000293,-0.020655896706000293
0.4712178284149271,0.4712178284149271
1.1569645890513545,1.1569645890513545
2.033132639763837,2.033132639763837
3.1146795441233026,3.1146795441233026
4.039747321894591,4.039747321894591
4.11798688518868,4.11798688518868
3.0577257443724584,3.0577257443724584
1.4474864968713175,1.4474864968713175
0.2405261748786793,0.2405261748786793
-0.14837047796546915,-0.14837047796546915
-0.028134678491464685,-0.028134678491464685
0.120865666311249,0.120865666311249
0.12259153903097154,0.12259153903097154
0.05700837568151456,0.05700837568151456
0.004656903183263807,0.004656903183263807
-0.043092242062393475,-0.043092242062393475
-0.10234720543953443,-0.10234720543953443
-0.1437681507128757,-0.1437681507128757
-0.1437681507128757,-0.1437681507128757
-0.13283762348796618,-0.13283762348796618
-0.14952105977861752,-0.14952105977861752
-0.17771031420075253,-0.17771031420075253
-0.1788608960139009,-0.1788608960139009
-0.15987629609695284,-0.15987629609695284
-0.16332804153639793,-0.16332804153639793
-0.18403851417306855,-0.18403851417306855
-0.20589956862288755,-0.20589956862288755
-0.21683009584779706,-0.21683009584779706
-0.23869115029761603,-0.23869115029761603
-0.2519228411488223,-0.2519228411488223
-0.23869115029761603,-0.23869115029761603
-0.2110771867820552,-0.2110771867820552
-0.19727020502427478,-0.19727020502427478
-0.19727020502427478,-0.19727020502427478
-0.19611962321112641,-0.19611962321112641
-0.18346322326649436,-0.18346322326649436
-0.1644786233495463,-0.1644786233495463
-0.13743995074055967,-0.13743995074055967
-0.09544371456064422,-0.09544371456064422
-0.035038169370354894,-0.035038169370354894
0.03054499397910209,0.03054499397910209
0.08692350282337213,0.08692350282337213
0.12604328447041666,0.12604328447041666
0.1530819570794033,0.1530819570794033
0.18472295694098345,0.18472295694098345
0.23477326581293745,0.23477326581293745
0.2951788110032268,0.2951788110032268
0.34350324715545827,0.34350324715545827
0.36939133795129653,0.36939133795129653
0.3872253560550962,0.3872253560550962
0.42346868316926983,0.42346868316926983
0.48847655561215264,0.48847655561215264
0.5701678643456868,0.5701678643456868
0.6472568458266273,0.6472568458266273
0.70536122739062,0.70536122739062
0.7393033908784968,0.7393033908784968
0.7433304272245161,0.7433304272245161
0.7134153000826585,0.7134153000826585
0.655310918518666,0.655310918518666
0.5828242642903189,0.5828242642903189
0.502283537369933,0.502283537369933
0.4136887377575087,0.4136887377575087
0.32681981086480694,0.32681981086480694
0.26411310204822086,0.26411310204822086
0.23247210218664072,0.23247210218664072
0.20830988411052498,0.20830988411052498
0.15653370251884843,0.15653370251884843
0.07081535743929497,0.07081535743929497
-0.01720415126655519,-0.01720415126655519
-0.07185678739110267,-0.07185678739110267
-0.08681435096203147,-0.08681435096203147
-0.08393789642916054,-0.08393789642916054
-0.0891155145883282,-0.0891155145883282
-0.10579895087897953,-0.10579895087897953
-0.11730476901046322,-0.11730476901046322
-0.10234720543953443,-0.10234720543953443
-0.06552858741878666,-0.06552858741878666
-0.029860551211187237,-0.029860551211187237
-0.021231187612574476,-0.021231187612574476
-0.036188751183503266,-0.036188751183503266
-0.057474514726748076,-0.057474514726748076
-0.05402276928730297,-0.05402276928730297
-0.029860551211187237,-0.029860551211187237
0.00925923043585728,0.00925923043585728
0.04032493939086322,0.04032493939086322
0.07484239378531427,0.07484239378531427
0.10418223002059765,0.10418223002059765
0.12201624812439736,0.12201624812439736
0.13294677534930685,0.13294677534930685
0.15423253889255167,0.15423253889255167
0.17609359334237068,0.17609359334237068
0.17436772062264813,0.17436772062264813
0.16631364793060954,0.16631364793060954
0.18932528419357691,0.18932528419357691
0.2186651204288603,0.2186651204288603
0.18529824784755763,0.18529824784755763
0.11396217543235879,0.11396217543235879
0.1530819570794033,0.1530819570794033
0.4315227558613084,0.4315227558613084
0.9515857354043707,0.9515857354043707
1.6764522776878428,1.6764522776878428
2.6101494190577434,2.6101494190577434
3.652576541770165,3.652576541770165
4.39987942941003,4.39987942941003
4.279068339029451,4.279068339029451
3.084189126074871,3.084189126074871
1.339331806435371,1.339331806435371
-0.0384899148098,-0.0384899148098
-0.5315142217438757,-0.5315142217438757
-0.3779115496885686,-0.3779115496885686
-0.13513878711426291,-0.13513878711426291
-0.06667916923193502,-0.06667916923193502
-0.08278731461601217,-0.08278731461601217
-0.07588382373712196,-0.07588382373712196
-0.07703440555027033,-0.07703440555027033
-0.11672947810388903,-0.11672947810388903
-0.14894576887204333,-0.14894576887204333
-0.12996116895509527,-0.12996116895509527
-0.08681435096203147,-0.08681435096203147
-0.06092626016619318,-0.06092626016619318
-0.06150155107276736,-0.06150155107276736
-0.06898033285823175,-0.06898033285823175
-0.06782975104508339,-0.06782975104508339
-0.04884515112813531,-0.04884515112813531
-0.025258223958593767,-0.025258223958593767
0.006958066809560543,0.006958066809560543
0.04952959389605017,0.04952959389605017
0.11453746633893297,0.11453746633893297
0.1720665569963514,0.1720665569963514
0.192777029633022,0.192777029633022
0.1829970842212609,0.1829970842212609
0.1755183024357965,0.1755183024357965
0.18759941147385437,0.18759941147385437
0.20543342957765406,0.20543342957765406
0.21118633864339592,0.21118633864339592
0.21693924770913775,0.21693924770913775
0.22902035674719562,0.22902035674719562
0.23247210218664072,0.23247210218664072
0.20830988411052498,0.20830988411052498
0.17609359334237068,0.17609359334237068
0.16631364793060954,0.16631364793060954
0.1818465024081125,0.1818465024081125
0.18817470238042855,0.18817470238042855
0.16861481155690627,0.16861481155690627
0.14675375710708727,0.14675375710708727
0.15998544795829353,0.15998544795829353
0.20888517501709916,0.20888517501709916
0.2577849020759048,0.2577849020759048
0.2721671747402594,0.2721671747402594
0.2623872293284983,0.2623872293284983
0.2698660111139627,0.2698660111139627
0.3222174836122134,0.3222174836122134
0.40793582869176687,0.40793582869176687
0.49192830105159774,0.49192830105159774
0.5431291917367002,0.5431291917367002
0.5569361734944805,0.5569361734944805
0.5592373371207773,0.5592373371207773
0.5764960643180028,0.5764960643180028
0.6006582823941184,0.6006582823941184
0.5983571187678217,0.5983571187678217
0.558086755307629,0.558086755307629
0.5109129009685458,0.5109129009685458
0.4907777192384494,0.4907777192384494
0.49250359195817195,0.49250359195817195
0.4838742283595592,0.4838742283595592
0.4568355557505725,0.4568355557505725
0.42749571951528914,0.42749571951528914
0.41138757413121196,0.41138757413121196
0.39700530146685736,0.39700530146685736
0.36824075613814816,0.36824075613814816
0.3204916108924909,0.3204916108924909
0.2698660111139627,0.2698660111139627
0.2376497203458084,0.2376497203458084
0.23247210218664072,0.23247210218664072
0.23247210218664072,0.23247210218664072
0.2152133749894152,0.2152133749894152
0.18472295694098345,0.18472295694098345
0.16861481155690627,0.16861481155690627
0.15595841161227425,0.15595841161227425
0.120865666311249,0.120865666311249
0.077143557411611,0.077143557411611
0.08519763010364959,0.08519763010364959
0.14847962982680984,0.14847962982680984
0.18529824784755763,0.18529824784755763
0.12431741175069409,0.12431741175069409
0.007533357716134727,0.007533357716134727
-0.07243207829767687,-0.07243207829767687
-0.07876027826999289,-0.07876027826999289
-0.05344747838072879,-0.05344747838072879
-0.03273700574405816,-0.03273700574405816
-0.012026533107387532,-0.012026533107387532
0.025367375819934434,0.025367375819934434
0.0736918119721659,0.0736918119721659
0.12489270265726828,0.12489270265726828
0.1789700478752416,0.1789700478752416
0.2411014657852535,0.2411014657852535
0.3055340473215621,0.3055340473215621
0.35443377438036777,0.35443377438036777
0.3780207015499093,0.3780207015499093
0.38665006514852207,0.38665006514852207
0.39297826512083806,0.39297826512083806
0.3918276833076897,0.3918276833076897
0.3670901743249998,0.3670901743249998
0.3153139927333232,0.3153139927333232
0.24570379303784695,0.24570379303784695
0.17609359334237068,0.17609359334237068
0.12316682993754573,0.12316682993754573
0.09727873914170744,0.09727873914170744
0.08922466644966887,0.08922466644966887
0.077143557411611,0.077143557411611
0.05240604842892108,0.05240604842892108
0.029969703072527908,0.029969703072527908
0.02766853944623117,0.02766853944623117
0.03802377576456648,0.03802377576456648
0.036873193951418116,0.036873193951418116
0.019614466754192594,0.019614466754192594
0.007533357716134727,0.007533357716134727
0.02364150310021188,0.02364150310021188
0.05758366658808874,0.05758366658808874
0.08059530285105611,0.08059530285105611
0.07081535743929497,0.07081535743929497
0.04435197573688251,0.04435197573688251
0.032270866698824646,0.032270866698824646
0.0518307575223469,0.0518307575223469
0.08749879372994632,0.08749879372994632
0.11281159361921042,0.11281159361921042
0.11396217543235879,0.11396217543235879
0.10130577548772673,0.10130577548772673
0.09727873914170744,0.09727873914170744
0.11971508449810063,0.11971508449810063
0.16976539337005467,0.16976539337005467
0.23189681128006653,0.23189681128006653
0.28885061103091075,0.28885061103091075
0.33372330174369713,0.33372330174369713
0.3711172106710191,0.3711172106710191
0.4050593741588959,0.4050593741588959
0.4315227558613084,0.4315227558613084
0.43785095583362443,0.43785095583362443
0.41483931957065706,0.41483931957065706
0.36593959251185143,0.36593959251185143
0.31071166548072976,0.31071166548072976
0.2687154293008143,0.2687154293008143
0.23880030215895676,0.23880030215895676
0.20830988411052498,0.20830988411052498
0.1680395206503321,0.1680395206503321
0.12201624812439736,0.12201624812439736
0.07196593925244335,0.07196593925244335
0.018463884941044225,0.018463884941044225
-0.025258223958593767,-0.025258223958593767
-0.035613460276929076,-0.035613460276929076
-0.014327696733684267,-0.014327696733684267
0.0029310304635412547,0.0029310304635412547
-0.012601824013961715,-0.012601824013961715
-0.03906520571637418,-0.03906520571637418
-0.033312296650632345,-0.033312296650632345
0.016738012221321673,0.016738012221321673
0.07311652106559172,0.07311652106559172
0.09325170279568816,0.09325170279568816
0.06908948471957242,0.06908948471957242
0.033996739418547195,0.033996739418547195
0.02766853944623117,0.02766853944623117
0.06678832109327569,0.06678832109327569
0.11511275724550715,0.11511275724550715
0.1386996844150487,0.1386996844150487
0.13007032081643594,0.13007032081643594
0.13294677534930685,0.13294677534930685
0.1536572479859775,0.1536572479859775
0.17494301152922231,0.17494301152922231
0.17954533878181578,0.17954533878181578
0.18932528419357691,0.18932528419357691
0.23534855671951163,0.23534855671951163
0.3164645745464716,0.3164645745464716
0.3918276833076897,0.3918276833076897
0.42346868316926983,0.42346868316926983
0.40908641050491523,0.40908641050491523
0.3567349380066645,0.3567349380066645
0.24570379303784695,0.24570379303784695
0.10188106639430092,0.10188106639430092
0.09555286642198489,0.09555286642198489
0.4246192649824182,0.4246192649824182
1.0793003166638395,1.0793003166638395
1.8755029313625105,1.8755029313625105
2.724057018559432,2.724057018559432
3.6036768147113594,3.6036768147113594
4.199678193922214,4.199678193922214
3.93792083143096,3.93792083143096
2.6475433279850655,2.6475433279850655
0.9688444626015963,0.9688444626015963
-0.20187253227686827,-0.20187253227686827
-0.5412941671556368,-0.5412941671556368
-0.3882667860069039,-0.3882667860069039
-0.16908095060213976,-0.16908095060213976
-0.027559387584890502,-0.027559387584890502
0.07484239378531427,0.07484239378531427
0.15193137526625494,0.15193137526625494
0.18127121150153833,0.18127121150153833
0.15710899342542262,0.15710899342542262
0.11281159361921042,0.11281159361921042
0.09440228460883653,0.09440228460883653
0.12201624812439736,0.12201624812439736
0.16631364793060954,0.16631364793060954
0.18357237512783509,0.18357237512783509
0.17034068427662885,0.17034068427662885
0.1640124843043128,0.1640124843043128
0.17149126608977722,0.17149126608977722
0.18069592059496414,0.18069592059496414
0.16573835702403536,0.16573835702403536
0.15193137526625494,0.15193137526625494
0.1530819570794033,0.1530819570794033
0.17149126608977722,0.17149126608977722
0.186448829660706,0.186448829660706
0.18817470238042855,0.18817470238042855
0.19450290235274456,0.19450290235274456
0.22269215677487958,0.22269215677487958
0.26353781114164665,0.26353781114164665
0.2900011928440591,0.2900011928440591
0.27849537471257546,0.27849537471257546
0.23822501125238257,0.23822501125238257
0.19220173872644783,0.19220173872644783
0.17149126608977722,0.17149126608977722
0.18587353875413182,0.18587353875413182
0.22786977493404725,0.22786977493404725
0.2664142656745176,0.2664142656745176
0.28194712015202056,0.28194712015202056
0.2836729928717431,0.2836729928717431
0.3061093382281363,0.3061093382281363
0.35788551981981287,0.35788551981981287
0.4102369923180636,0.4102369923180636
0.4320980467678826,0.4320980467678826
0.4372756649270503,0.4372756649270503
0.45453439212427577,0.45453439212427577
0.49538004649104284,0.49538004649104284
0.5471562280827195,0.5471562280827195
0.6006582823941184,0.6006582823941184
0.6530097548923692,0.6530097548923692
0.7042106455774716,0.7042106455774716
0.7536856635428515,0.7536856635428515
0.8100641723871215,0.8100641723871215
0.8739214630168559,0.8739214630168559
0.9297246809545517,0.9297246809545517
0.9544621899372416,0.9544621899372416
0.9423810808991838,0.9423810808991838
0.8998095538126942,0.8998095538126942
0.8382534268092565,0.8382534268092565
0.7634656089546126,0.7634656089546126
0.6840754638473752,0.6840754638473752
0.6046853187401378,0.6046853187401378
0.5310480826986422,0.5310480826986422
0.46316375572288854,0.46316375572288854
0.40103233781287667,0.40103233781287667
0.3342985926502713,0.3342985926502713
0.2577849020759048,0.2577849020759048
0.17954533878181578,0.17954533878181578
0.12259153903097154,0.12259153903097154
0.09325170279568816,0.09325170279568816
0.08174588466420447,0.08174588466420447
0.07426710287874008,0.07426710287874008
0.07656826650503681,0.07656826650503681
0.09555286642198489,0.09555286642198489
0.12431741175069409,0.12431741175069409
0.14042555713477126,0.14042555713477126
0.14100084804134544,0.14100084804134544
0.1386996844150487,0.1386996844150487
0.1530819570794033,0.1530819570794033
0.1824217933146867,0.1824217933146867
0.2117616295499701,0.2117616295499701
0.2261439022143247,0.2261439022143247
0.2295956476537698,0.2295956476537698
0.23534855671951163,0.23534855671951163
0.2537578657298855,0.2537578657298855
0.27619421108627873,0.27619421108627873
