ECG,PPG
-0.5954892515828524,-0.5954892515828524
-0.3239715695709475,-0.3239715695709475
-0.44238344755947273,-0.44238344755947273
-0.45294246852660236,-0.45294246852660236
-0.28927764353609303,-0.28927764353609303
-0.20103439688222396,-0.20103439688222396
-0.18745851278162873,-0.18745851278162873
-0.09770683456102684,-0.09770683456102684
0.016933964510666328,0.016933964510666328
-0.004938293206959343,-0.004938293206959343
-0.0856393820271644,-0.0856393820271644
-0.06527555587627153,-0.06527555587627153
0.016933964510666328,0.016933964510666328
0.012408669810467912,0.012408669810467912
-0.034352708758249036,-0.034352708758249036
0.03050984861126157,0.03050984861126157
0.22057222601959497,0.22057222601959497
0.38197440366000507,0.38197440366000507
0.42496470331189,0.42496470331189
0.40384666137763076,0.40384666137763076
0.42496470331189,0.42496470331189
0.5034031447819959,0.5034031447819959
0.5780705073352697,0.5780705073352697
0.5629861916679416,0.5629861916679416
0.475497160797439,0.475497160797439
0.4015840140275315,0.4015840140275315
0.42496470331189,0.42496470331189
0.49736941851506467,0.49736941851506467
0.5267838340663543,0.5267838340663543
0.46192127669684374,0.46192127669684374
0.3736780300429747,0.3736780300429747
0.3110781200235633,0.3110781200235633
0.2718588992885103,0.2718588992885103
0.20247104721880133,0.20247104721880133
0.11875309526513064,0.11875309526513064
0.048611027412055224,0.048611027412055224
0.016933964510666328,0.016933964510666328
-0.009463587907157756,-0.009463587907157756
-0.034352708758249036,-0.034352708758249036
-0.053208103342409094,-0.053208103342409094
-0.034352708758249036,-0.034352708758249036
0.006374943543536693,0.006374943543536693
0.06746642199621529,0.06746642199621529
0.16098917913364919,0.16098917913364919
0.3231455725574257,0.3231455725574257
0.5094368710489271,0.5094368710489271
0.679889638089734,0.679889638089734
0.8631640734477698,0.8631640734477698
1.139207050159873,1.139207050159873
1.4137415953052435,1.4137415953052435
1.4959511156921814,1.4959511156921814
1.356421195769397,1.356421195769397
1.2410261809143375,1.2410261809143375
1.2915586383998863,1.2915586383998863
1.3428453116688017,1.3428453116688017
1.1520287184771019,1.1520287184771019
0.7817087688441984,0.7817087688441984
0.46644657139704215,0.46644657139704215
0.3231455725574257,0.3231455725574257
0.24923242578751825,0.24923242578751825
0.170039768534046,0.170039768534046
0.06595799042948249,0.06595799042948249
-0.034352708758249036,-0.034352708758249036
-0.16030674458043823,-0.16030674458043823
-0.28927764353609303,-0.28927764353609303
-0.38807991115709173,-0.38807991115709173
-0.44238344755947273,-0.44238344755947273
-0.49216168926165527,-0.49216168926165527
-0.544202578313937,-0.544202578313937
-0.5826675832656236,-0.5826675832656236
-0.5954892515828524,-0.5954892515828524
-0.6256578829175085,-0.6256578829175085
-0.6973083823373167,-0.6973083823373167
-0.8111949656256435,-0.8111949656256435
-0.8504141863606964,-0.8504141863606964
-0.6249036671341421,-0.6249036671341421
-0.034352708758249036,-0.034352708758249036
0.7085498378576573,0.7085498378576573
1.3941319849377172,1.3941319849377172
2.1800248312055084,2.1800248312055084
3.281179874920456,3.281179874920456
4.1440027310916205,4.1440027310916205
3.740497286990595,3.740497286990595
1.9175577385940004,1.9175577385940004
-0.13617183951271336,-0.13617183951271336
-1.3112400299975682,-1.3112400299975682
-1.7177623372320592,-1.7177623372320592
-2.017940219011887,-2.017940219011887
-2.227612206787747,-2.227612206787747
-2.009643845394857,-2.009643845394857
-1.513369859939764,-1.513369859939764
-1.2335558043108288,-1.2335558043108288
-1.207912467676371,-1.207912467676371
-1.108355984272006,-1.108355984272006
-0.8504141863606964,-0.8504141863606964
-0.6950457349872176,-0.6950457349872176
-0.7485950556062321,-0.7485950556062321
-0.8549394810608948,-0.8549394810608948
-0.8504141863606964,-0.8504141863606964
-0.7591540765733618,-0.7591540765733618
-0.6467759248517678,-0.6467759248517678
-0.5788965043487916,-0.5788965043487916
-0.544202578313937,-0.544202578313937
-0.517805025896113,-0.517805025896113
-0.44238344755947273,-0.44238344755947273
-0.38129196910679414,-0.38129196910679414
-0.3910967742905574,-0.3910967742905574
-0.4371039370759079,-0.4371039370759079
-0.3910967742905574,-0.3910967742905574
-0.2500584228010401,-0.2500584228010401
-0.13617183951271336,-0.13617183951271336
-0.1165622291451869,-0.1165622291451869
-0.0856393820271644,-0.0856393820271644
0.02145925921086474,0.02145925921086474
0.11875309526513064,0.11875309526513064
0.10593142694790181,0.10593142694790181
0.06746642199621529,0.06746642199621529
0.11271936899819943,0.11271936899819943
0.22057222601959497,0.22057222601959497
0.28845164652257116,0.28845164652257116
0.3231455725574257,0.3231455725574257
0.35708528280891383,0.35708528280891383
0.3736780300429747,0.3736780300429747
0.33822988822475375,0.33822988822475375
0.3231455725574257,0.3231455725574257
0.36839851955940983,0.36839851955940983
0.42496470331189,0.42496470331189
0.4144056823447604,0.4144056823447604
0.3736780300429747,0.3736780300429747
0.3201287094239601,0.3201287094239601
0.22057222601959497,0.22057222601959497
0.06444955886274968,0.06444955886274968
-0.034352708758249036,-0.034352708758249036
-0.038123787675081046,-0.038123787675081046
-0.034352708758249036,-0.034352708758249036
-0.09996948191112605,-0.09996948191112605
-0.13617183951271336,-0.13617183951271336
-0.07583457684340117,-0.07583457684340117
0.016933964510666328,0.016933964510666328
0.05539896946235285,0.05539896946235285
0.11875309526513064,0.11875309526513064
0.2658251730215791,0.2658251730215791
0.42496470331189,0.42496470331189
0.4875646133313014,0.4875646133313014
0.5267838340663543,0.5267838340663543
0.6467041436216123,0.6467041436216123
0.8329954421131137,0.8329954421131137
0.9680000673356998,0.9680000673356998
1.0366337036220423,1.0366337036220423
1.0743444927903625,1.0743444927903625
1.0879203768909578,1.0879203768909578
1.0351252720553095,1.0351252720553095
0.9348145728675781,0.9348145728675781
0.8126316159622209,0.8126316159622209
0.679889638089734,0.679889638089734
0.5237669709328887,0.5237669709328887
0.3736780300429747,0.3736780300429747
0.20850477348573254,0.20850477348573254
0.016933964510666328,0.016933964510666328
-0.18745851278162873,-0.18745851278162873
-0.28927764353609303,-0.28927764353609303
-0.274193327868765,-0.274193327868765
-0.2387451860505441,-0.2387451860505441
-0.2787186225689634,-0.2787186225689634
-0.3405643168050084,-0.3405643168050084
-0.3616823587392677,-0.3616823587392677
-0.3910967742905574,-0.3910967742905574
-0.5200676732462122,-0.5200676732462122
-0.6973083823373167,-0.6973083823373167
-0.8172286918925747,-0.8172286918925747
-0.7998817288751474,-0.7998817288751474
-0.6166072935171116,-0.6166072935171116
-0.2387451860505441,-0.2387451860505441
0.2560203678378159,0.2560203678378159
0.8329954421131137,0.8329954421131137
1.6581075091159578,1.6581075091159578
2.873149136119232,2.873149136119232
4.010506537435767,4.010506537435767
4.199814699060734,4.199814699060734
3.128074070897076,3.128074070897076
1.4959511156921814,1.4959511156921814
0.14741329503305395,0.14741329503305395
-0.7485950556062321,-0.7485950556062321
-1.4387024973864904,-1.4387024973864904
-1.8708681412554389,-1.8708681412554389
-1.8248609784700882,-1.8248609784700882
-1.4115507291852998,-1.4115507291852998
-1.0623488214866554,-1.0623488214866554
-0.9522333171151608,-0.9522333171151608
-0.8911418386624822,-0.8911418386624822
-0.6973083823373167,-0.6973083823373167
-0.529118262646609,-0.529118262646609
-0.5954892515828524,-0.5954892515828524
-0.8081781024921779,-0.8081781024921779
-0.8504141863606964,-0.8504141863606964
-0.6746819088363246,-0.6746819088363246
-0.544202578313937,-0.544202578313937
-0.6181157250838445,-0.6181157250838445
-0.6467759248517678,-0.6467759248517678
-0.44540031069293834,-0.44540031069293834
-0.18745851278162873,-0.18745851278162873
-0.16784890241410225,-0.16784890241410225
-0.28927764353609303,-0.28927764353609303
-0.29229450666955864,-0.29229450666955864
-0.13617183951271336,-0.13617183951271336
0.0003412172766054743,0.0003412172766054743
0.06746642199621529,0.06746642199621529
0.13987113719938993,0.13987113719938993
0.22057222601959497,0.22057222601959497
0.22132644180296138,0.22132644180296138
0.170039768534046,0.170039768534046
0.18738673155147326,0.18738673155147326
0.3231455725574257,0.3231455725574257
0.4423116663293173,0.4423116663293173
0.42496470331189,0.42496470331189
0.30806125689009767,0.30806125689009767
0.2718588992885103,0.2718588992885103
0.3827286194433715,0.3827286194433715
0.5267838340663543,0.5267838340663543
0.5199958920160567,0.5199958920160567
0.3736780300429747,0.3736780300429747
0.2628083098881135,0.2628083098881135
0.3231455725574257,0.3231455725574257
0.43476950849565327,0.43476950849565327
0.42496470331189,0.42496470331189
0.2907142938726704,0.2907142938726704
0.22057222601959497,0.22057222601959497
0.25526615205444947,0.25526615205444947
0.2718588992885103,0.2718588992885103
0.21152163661919815,0.21152163661919815
0.22057222601959497,0.22057222601959497
0.30806125689009767,0.30806125689009767
0.2718588992885103,0.2718588992885103
0.022967690777597544,0.022967690777597544
-0.13617183951271336,-0.13617183951271336
0.05011945897878803,0.05011945897878803
0.42496470331189,0.42496470331189
0.6172897280703227,0.6172897280703227
0.5780705073352697,0.5780705073352697
0.5426223655170488,0.5426223655170488
0.679889638089734,0.679889638089734
0.8948411363491587,0.8948411363491587
1.0366337036220423,1.0366337036220423
1.0313541931384775,1.0313541931384775
0.9348145728675781,0.9348145728675781
0.8488339735638082,0.8488339735638082
0.884282115382029,0.884282115382029
1.0223036037380806,1.0223036037380806
1.139207050159873,1.139207050159873
1.0871661611075913,1.0871661611075913
0.884282115382029,0.884282115382029
0.67234748025607,0.67234748025607
0.5780705073352697,0.5780705073352697
0.49435255538159906,0.49435255538159906
0.2718588992885103,0.2718588992885103
-0.05999604539270672,-0.05999604539270672
-0.2387451860505441,-0.2387451860505441
-0.2093307704992544,-0.2093307704992544
-0.18745851278162873,-0.18745851278162873
-0.3405643168050084,-0.3405643168050084
-0.49367012082838807,-0.49367012082838807
-0.4242822687586791,-0.4242822687586791
-0.18745851278162873,-0.18745851278162873
-0.03887800345844745,-0.03887800345844745
-0.0856393820271644,-0.0856393820271644
-0.2447789123174753,-0.2447789123174753
-0.3910967742905574,-0.3910967742905574
-0.4974411997452201,-0.4974411997452201
-0.49367012082838807,-0.49367012082838807
-0.2447789123174753,-0.2447789123174753
0.3231455725574257,0.3231455725574257
1.04342164567234,1.04342164567234
1.8021627237389408,1.8021627237389408
2.775855300064966,2.775855300064966
4.046708895037354,4.046708895037354
4.877100472523764,4.877100472523764
4.199814699060734,4.199814699060734
2.021639516698564,2.021639516698564
-0.2387451860505441,-0.2387451860505441
-1.364789350616583,-1.364789350616583
-1.5646565332086795,-1.5646565332086795
-1.6823141954138383,-1.6823141954138383
-1.8195814679865234,-1.8195814679865234
-1.5706902594756107,-1.5706902594756107
-1.0035199903840761,-1.0035199903840761
-0.6746819088363246,-0.6746819088363246
-0.7485950556062321,-0.7485950556062321
-0.8677611493781237,-0.8677611493781237
-0.7485950556062321,-0.7485950556062321
-0.5343977731301738,-0.5343977731301738
-0.44238344755947273,-0.44238344755947273
-0.48311109986125844,-0.48311109986125844
-0.49367012082838807,-0.49367012082838807
-0.41900275827511424,-0.41900275827511424
-0.3405643168050084,-0.3405643168050084
-0.38581726380699255,-0.38581726380699255
-0.49367012082838807,-0.49367012082838807
-0.5223303205963113,-0.5223303205963113
-0.3910967742905574,-0.3910967742905574
-0.2379909702671777,-0.2379909702671777
-0.18745851278162873,-0.18745851278162873
-0.23271145978361285,-0.23271145978361285
-0.2387451860505441,-0.2387451860505441
-0.11580801336182049,-0.11580801336182049
0.06746642199621529,0.06746642199621529
0.08783024814710814,0.08783024814710814
-0.13617183951271336,-0.13617183951271336
-0.347352258855306,-0.347352258855306
-0.18745851278162873,-0.18745851278162873
0.2545119362710831,0.2545119362710831
0.5267838340663543,0.5267838340663543
0.43627794006238607,0.43627794006238607
0.3231455725574257,0.3231455725574257
0.44155745054595086,0.44155745054595086
0.5780705073352697,0.5780705073352697
0.44457431367941647,0.44457431367941647
0.22057222601959497,0.22057222601959497
0.2288685996366254,0.2288685996366254
0.42496470331189,0.42496470331189
0.4762513765808054,0.4762513765808054
0.3231455725574257,0.3231455725574257
0.20096261565206852,0.20096261565206852
0.2718588992885103,0.2718588992885103
0.37292381425960824,0.37292381425960824
0.3231455725574257,0.3231455725574257
0.15495545286671797,0.15495545286671797
0.06746642199621529,0.06746642199621529
0.09763505333087139,0.09763505333087139
0.11875309526513064,0.11875309526513064
0.04785681162868882,0.04785681162868882
0.016933964510666328,0.016933964510666328
0.13383741093245868,0.13383741093245868
0.3231455725574257,0.3231455725574257
0.4144056823447604,0.4144056823447604
0.42496470331189,0.42496470331189
0.4656923556136757,0.4656923556136757
0.5780705073352697,0.5780705073352697
0.6851691485732988,0.6851691485732988
0.7817087688441984,0.7817087688441984
0.9152049625000516,0.9152049625000516
1.0879203768909578,1.0879203768909578
1.1852142129452237,1.1852142129452237
1.139207050159873,1.139207050159873
0.9951518355368902,0.9951518355368902
0.884282115382029,0.884282115382029
0.8345038736798465,0.8345038736798465
0.7817087688441984,0.7817087688441984
0.6489667909717115,0.6489667909717115
0.475497160797439,0.475497160797439
0.3231455725574257,0.3231455725574257
0.22057222601959497,0.22057222601959497
0.11573623213166503,0.11573623213166503
0.016933964510666328,0.016933964510666328
-0.08186830311033239,-0.08186830311033239
-0.18745851278162873,-0.18745851278162873
-0.3646992218727333,-0.3646992218727333
-0.5954892515828524,-0.5954892515828524
-0.7553829976565297,-0.7553829976565297
-0.6973083823373167,-0.6973083823373167
-0.47632315781096085,-0.47632315781096085
-0.28927764353609303,-0.28927764353609303
-0.25609214906797134,-0.25609214906797134
-0.28927764353609303,-0.28927764353609303
-0.35338598512223723,-0.35338598512223723
-0.49367012082838807,-0.49367012082838807
-0.6113277830335468,-0.6113277830335468
-0.3910967742905574,-0.3910967742905574
0.2590372309712815,0.2590372309712815
1.139207050159873,1.139207050159873
2.1430682578205547,2.1430682578205547
3.3324665481893714,3.3324665481893714
4.2948458877649,4.2948458877649
4.199814699060734,4.199814699060734
2.8218624628503166,2.8218624628503166
1.0366337036220423,1.0366337036220423
-0.26137165955153613,-0.26137165955153613
-1.0548066636529914,-1.0548066636529914
-1.6679840955298766,-1.6679840955298766
-1.922154814524354,-1.922154814524354
-1.588037222493038,-1.588037222493038
-1.0548066636529914,-1.0548066636529914
-0.903963506979711,-0.903963506979711
-1.0548066636529914,-1.0548066636529914
-1.0223753849682362,-1.0223753849682362
-0.6973083823373167,-0.6973083823373167
-0.4506798211765031,-0.4506798211765031
-0.49367012082838807,-0.49367012082838807
-0.6633686720858286,-0.6633686720858286
-0.6973083823373167,-0.6973083823373167
-0.5615495413313643,-0.5615495413313643
-0.3910967742905574,-0.3910967742905574
-0.3646992218727333,-0.3646992218727333
-0.49367012082838807,-0.49367012082838807
-0.6550722984687982,-0.6550722984687982
-0.6467759248517678,-0.6467759248517678
-0.4325786423757095,-0.4325786423757095
-0.13617183951271336,-0.13617183951271336
0.018442396077399132,0.018442396077399132
-0.034352708758249036,-0.034352708758249036
-0.12485860276221732,-0.12485860276221732
-0.034352708758249036,-0.034352708758249036
0.15344702129998516,0.15344702129998516
0.170039768534046,0.170039768534046
-0.01700574574082178,-0.01700574574082178
-0.0856393820271644,-0.0856393820271644
0.12478682153206187,0.12478682153206187
0.3736780300429747,0.3736780300429747
0.39479607197723393,0.39479607197723393
0.3231455725574257,0.3231455725574257
0.3970587193273331,0.3970587193273331
0.5780705073352697,0.5780705073352697
0.6225692385538875,0.6225692385538875
0.5267838340663543,0.5267838340663543
0.48831882911466784,0.48831882911466784
0.5780705073352697,0.5780705073352697
0.5825958020354681,0.5825958020354681
0.3736780300429747,0.3736780300429747
0.13610005828255792,0.13610005828255792
0.170039768534046,0.170039768534046
0.4151598981281268,0.4151598981281268
0.5267838340663543,0.5267838340663543
0.3344588093079217,0.3344588093079217
0.11875309526513064,0.11875309526513064
0.14892172659978675,0.14892172659978675
0.3231455725574257,0.3231455725574257
0.36010214594237944,0.36010214594237944
0.2718588992885103,0.2718588992885103
0.23942762060375503,0.23942762060375503
0.3231455725574257,0.3231455725574257
0.42270205596179083,0.42270205596179083
0.5267838340663543,0.5267838340663543
0.6421788489214139,0.6421788489214139
0.7311763113586494,0.7311763113586494
0.7756750425772672,0.7756750425772672
0.884282115382029,0.884282115382029
1.052472235072737,1.052472235072737
1.139207050159873,1.139207050159873
1.0781155717071944,1.0781155717071944
1.0366337036220423,1.0366337036220423
1.0924456715911561,1.0924456715911561
1.0879203768909578,1.0879203768909578
0.8895616258655938,0.8895616258655938
0.679889638089734,0.679889638089734
0.6700848329059708,0.6700848329059708
0.7817087688441984,0.7817087688441984
0.7349473902754814,0.7349473902754814
0.475497160797439,0.475497160797439
0.17833614215107643,0.17833614215107643
0.016933964510666328,0.016933964510666328
-0.06075026117607312,-0.06075026117607312
-0.13617183951271336,-0.13617183951271336
-0.26212587533490256,-0.26212587533490256
-0.3910967742905574,-0.3910967742905574
-0.44690874225967114,-0.44690874225967114
-0.3910967742905574,-0.3910967742905574
-0.3767666744065957,-0.3767666744065957
-0.544202578313937,-0.544202578313937
-0.7493492713895985,-0.7493492713895985
-0.6973083823373167,-0.6973083823373167
-0.5147881627626474,-0.5147881627626474
-0.5954892515828524,-0.5954892515828524
-0.8624816388945589,-0.8624816388945589
-0.6973083823373167,-0.6973083823373167
0.037297790661559194,0.037297790661559194
0.7817087688441984,0.7817087688441984
1.313430896117512,1.313430896117512
2.2101934625401647,2.2101934625401647
3.5919167776674135,3.5919167776674135
4.403452960569663,4.403452960569663
3.674880513837718,3.674880513837718
1.903981854493405,1.903981854493405
0.28543478338910555,0.28543478338910555
-0.7485950556062321,-0.7485950556062321
-1.5065819178894666,-1.5065819178894666
-2.0239739452788186,-2.0239739452788186
-2.0330245346792153,-2.0330245346792153
-1.615943206477595,-1.615943206477595
-1.248640119978157,-1.248640119978157
-1.1566257944074558,-1.1566257944074558
-1.1611510891076542,-1.1611510891076542
-1.0548066636529914,-1.0548066636529914
-0.8896334070957493,-0.8896334070957493
-0.7998817288751474,-0.7998817288751474
-0.8187371234593075,-0.8187371234593075
-0.8504141863606964,-0.8504141863606964
-0.8247708497262387,-0.8247708497262387
-0.7485950556062321,-0.7485950556062321
-0.7063589717377136,-0.7063589717377136
-0.6973083823373167,-0.6973083823373167
-0.6875035771535535,-0.6875035771535535
-0.6467759248517678,-0.6467759248517678
-0.6520554353353326,-0.6520554353353326
-0.6973083823373167,-0.6973083823373167
-0.6792072035365231,-0.6792072035365231
-0.49367012082838807,-0.49367012082838807
-0.24704155966757452,-0.24704155966757452
-0.13617183951271336,-0.13617183951271336
-0.19726331796539195,-0.19726331796539195
-0.2387451860505441,-0.2387451860505441
-0.14522242891311019,-0.14522242891311019
-0.034352708758249036,-0.034352708758249036
-0.07206349792656916,-0.07206349792656916
-0.18745851278162873,-0.18745851278162873
-0.18896694434836153,-0.18896694434836153
-0.034352708758249036,-0.034352708758249036
0.09310975863067297,0.09310975863067297
0.06746642199621529,0.06746642199621529
-0.018514177307554586,-0.018514177307554586
0.016933964510666328,0.016933964510666328
0.13987113719938993,0.13987113719938993
0.170039768534046,0.170039768534046
0.05011945897878803,0.05011945897878803
-0.034352708758249036,-0.034352708758249036
0.02372190656096395,0.02372190656096395
0.11875309526513064,0.11875309526513064
0.11347358478156583,0.11347358478156583
0.06746642199621529,0.06746642199621529
0.038806222228292,0.038806222228292
-0.034352708758249036,-0.034352708758249036
-0.19726331796539195,-0.19726331796539195
-0.28927764353609303,-0.28927764353609303
-0.20480547579905597,-0.20480547579905597
-0.0856393820271644,-0.0856393820271644
-0.15879831301370542,-0.15879831301370542
-0.3405643168050084,-0.3405643168050084
-0.3239715695709475,-0.3239715695709475
0.016933964510666328,0.016933964510666328
0.37895754052653946,0.37895754052653946
0.42496470331189,0.42496470331189
0.22283487336969418,0.22283487336969418
0.170039768534046,0.170039768534046
0.3834828352267379,0.3834828352267379
0.5780705073352697,0.5780705073352697
0.5456392286505144,0.5456392286505144
0.5267838340663543,0.5267838340663543
0.7507859217261759,0.7507859217261759
1.0366337036220423,1.0366337036220423
1.054734882422836,1.054734882422836
0.8329954421131137,0.8329954421131137
0.5871210967356665,0.5871210967356665
0.3736780300429747,0.3736780300429747
0.13534584249919152,0.13534584249919152
-0.034352708758249036,-0.034352708758249036
-0.084885166243798,-0.084885166243798
-0.13617183951271336,-0.13617183951271336
-0.3036077434200547,-0.3036077434200547
-0.44238344755947273,-0.44238344755947273
-0.48160266829452564,-0.48160266829452564
-0.544202578313937,-0.544202578313937
-0.6988168139040495,-0.6988168139040495
-0.7485950556062321,-0.7485950556062321
-0.6075567041167148,-0.6075567041167148
-0.49367012082838807,-0.49367012082838807
-0.5954892515828524,-0.5954892515828524
-0.7485950556062321,-0.7485950556062321
-0.7501034871729649,-0.7501034871729649
-0.6973083823373167,-0.6973083823373167
-0.8089323182755442,-0.8089323182755442
-0.9522333171151608,-0.9522333171151608
-0.7455781924727665,-0.7455781924727665
-0.034352708758249036,-0.034352708758249036
0.8526050524806402,0.8526050524806402
1.5977702464466457,1.5977702464466457
2.3263426931785904,2.3263426931785904
3.281179874920456,3.281179874920456
4.046708895037354,4.046708895037354
3.740497286990595,3.740497286990595
2.12722972636986,2.12722972636986
0.11875309526513064,0.11875309526513064
-1.2614617882953858,-1.2614617882953858
-1.8708681412554389,-1.8708681412554389
-2.119005133982985,-2.119005133982985
-2.125793076033283,-2.125793076033283
-1.835419999437218,-1.835419999437218
-1.4628374024542152,-1.4628374024542152
-1.3150111089144003,-1.3150111089144003
-1.3097315984308355,-1.3097315984308355
-1.2147004097266687,-1.2147004097266687
-1.0548066636529914,-1.0548066636529914
-0.9914525378502137,-0.9914525378502137
-0.9522333171151608,-0.9522333171151608
-0.8225082023761395,-0.8225082023761395
-0.6973083823373167,-0.6973083823373167
-0.7327565241555376,-0.7327565241555376
-0.7998817288751474,-0.7998817288751474
-0.7093758348711792,-0.7093758348711792
-0.49367012082838807,-0.49367012082838807
-0.3986389321242214,-0.3986389321242214
-0.49367012082838807,-0.49367012082838807
-0.6543180826854318,-0.6543180826854318
-0.6973083823373167,-0.6973083823373167
-0.5834217990489899,-0.5834217990489899
-0.3910967742905574,-0.3910967742905574
-0.270422248951933,-0.270422248951933
-0.28927764353609303,-0.28927764353609303
-0.36696186922283247,-0.36696186922283247
-0.3405643168050084,-0.3405643168050084
-0.2138560651994528,-0.2138560651994528
-0.13617183951271336,-0.13617183951271336
-0.1791621391645983,-0.1791621391645983
-0.18745851278162873,-0.18745851278162873
-0.041140650808546654,-0.041140650808546654
0.170039768534046,0.170039768534046
0.2628083098881135,0.2628083098881135
0.22057222601959497,0.22057222601959497
0.12780368466552747,0.12780368466552747
0.06746642199621529,0.06746642199621529
0.08707603236374174,0.08707603236374174
0.22057222601959497,0.22057222601959497
0.34124675135821936,0.34124675135821936
0.2718588992885103,0.2718588992885103
0.04408573271185681,0.04408573271185681
-0.034352708758249036,-0.034352708758249036
0.16023496335028278,0.16023496335028278
0.3736780300429747,0.3736780300429747
0.30881547267346404,0.30881547267346404
0.06746642199621529,0.06746642199621529
-0.07281771370993556,-0.07281771370993556
-0.034352708758249036,-0.034352708758249036
0.010146022460368706,0.010146022460368706
-0.034352708758249036,-0.034352708758249036
-0.11505379757845409,-0.11505379757845409
-0.13617183951271336,-0.13617183951271336
-0.07583457684340117,-0.07583457684340117
0.06746642199621529,0.06746642199621529
0.23791918903702222,0.23791918903702222
0.3736780300429747,0.3736780300429747
0.4581501977800117,0.4581501977800117
0.5780705073352697,0.5780705073352697
0.7507859217261759,0.7507859217261759
0.884282115382029,0.884282115382029
0.8609014260976706,0.8609014260976706
0.7311763113586494,0.7311763113586494
0.6323740437376507,0.6323740437376507
0.679889638089734,0.679889638089734
0.8435544630802433,0.8435544630802433
0.9861012461364934,0.9861012461364934
0.90087486261609,0.90087486261609
0.5267838340663543,0.5267838340663543
0.05238210632888724,0.05238210632888724
-0.18745851278162873,-0.18745851278162873
-0.1188248764952861,-0.1188248764952861
0.016933964510666328,0.016933964510666328
-0.06150447695943952,-0.06150447695943952
-0.28927764353609303,-0.28927764353609303
-0.4476629580430375,-0.4476629580430375
-0.44238344755947273,-0.44238344755947273
-0.39034255850719096,-0.39034255850719096
-0.3910967742905574,-0.3910967742905574
-0.4695352157606632,-0.4695352157606632
-0.5954892515828524,-0.5954892515828524
-0.7259685821052401,-0.7259685821052401
-0.7998817288751474,-0.7998817288751474
-0.8587105599777268,-0.8587105599777268
-0.9522333171151608,-0.9522333171151608
-0.97335135904942,-0.97335135904942
-0.6973083823373167,-0.6973083823373167
-0.15804409723033902,-0.15804409723033902
0.42496470331189,0.42496470331189
1.0539806666394695,1.0539806666394695
2.0065552010312357,2.0065552010312357
3.1454210339145035,3.1454210339145035
3.740497286990595,3.740497286990595
3.214054670200846,3.214054670200846
1.853449397007856,1.853449397007856
0.36311900907584505,0.36311900907584505
-0.8504141863606964,-0.8504141863606964
-1.721533416148891,-1.721533416148891
-2.125793076033283,-2.125793076033283
-2.0171860032285207,-2.0171860032285207
-1.6664756639631437,-1.6664756639631437
-1.4409651447365894,-1.4409651447365894
-1.3610182716997508,-1.3610182716997508
-1.247131688411424,-1.247131688411424
-1.0548066636529914,-1.0548066636529914
-0.8798286019119861,-0.8798286019119861
-0.7485950556062321,-0.7485950556062321
-0.6935373034204847,-0.6935373034204847
-0.7485950556062321,-0.7485950556062321
-0.7772552553741554,-0.7772552553741554
-0.544202578313937,-0.544202578313937
-0.2176271441162848,-0.2176271441162848
-0.2387451860505441,-0.2387451860505441
-0.6414964143682029,-0.6414964143682029
-0.8504141863606964,-0.8504141863606964
-0.6105735672501804,-0.6105735672501804
-0.3405643168050084,-0.3405643168050084
-0.4069353057412518,-0.4069353057412518
-0.49367012082838807,-0.49367012082838807
-0.28550656461926105,-0.28550656461926105
-0.0856393820271644,-0.0856393820271644
-0.2598632279848033,-0.2598632279848033
-0.49367012082838807,-0.49367012082838807
-0.28098126991906264,-0.28098126991906264
0.22057222601959497,0.22057222601959497
0.35859371437564663,0.35859371437564663
-0.034352708758249036,-0.034352708758249036
-0.40768952152461824,-0.40768952152461824
-0.2387451860505441,-0.2387451860505441
0.2665793888049455,0.2665793888049455
0.5267838340663543,0.5267838340663543
0.36311900907584505,0.36311900907584505
0.170039768534046,0.170039768534046
0.21981801023622857,0.21981801023622857
0.3231455725574257,0.3231455725574257
0.24696977843741905,0.24696977843741905
0.170039768534046,0.170039768534046
0.2703504677217775,0.2703504677217775
0.3736780300429747,0.3736780300429747
0.2620540941047471,0.2620540941047471
0.11875309526513064,0.11875309526513064
0.166268689617214,0.166268689617214
0.2718588992885103,0.2718588992885103
0.1677771211839468,0.1677771211839468
-0.034352708758249036,-0.034352708758249036
-0.04717437707547788,-0.04717437707547788
0.11875309526513064,0.11875309526513064
0.10970250586473382,0.10970250586473382
-0.18745851278162873,-0.18745851278162873
-0.4024100110410534,-0.4024100110410534
-0.13617183951271336,-0.13617183951271336
0.37895754052653946,0.37895754052653946
0.5780705073352697,0.5780705073352697
0.4219478401784244,0.4219478401784244
0.475497160797439,0.475497160797439
0.8443086788636097,0.8443086788636097
0.9348145728675781,0.9348145728675781
0.5554440338342777,0.5554440338342777
0.42496470331189,0.42496470331189
0.9031375099661891,0.9031375099661891
1.2923128541832527,1.2923128541832527
1.030599977355111,1.030599977355111
0.679889638089734,0.679889638089734
0.7628533742600383,0.7628533742600383
0.7817087688441984,0.7817087688441984
0.24923242578751825,0.24923242578751825
-0.2387451860505441,-0.2387451860505441
-0.10524899239469086,-0.10524899239469086
0.11875309526513064,0.11875309526513064
-0.2523210701511393,-0.2523210701511393
-0.7485950556062321,-0.7485950556062321
-0.637725335451371,-0.637725335451371
-0.18745851278162873,-0.18745851278162873
-0.18670429699826233,-0.18670429699826233
-0.6467759248517678,-0.6467759248517678
-0.977122437966252,-0.977122437966252
-0.9522333171151608,-0.9522333171151608
-0.8330672233432692,-0.8330672233432692
-0.7485950556062321,-0.7485950556062321
-0.6362169038846381,-0.6362169038846381
-0.544202578313937,-0.544202578313937
-0.6384795512347373,-0.6384795512347373
-0.7998817288751474,-0.7998817288751474
-0.6467759248517678,-0.6467759248517678
0.016933964510666328,0.016933964510666328
0.857884562964205,0.857884562964205
1.4959511156921814,1.4959511156921814
2.0759430531009446,2.0759430531009446
2.975722482657063,2.975722482657063
3.806114060143472,3.806114060143472
3.5368590254816663,3.5368590254816663
1.8609915548415201,1.8609915548415201
-0.13617183951271336,-0.13617183951271336
-1.2961557143302402,-1.2961557143302402
-1.6664756639631437,-1.6664756639631437
-1.965145114176239,-1.965145114176239
-2.2788988800566625,-2.2788988800566625
-2.1702918072519006,-2.1702918072519006
-1.615943206477595,-1.615943206477595
-1.1581342259741887,-1.1581342259741887
-1.1053391211385404,-1.1053391211385404
-1.224505214910432,-1.224505214910432
-1.1566257944074558,-1.1566257944074558
-0.885108112395551,-0.885108112395551
-0.6467759248517678,-0.6467759248517678
-0.6678939667860271,-0.6678939667860271
-0.9017008596296118,-0.9017008596296118
-1.0759247055872507,-1.0759247055872507
-0.9522333171151608,-0.9522333171151608
-0.6573349458188974,-0.6573349458188974
-0.49367012082838807,-0.49367012082838807
-0.5849302306157228,-0.5849302306157228
-0.6973083823373167,-0.6973083823373167
-0.6354626881012717,-0.6354626881012717
-0.44238344755947273,-0.44238344755947273
-0.29832823293648986,-0.29832823293648986
-0.2387451860505441,-0.2387451860505441
-0.20555969158242238,-0.20555969158242238
-0.18745851278162873,-0.18745851278162873
-0.22818616508341444,-0.22818616508341444
-0.28927764353609303,-0.28927764353609303
-0.28776921196936023,-0.28776921196936023
-0.18745851278162873,-0.18745851278162873
-0.049437024425577084,-0.049437024425577084
0.06746642199621529,0.06746642199621529
0.12629525309879466,0.12629525309879466
0.11875309526513064,0.11875309526513064
0.053890537895620046,0.053890537895620046
0.016933964510666328,0.016933964510666328
0.1051772111645354,0.1051772111645354
0.3231455725574257,0.3231455725574257
0.47323451344733974,0.47323451344733974
0.3736780300429747,0.3736780300429747
0.09989770068097059,0.09989770068097059
-0.034352708758249036,-0.034352708758249036
0.07802544296334492,0.07802544296334492
0.22057222601959497,0.22057222601959497
0.1670229054005804,0.1670229054005804
0.016933964510666328,0.016933964510666328
-0.053962319125775496,-0.053962319125775496
-0.034352708758249036,-0.034352708758249036
-0.019268393090920988,-0.019268393090920988
0.016933964510666328,0.016933964510666328
0.053136322112253644,0.053136322112253644
-0.034352708758249036,-0.034352708758249036
-0.25910901220143695,-0.25910901220143695
-0.3405643168050084,-0.3405643168050084
-0.0856393820271644,-0.0856393820271644
0.3231455725574257,0.3231455725574257
0.5426223655170488,0.5426223655170488
0.5267838340663543,0.5267838340663543
0.4536249030798133,0.4536249030798133
0.475497160797439,0.475497160797439
0.6353909068711163,0.6353909068711163
0.9348145728675781,0.9348145728675781
1.1867226445119565,1.1867226445119565
1.139207050159873,1.139207050159873
0.8292243631962817,0.8292243631962817
0.6286029648208187,0.6286029648208187
0.6678221855558716,0.6678221855558716
0.679889638089734,0.679889638089734
0.5101910868322935,0.5101910868322935
0.42496470331189,0.42496470331189
0.5192416762326904,0.5192416762326904
0.475497160797439,0.475497160797439
0.12327838996532907,0.12327838996532907
-0.13617183951271336,-0.13617183951271336
-0.07206349792656916,-0.07206349792656916
-0.034352708758249036,-0.034352708758249036
-0.34659804307193964,-0.34659804307193964
-0.6467759248517678,-0.6467759248517678
-0.517805025896113,-0.517805025896113
-0.18745851278162873,-0.18745851278162873
-0.154273018313507,-0.154273018313507
-0.3910967742905574,-0.3910967742905574
-0.5359062046969066,-0.5359062046969066
-0.49367012082838807,-0.49367012082838807
-0.4770773735943272,-0.4770773735943272
-0.49367012082838807,-0.49367012082838807
-0.3390558852382756,-0.3390558852382756
0.06746642199621529,0.06746642199621529
0.5463934444338808,0.5463934444338808
1.0366337036220423,1.0366337036220423
1.7697314450541854,1.7697314450541854
2.9244358093881475,2.9244358093881475
4.063301642271415,4.063301642271415
4.352920503084114,4.352920503084114
3.406379694959279,3.406379694959279
1.7508760504700254,1.7508760504700254
0.17305663166751162,0.17305663166751162
-0.9522333171151608,-0.9522333171151608
-1.5970878118934348,-1.5970878118934348
-1.7177623372320592,-1.7177623372320592
-1.4726422076379784,-1.4726422076379784
-1.25844492516192,-1.25844492516192
-1.2260136464771647,-1.2260136464771647
-1.0548066636529914,-1.0548066636529914
-0.6513012195519662,-0.6513012195519662
-0.44238344755947273,-0.44238344755947273
-0.6671397510026607,-0.6671397510026607
-0.8504141863606964,-0.8504141863606964
-0.598506114716318,-0.598506114716318
-0.2387451860505441,-0.2387451860505441
-0.26212587533490256,-0.26212587533490256
-0.49367012082838807,-0.49367012082838807
-0.5057375733622506,-0.5057375733622506
-0.28927764353609303,-0.28927764353609303
-0.13918870264617897,-0.13918870264617897
-0.034352708758249036,-0.034352708758249036
0.15420123708335157,0.15420123708335157
0.3231455725574257,0.3231455725574257
0.2273601680698926,0.2273601680698926
-0.034352708758249036,-0.034352708758249036
-0.15578144988023981,-0.15578144988023981
-0.034352708758249036,-0.034352708758249036
0.10894829008136742,0.10894829008136742
0.11875309526513064,0.11875309526513064
0.11875309526513064,0.11875309526513064
0.3231455725574257,0.3231455725574257
0.6542463014552763,0.6542463014552763
0.8329954421131137,0.8329954421131137
0.7477690585927103,0.7477690585927103
0.6286029648208187,0.6286029648208187
0.6406704173546811,0.6406704173546811
0.679889638089734,0.679889638089734
0.6165355122869562,0.6165355122869562
0.5780705073352697,0.5780705073352697
0.6474583594049788,0.6474583594049788
0.679889638089734,0.679889638089734
0.5667572705847737,0.5667572705847737
0.5267838340663543,0.5267838340663543
0.7047787589408253,0.7047787589408253
0.884282115382029,0.884282115382029
0.7817087688441984,0.7817087688441984
0.5267838340663543,0.5267838340663543
0.40460087716099713,0.40460087716099713
0.475497160797439,0.475497160797439
0.5841042336022009,0.5841042336022009
0.679889638089734,0.679889638089734
0.7334389587087486,0.7334389587087486
0.679889638089734,0.679889638089734
0.5426223655170488,0.5426223655170488
0.5267838340663543,0.5267838340663543
0.6519836541051771,0.6519836541051771
0.679889638089734,0.679889638089734
0.48982726068140064,0.48982726068140064
0.3736780300429747,0.3736780300429747
0.5863668809523002,0.5863668809523002
0.9861012461364934,0.9861012461364934
1.24253461248107,1.24253461248107
1.2923128541832527,1.2923128541832527
1.2221707863301774,1.2221707863301774
1.0879203768909578,1.0879203768909578
0.9634747726355013,0.9634747726355013
1.0366337036220423,1.0366337036220423
1.2885417752664208,1.2885417752664208
1.3941319849377172,1.3941319849377172
1.1105468503919498,1.1105468503919498
0.679889638089734,0.679889638089734
0.4807766712810038,0.4807766712810038
0.5780705073352697,0.5780705073352697
0.6904486590568637,0.6904486590568637
0.6286029648208187,0.6286029648208187
0.3653816564259442,0.3653816564259442
0.016933964510666328,0.016933964510666328
-0.2719306805186658,-0.2719306805186658
-0.3405643168050084,-0.3405643168050084
-0.22667773351668163,-0.22667773351668163
-0.13617183951271336,-0.13617183951271336
-0.22064400724975042,-0.22064400724975042
-0.3910967742905574,-0.3910967742905574
-0.5170508101127466,-0.5170508101127466
-0.5954892515828524,-0.5954892515828524
-0.6995710296874159,-0.6995710296874159
-0.7485950556062321,-0.7485950556062321
-0.6007687620664173,-0.6007687620664173
-0.2387451860505441,-0.2387451860505441
0.1707939843174124,0.1707939843174124
0.5780705073352697,0.5780705073352697
1.1806889182450253,1.1806889182450253
2.2101934625401647,2.2101934625401647
3.4410736209941333,3.4410736209941333
4.199814699060734,4.199814699060734
3.8845525016135776,3.8845525016135776
2.567691743855839,2.567691743855839
0.8857905469487619,0.8857905469487619
-0.49367012082838807,-0.49367012082838807
-1.342917092898957,-1.342917092898957
-1.7690490105009746,-1.7690490105009746
-1.9319596197081175,-1.9319596197081175
-1.8708681412554389,-1.8708681412554389
-1.6151889906942285,-1.6151889906942285
-1.25844492516192,-1.25844492516192
-0.9643007696490232,-0.9643007696490232
-0.7998817288751474,-0.7998817288751474
-0.7169179927048432,-0.7169179927048432
-0.6467759248517678,-0.6467759248517678
-0.652809651118699,-0.652809651118699
-0.7998817288751474,-0.7998817288751474
-0.9824019484498169,-0.9824019484498169
-0.9522333171151608,-0.9522333171151608
-0.675436124619691,-0.675436124619691
-0.3910967742905574,-0.3910967742905574
-0.35414020090560366,-0.35414020090560366
-0.49367012082838807,-0.49367012082838807
-0.633954256534539,-0.633954256534539
-0.6973083823373167,-0.6973083823373167
-0.729739661022072,-0.729739661022072
-0.6973083823373167,-0.6973083823373167
-0.5819133674822572,-0.5819133674822572
-0.44238344755947273,-0.44238344755947273
-0.3390558852382756,-0.3390558852382756
-0.2387451860505441,-0.2387451860505441
-0.1753910602477663,-0.1753910602477663
-0.2387451860505441,-0.2387451860505441
-0.35941971138916845,-0.35941971138916845
-0.28927764353609303,-0.28927764353609303
-0.023793687791119403,-0.023793687791119403
0.11875309526513064,0.11875309526513064
-0.062258692742805925,-0.062258692742805925
-0.28927764353609303,-0.28927764353609303
-0.22441508616658243,-0.22441508616658243
0.06746642199621529,0.06746642199621529
0.23641075747028942,0.23641075747028942
0.170039768534046,0.170039768534046
0.053890537895620046,0.053890537895620046
0.06746642199621529,0.06746642199621529
0.13308319514909228,0.13308319514909228
0.11875309526513064,0.11875309526513064
0.025984553911063156,0.025984553911063156
-0.034352708758249036,-0.034352708758249036
-0.07734300841013397,-0.07734300841013397
-0.18745851278162873,-0.18745851278162873
-0.3352848063214436,-0.3352848063214436
-0.3405643168050084,-0.3405643168050084
-0.20103439688222396,-0.20103439688222396
-0.13617183951271336,-0.13617183951271336
-0.2832439172691618,-0.2832439172691618
-0.44238344755947273,-0.44238344755947273
-0.3910967742905574,-0.3910967742905574
-0.18745851278162873,-0.18745851278162873
-0.06075026117607312,-0.06075026117607312
-0.034352708758249036,-0.034352708758249036
0.016179748727299926,0.016179748727299926
0.11875309526513064,0.11875309526513064
0.15043015816651956,0.15043015816651956
0.11875309526513064,0.11875309526513064
0.19417467360177088,0.19417467360177088
0.475497160797439,0.475497160797439
0.7651160216101375,0.7651160216101375
0.7817087688441984,0.7817087688441984
0.49586098694833186,0.49586098694833186
0.22057222601959497,0.22057222601959497
0.2303770312033582,0.2303770312033582
0.42496470331189,0.42496470331189
0.417422545478226,0.417422545478226
0.06746642199621529,0.06746642199621529
-0.32774264848777956,-0.32774264848777956
-0.3910967742905574,-0.3910967742905574
-0.22516930194994883,-0.22516930194994883
-0.2387451860505441,-0.2387451860505441
-0.6007687620664173,-0.6007687620664173
-0.9522333171151608,-0.9522333171151608
-0.9514791013317944,-0.9514791013317944
-0.7485950556062321,-0.7485950556062321
-0.7795179027242546,-0.7795179027242546
-1.1053391211385404,-1.1053391211385404
-1.331603856148461,-1.331603856148461
-1.1566257944074558,-1.1566257944074558
-0.8111949656256435,-0.8111949656256435
-0.7485950556062321,-0.7485950556062321
-1.0993053948716092,-1.0993053948716092
-1.4628374024542152,-1.4628374024542152
-1.3353749350652933,-1.3353749350652933
-0.6467759248517678,-0.6467759248517678
0.13082054779899308,0.13082054779899308
0.6286029648208187,0.6286029648208187
1.1097926346085834,1.1097926346085834
2.0065552010312357,2.0065552010312357
2.915385219987751,2.915385219987751
2.822616678633683,2.822616678633683
1.4363680688062357,1.4363680688062357
-0.28927764353609303,-0.28927764353609303
-1.4070254344851014,-1.4070254344851014
-1.9726872720099031,-1.9726872720099031
-2.4380384103469734,-2.4380384103469734
-2.6869296188578864,-2.6869296188578864
-2.4123950737125157,-2.4123950737125157
-1.8708681412554389,-1.8708681412554389
-1.5940709487599691,-1.5940709487599691
-1.5646565332086795,-1.5646565332086795
-1.3866616083342085,-1.3866616083342085
-1.0548066636529914,-1.0548066636529914
-1.0412307795523963,-1.0412307795523963
-1.513369859939764,-1.513369859939764
-1.9907884508106968,-1.9907884508106968
-1.922154814524354,-1.922154814524354
-1.4168302396688646,-1.4168302396688646
-1.0548066636529914,-1.0548066636529914
-1.124948731506067,-1.124948731506067
-1.25844492516192,-1.25844492516192
-1.0653656846201212,-1.0653656846201212
-0.6973083823373167,-0.6973083823373167
-0.6543180826854318,-0.6543180826854318
-1.0035199903840761,-1.0035199903840761
-1.2931388511967745,-1.2931388511967745
-1.1566257944074558,-1.1566257944074558
-0.7991275130917811,-0.7991275130917811
-0.6467759248517678,-0.6467759248517678
-0.7387902504224688,-0.7387902504224688
-0.7485950556062321,-0.7485950556062321
-0.6128362146002797,-0.6128362146002797
-0.6467759248517678,-0.6467759248517678
-0.9401658645812982,-0.9401658645812982
-1.0548066636529914,-1.0548066636529914
-0.7093758348711792,-0.7093758348711792
-0.2387451860505441,-0.2387451860505441
-0.0562249664758747,-0.0562249664758747
-0.0856393820271644,-0.0856393820271644
-0.16407782349727024,-0.16407782349727024
-0.3910967742905574,-0.3910967742905574
-0.7025878928208815,-0.7025878928208815
-0.6467759248517678,-0.6467759248517678
-0.18821272856499513,-0.18821272856499513
0.016933964510666328,0.016933964510666328
-0.3926052058572902,-0.3926052058572902
-0.7998817288751474,-0.7998817288751474
-0.6218868040006765,-0.6218868040006765
-0.2387451860505441,-0.2387451860505441
-0.32020049065411554,-0.32020049065411554
-0.6973083823373167,-0.6973083823373167
-0.7425613293393009,-0.7425613293393009
-0.3910967742905574,-0.3910967742905574
-0.1753910602477663,-0.1753910602477663
-0.3405643168050084,-0.3405643168050084
-0.5947350357994861,-0.5947350357994861
-0.5954892515828524,-0.5954892515828524
-0.36394500608936686,-0.36394500608936686
-0.13617183951271336,-0.13617183951271336
-0.10826585552815647,-0.10826585552815647
-0.2387451860505441,-0.2387451860505441
-0.28550656461926105,-0.28550656461926105
-0.034352708758249036,-0.034352708758249036
0.3970587193273331,0.3970587193273331
0.679889638089734,0.679889638089734
0.6625426750723068,0.6625426750723068
0.5267838340663543,0.5267838340663543
0.4566417662132789,0.4566417662132789
0.42496470331189,0.42496470331189
0.33068773039108973,0.33068773039108973
0.22057222601959497,0.22057222601959497
0.15420123708335157,0.15420123708335157
0.06746642199621529,0.06746642199621529
-0.13843448686281257,-0.13843448686281257
-0.3910967742905574,-0.3910967742905574
-0.5811591516988908,-0.5811591516988908
-0.6973083823373167,-0.6973083823373167
-0.8323130075599028,-0.8323130075599028
-0.9522333171151608,-0.9522333171151608
-0.9997489114672441,-0.9997489114672441
-1.0035199903840761,-1.0035199903840761
-1.0570693110030907,-1.0570693110030907
-1.1566257944074558,-1.1566257944074558
-1.2546738462450882,-1.2546738462450882
-1.3097315984308355,-1.3097315984308355
-1.25844492516192,-1.25844492516192
-1.0548066636529914,-1.0548066636529914
-0.881337033478719,-0.881337033478719
-0.9522333171151608,-0.9522333171151608
-1.1053391211385404,-1.1053391211385404
-0.9017008596296118,-0.9017008596296118
-0.339810101021642,-0.339810101021642
0.170039768534046,0.170039768534046
0.6240776701206202,0.6240776701206202
1.5472377889610969,1.5472377889610969
2.833175699600813,2.833175699600813
3.3837532214582864,3.3837532214582864
2.428161823933055,2.428161823933055
0.6286029648208187,0.6286029648208187
-0.8572021284109941,-0.8572021284109941
-1.7177623372320592,-1.7177623372320592
-2.292474764157258,-2.292474764157258
-2.585110488103422,-2.585110488103422
-2.3505493794764707,-2.3505493794764707
-1.7690490105009746,-1.7690490105009746
-1.3715772926668806,-1.3715772926668806
-1.3097315984308355,-1.3097315984308355
-1.2765461039627137,-1.2765461039627137
-1.0548066636529914,-1.0548066636529914
-0.8330672233432692,-0.8330672233432692
-0.8504141863606964,-0.8504141863606964
-1.0306717585852665,-1.0306717585852665
-1.0548066636529914,-1.0548066636529914
-0.8081781024921779,-0.8081781024921779
-0.49367012082838807,-0.49367012082838807
-0.34810647463867245,-0.34810647463867245
-0.3405643168050084,-0.3405643168050084
-0.4009015794743206,-0.4009015794743206
-0.544202578313937,-0.544202578313937
-0.7410528977725681,-0.7410528977725681
-0.7485950556062321,-0.7485950556062321
-0.5087544364957162,-0.5087544364957162
-0.28927764353609303,-0.28927764353609303
-0.29154029088619227,-0.29154029088619227
-0.3405643168050084,-0.3405643168050084
-0.2757017594354978,-0.2757017594354978
-0.2387451860505441,-0.2387451860505441
-0.34810647463867245,-0.34810647463867245
-0.3910967742905574,-0.3910967742905574
-0.22894038086678084,-0.22894038086678084
-0.0856393820271644,-0.0856393820271644
-0.1821790022980639,-0.1821790022980639
-0.28927764353609303,-0.28927764353609303
-0.10902007131152287,-0.10902007131152287
0.22057222601959497,0.22057222601959497
0.2831721360390064,0.2831721360390064
0.016933964510666328,0.016933964510666328
-0.2394994018339105,-0.2394994018339105
-0.18745851278162873,-0.18745851278162873
0.0712375009130473,0.0712375009130473
0.2718588992885103,0.2718588992885103
0.2831721360390064,0.2831721360390064
0.22057222601959497,0.22057222601959497
0.20548791035226693,0.20548791035226693
0.22057222601959497,0.22057222601959497
0.12478682153206187,0.12478682153206187
-0.0856393820271644,-0.0856393820271644
-0.25609214906797134,-0.25609214906797134
-0.2387451860505441,-0.2387451860505441
-0.10751163974479007,-0.10751163974479007
-0.034352708758249036,-0.034352708758249036
-0.09091889251072921,-0.09091889251072921
-0.13617183951271336,-0.13617183951271336
-0.017759961524188184,-0.017759961524188184
0.2718588992885103,0.2718588992885103
0.5584608969677433,0.5584608969677433
0.7311763113586494,0.7311763113586494
0.854113484047373,0.854113484047373
1.0366337036220423,1.0366337036220423
1.1573082289606667,1.1573082289606667
1.0366337036220423,1.0366337036220423
0.788496710894496,0.788496710894496
0.7817087688441984,0.7817087688441984
1.0652939033899655,1.0652939033899655
1.2410261809143375,1.2410261809143375
0.9974144828869894,0.9974144828869894
0.5780705073352697,0.5780705073352697
0.3812201878766387,0.3812201878766387
0.42496470331189,0.42496470331189
0.40233822981089795,0.40233822981089795
0.22057222601959497,0.22057222601959497
0.03654357487819279,0.03654357487819279
-0.034352708758249036,-0.034352708758249036
-0.1195790922786525,-0.1195790922786525
-0.28927764353609303,-0.28927764353609303
-0.4604846263602664,-0.4604846263602664
-0.49367012082838807,-0.49367012082838807
-0.4227738371919463,-0.4227738371919463
-0.3910967742905574,-0.3910967742905574
-0.48914482612818966,-0.48914482612818966
-0.5954892515828524,-0.5954892515828524
-0.5351519889135402,-0.5351519889135402
-0.3405643168050084,-0.3405643168050084
-0.34961490620540525,-0.34961490620540525
-0.7485950556062321,-0.7485950556062321
-1.1747269732082495,-1.1747269732082495
-1.0035199903840761,-1.0035199903840761
-0.17237419711430066,-0.17237419711430066
0.7817087688441984,0.7817087688441984
1.491425820991983,1.491425820991983
2.2101934625401647,2.2101934625401647
3.11676083414658,3.11676083414658
3.740497286990595,3.740497286990595
3.4380567578606676,3.4380567578606676
2.2614801358090797,2.2614801358090797
0.8337496578964801,0.8337496578964801
-0.3405643168050084,-0.3405643168050084
-1.1679390311579518,-1.1679390311579518
-1.6664756639631437,-1.6664756639631437
-1.8595549045049429,-1.8595549045049429
-1.8195814679865234,-1.8195814679865234
-1.6619503692629454,-1.6619503692629454
-1.4115507291852998,-1.4115507291852998
-1.1038306895718075,-1.1038306895718075
-0.8504141863606964,-0.8504141863606964
-0.7787636869408882,-0.7787636869408882
-0.8504141863606964,-0.8504141863606964
-0.9296068436141687,-0.9296068436141687
-0.9017008596296118,-0.9017008596296118
-0.7749926080240562,-0.7749926080240562
-0.5954892515828524,-0.5954892515828524
-0.41975697405848067,-0.41975697405848067
-0.28927764353609303,-0.28927764353609303
-0.32321735378758115,-0.32321735378758115
-0.544202578313937,-0.544202578313937
-0.787814276341285,-0.787814276341285
-0.7485950556062321,-0.7485950556062321
-0.397884716340855,-0.397884716340855
-0.034352708758249036,-0.034352708758249036
0.033526711744727176,0.033526711744727176
-0.13617183951271336,-0.13617183951271336
-0.27796440678559703,-0.27796440678559703
-0.2387451860505441,-0.2387451860505441
-0.08865624516063,-0.08865624516063
0.06746642199621529,0.06746642199621529
0.1640060422671148,0.1640060422671148
0.170039768534046,0.170039768534046
0.0727459324797801,0.0727459324797801
-0.034352708758249036,-0.034352708758249036
-0.029073198274684218,-0.029073198274684218
0.11875309526513064,0.11875309526513064
0.2545119362710831,0.2545119362710831
0.22057222601959497,0.22057222601959497
0.02145925921086474,0.02145925921086474
-0.13617183951271336,-0.13617183951271336
-0.09619840299429402,-0.09619840299429402
0.11875309526513064,0.11875309526513064
0.3291792988243569,0.3291792988243569
0.42496470331189,0.42496470331189
0.4000755824607987,0.4000755824607987
0.3231455725574257,0.3231455725574257
0.21453849975266376,0.21453849975266376
0.11875309526513064,0.11875309526513064
0.09310975863067297,0.09310975863067297
0.170039768534046,0.170039768534046
0.21830957866949577,0.21830957866949577
0.11875309526513064,0.11875309526513064
-0.049437024425577084,-0.049437024425577084
-0.034352708758249036,-0.034352708758249036
0.1971915367352365,0.1971915367352365
0.42496470331189,0.42496470331189
0.48831882911466784,0.48831882911466784
0.5267838340663543,0.5267838340663543
0.6617884592889404,0.6617884592889404
0.7817087688441984,0.7817087688441984
0.749277490159443,0.749277490159443
0.7311763113586494,0.7311763113586494
0.9566868305852037,0.9566868305852037
1.3428453116688017,1.3428453116688017
1.5200860207599063,1.5200860207599063
1.3428453116688017,1.3428453116688017
1.0705734138735306,1.0705734138735306
1.0366337036220423,1.0366337036220423
1.174655191978094,1.174655191978094
1.139207050159873,1.139207050159873
0.7869882793277632,0.7869882793277632
0.42496470331189,0.42496470331189
0.3502973407586162,0.3502973407586162
0.475497160797439,0.475497160797439
0.43552372427901964,0.43552372427901964
0.11875309526513064,0.11875309526513064
-0.2862607804026274,-0.2862607804026274
-0.49367012082838807,-0.49367012082838807
-0.4114606004414502,-0.4114606004414502
-0.13617183951271336,-0.13617183951271336
0.0712375009130473,0.0712375009130473
0.016933964510666328,0.016933964510666328
-0.23195724400024645,-0.23195724400024645
-0.3910967742905574,-0.3910967742905574
-0.35263176933887086,-0.35263176933887086
-0.28927764353609303,-0.28927764353609303
-0.38883412694045816,-0.38883412694045816
-0.49367012082838807,-0.49367012082838807
-0.2990824487198563,-0.2990824487198563
0.2718588992885103,0.2718588992885103
0.9612121252854021,0.9612121252854021
1.5977702464466457,1.5977702464466457
2.332376419445522,2.332376419445522
3.3324665481893714,3.3324665481893714
4.208111072677764,4.208111072677764
4.199814699060734,4.199814699060734
2.990806798324391,2.990806798324391
1.189739507645422,1.189739507645422
-0.3043619592034211,-0.3043619592034211
-1.1053391211385404,-1.1053391211385404
-1.4281434764193606,-1.4281434764193606
-1.513369859939764,-1.513369859939764
-1.3919411188177733,-1.3919411188177733
-1.0548066636529914,-1.0548066636529914
-0.6837324982367214,-0.6837324982367214
-0.49367012082838807,-0.49367012082838807
-0.5585326781978986,-0.5585326781978986
-0.7485950556062321,-0.7485950556062321
-0.8896334070957493,-0.8896334070957493
-0.8504141863606964,-0.8504141863606964
-0.6309373934010734,-0.6309373934010734
-0.3405643168050084,-0.3405643168050084
-0.19273802326519354,-0.19273802326519354
-0.28927764353609303,-0.28927764353609303
-0.49367012082838807,-0.49367012082838807
-0.49367012082838807,-0.49367012082838807
-0.2523210701511393,-0.2523210701511393
-0.034352708758249036,-0.034352708758249036
-0.08337673467706519,-0.08337673467706519
-0.2387451860505441,-0.2387451860505441
-0.2183813598996512,-0.2183813598996512
0.016933964510666328,0.016933964510666328
0.24546134687068624,0.24546134687068624
0.3231455725574257,0.3231455725574257
0.27713840977207516,0.27713840977207516
0.22057222601959497,0.22057222601959497
0.19945418408533572,0.19945418408533572
0.22057222601959497,0.22057222601959497
0.24093605217048783,0.24093605217048783
0.22057222601959497,0.22057222601959497
0.13610005828255792,0.13610005828255792
0.06746642199621529,0.06746642199621529
0.12403260574869547,0.12403260574869547
0.3231455725574257,0.3231455725574257
0.4770055923641718,0.4770055923641718
0.42496470331189,0.42496470331189
0.24621556265405264,0.24621556265405264
0.22057222601959497,0.22057222601959497
0.40686352451109636,0.40686352451109636
0.5780705073352697,0.5780705073352697
0.5350802076833847,0.5350802076833847
0.42496470331189,0.42496470331189
0.43854058741248525,0.43854058741248525
0.5267838340663543,0.5267838340663543
0.4785140239309046,0.4785140239309046
0.3231455725574257,0.3231455725574257
0.2718588992885103,0.2718588992885103
0.42496470331189,0.42496470331189
0.5758078599851705,0.5758078599851705
0.5267838340663543,0.5267838340663543
0.3359672408746545,0.3359672408746545
0.2718588992885103,0.2718588992885103
0.4377863716291189,0.4377863716291189
0.679889638089734,0.679889638089734
0.7719039636604351,0.7719039636604351
0.7311763113586494,0.7311763113586494
0.7605907269099391,0.7605907269099391
0.9861012461364934,0.9861012461364934
1.2206623547634445,1.2206623547634445
1.2410261809143375,1.2410261809143375
1.1173347924422474,1.1173347924422474
1.139207050159873,1.139207050159873
1.2938212857499856,1.2938212857499856
1.2923128541832527,1.2923128541832527
1.0690649823067977,1.0690649823067977
0.9348145728675781,0.9348145728675781
0.9476362411848068,0.9476362411848068
0.7817087688441984,0.7817087688441984
0.37443224582634105,0.37443224582634105
0.22057222601959497,0.22057222601959497
0.4860561817645686,0.4860561817645686
0.6286029648208187,0.6286029648208187
0.22283487336969418,0.22283487336969418
-0.2387451860505441,-0.2387451860505441
-0.1738826286810335,-0.1738826286810335
0.170039768534046,0.170039768534046
0.13308319514909228,0.13308319514909228
-0.28927764353609303,-0.28927764353609303
-0.5751254254319595,-0.5751254254319595
-0.49367012082838807,-0.49367012082838807
-0.3330221589713444,-0.3330221589713444
-0.3405643168050084,-0.3405643168050084
-0.47179786311076244,-0.47179786311076244
-0.544202578313937,-0.544202578313937
-0.4627472737103656,-0.4627472737103656
-0.18745851278162873,-0.18745851278162873
0.24772399422078545,0.24772399422078545
0.8329954421131137,0.8329954421131137
1.5932449517464473,1.5932449517464473
2.5164050705869236,2.5164050705869236
3.327941253489173,3.327941253489173
3.5873914829672153,3.5873914829672153
2.9975947403746885,2.9975947403746885
1.7508760504700254,1.7508760504700254
0.3932876404105011,0.3932876404105011
-0.5954892515828524,-0.5954892515828524
-1.1800064836918143,-1.1800064836918143
-1.5646565332086795,-1.5646565332086795
-1.7894128366518673,-1.7894128366518673
-1.6664756639631437,-1.6664756639631437
-1.2365726674442945,-1.2365726674442945
-0.8504141863606964,-0.8504141863606964
-0.7493492713895985,-0.7493492713895985
-0.7485950556062321,-0.7485950556062321
-0.6324458249678061,-0.6324458249678061
-0.49367012082838807,-0.49367012082838807
-0.5238387521630442,-0.5238387521630442
-0.5954892515828524,-0.5954892515828524
-0.4604846263602664,-0.4604846263602664
-0.13617183951271336,-0.13617183951271336
0.056907401029085654,0.056907401029085654
-0.034352708758249036,-0.034352708758249036
-0.2689138173852002,-0.2689138173852002
-0.3910967742905574,-0.3910967742905574
-0.3956220689907558,-0.3956220689907558
-0.3910967742905574,-0.3910967742905574
-0.3865714795903589,-0.3865714795903589
-0.2387451860505441,-0.2387451860505441
0.009391806677002302,0.009391806677002302
0.11875309526513064,0.11875309526513064
0.007129159326903096,0.007129159326903096
-0.0856393820271644,-0.0856393820271644
-0.041894866591913056,-0.041894866591913056
-0.034352708758249036,-0.034352708758249036
-0.12335017119548451,-0.12335017119548451
-0.034352708758249036,-0.034352708758249036
0.27412154663860955,0.27412154663860955
0.42496470331189,0.42496470331189
0.2605456625380143,0.2605456625380143
0.22057222601959497,0.22057222601959497
0.5418681497336824,0.5418681497336824
0.7817087688441984,0.7817087688441984
0.54865609178398,0.54865609178398
0.22057222601959497,0.22057222601959497
0.2560203678378159,0.2560203678378159
0.475497160797439,0.475497160797439
0.4890730448980342,0.4890730448980342
0.42496470331189,0.42496470331189
0.5041573605653623,0.5041573605653623
0.5267838340663543,0.5267838340663543
0.2514950731376175,0.2514950731376175
-0.034352708758249036,-0.034352708758249036
-0.022285256224386596,-0.022285256224386596
0.11875309526513064,0.11875309526513064
0.09914348489760419,0.09914348489760419
0.06746642199621529,0.06746642199621529
0.20397947878553413,0.20397947878553413
0.3231455725574257,0.3231455725574257
0.228114383853259,0.228114383853259
0.170039768534046,0.170039768534046
0.3834828352267379,0.3834828352267379
0.679889638089734,0.679889638089734
0.7824629846275647,0.7824629846275647
0.8329954421131137,0.8329954421131137
1.0343710562719433,1.0343710562719433
1.2410261809143375,1.2410261809143375
1.197281665479086,1.197281665479086
1.0366337036220423,1.0366337036220423
1.0464385088058057,1.0464385088058057
1.2410261809143375,1.2410261809143375
1.3896066902375186,1.3896066902375186
1.3941319849377172,1.3941319849377172
1.27194902803236,1.27194902803236
1.0366337036220423,1.0366337036220423
0.7251425850917181,0.7251425850917181
0.475497160797439,0.475497160797439
0.30655282532336486,0.30655282532336486
0.11875309526513064,0.11875309526513064
-0.11128271866162208,-0.11128271866162208
-0.18745851278162873,-0.18745851278162873
-0.08413095046043159,-0.08413095046043159
-0.034352708758249036,-0.034352708758249036
-0.23195724400024645,-0.23195724400024645
-0.49367012082838807,-0.49367012082838807
-0.5185592416794794,-0.5185592416794794
-0.28927764353609303,-0.28927764353609303
-0.1165622291451869,-0.1165622291451869
-0.18745851278162873,-0.18745851278162873
-0.3413185325883748,-0.3413185325883748
-0.3405643168050084,-0.3405643168050084
-0.3345305905380772,-0.3345305905380772
-0.5954892515828524,-0.5954892515828524
-0.9213104699971383,-0.9213104699971383
-0.6973083823373167,-0.6973083823373167
0.19266624203503807,0.19266624203503807
1.2410261809143375,1.2410261809143375
2.1702200260217452,2.1702200260217452
3.230647417434907,3.230647417434907
4.150790673141918,4.150790673141918
3.8936030910139747,3.8936030910139747
2.066892463700548,2.066892463700548
-0.13617183951271336,-0.13617183951271336
-1.3338665034985604,-1.3338665034985604
-1.513369859939764,-1.513369859939764
-1.5382589807908553,-1.5382589807908553
-1.6664756639631437,-1.6664756639631437
-1.5699360436922443,-1.5699360436922443
-1.207912467676371,-1.207912467676371
-0.9198020384304054,-0.9198020384304054
-0.7998817288751474,-0.7998817288751474
-0.7078674033044464,-0.7078674033044464
-0.6467759248517678,-0.6467759248517678
-0.7350191715056369,-0.7350191715056369
-0.8504141863606964,-0.8504141863606964
-0.7659420186236594,-0.7659420186236594
-0.49367012082838807,-0.49367012082838807
-0.32925108005451237,-0.32925108005451237
-0.44238344755947273,-0.44238344755947273
-0.6905204402870191,-0.6905204402870191
-0.7485950556062321,-0.7485950556062321
-0.5374146362636394,-0.5374146362636394
-0.2387451860505441,-0.2387451860505441
-0.09921526612775965,-0.09921526612775965
-0.13617183951271336,-0.13617183951271336
-0.2696680331685666,-0.2696680331685666
-0.44238344755947273,-0.44238344755947273
-0.5969976831495852,-0.5969976831495852
-0.5954892515828524,-0.5954892515828524
-0.3956220689907558,-0.3956220689907558
-0.13617183951271336,-0.13617183951271336
0.007883375110269498,0.007883375110269498
0.06746642199621529,0.06746642199621529
0.1670229054005804,0.1670229054005804
0.3231455725574257,0.3231455725574257
0.3925334246271347,0.3925334246271347
0.3231455725574257,0.3231455725574257
0.2333938943368238,0.2333938943368238
0.2718588992885103,0.2718588992885103
0.3578394985922802,0.3578394985922802
0.3231455725574257,0.3231455725574257
0.170039768534046,0.170039768534046
0.11875309526513064,0.11875309526513064
0.21755536288612937,0.21755536288612937
0.2718588992885103,0.2718588992885103
0.15344702129998516,0.15344702129998516
0.06746642199621529,0.06746642199621529
0.18814094733483966,0.18814094733483966
0.3736780300429747,0.3736780300429747
0.3540684196754482,0.3540684196754482
0.170039768534046,0.170039768534046
0.045594164278589616,0.045594164278589616
0.06746642199621529,0.06746642199621529
0.1014061322477034,0.1014061322477034
0.06746642199621529,0.06746642199621529
-0.005692508990325745,-0.005692508990325745
-0.034352708758249036,-0.034352708758249036
0.041823085361757606,0.041823085361757606
0.2718588992885103,0.2718588992885103
0.5675114863681401,0.5675114863681401
0.7817087688441984,0.7817087688441984
0.8676893681479683,0.8676893681479683
0.9348145728675781,0.9348145728675781
0.9921349724034246,0.9921349724034246
0.9348145728675781,0.9348145728675781
0.7832172004109311,0.7832172004109311
0.7817087688441984,0.7817087688441984
0.9936434039701574,0.9936434039701574
1.139207050159873,1.139207050159873
0.9514073201016389,0.9514073201016389
0.5780705073352697,0.5780705073352697
0.31183233580692965,0.31183233580692965
0.22057222601959497,0.22057222601959497
0.15721810021681717,0.15721810021681717
0.06746642199621529,0.06746642199621529
-0.062258692742805925,-0.062258692742805925
-0.2387451860505441,-0.2387451860505441
-0.4144774635749158,-0.4144774635749158
-0.44238344755947273,-0.44238344755947273
-0.4114606004414502,-0.4114606004414502
-0.5954892515828524,-0.5954892515828524
-1.0057826377341752,-1.0057826377341752
-1.207912467676371,-1.207912467676371
-0.9597754749488248,-0.9597754749488248
-0.5954892515828524,-0.5954892515828524
-0.5472194414474026,-0.5472194414474026
-0.7485950556062321,-0.7485950556062321
-0.9122598805967415,-0.9122598805967415
-0.9522333171151608,-0.9522333171151608
-0.8873707597456502,-0.8873707597456502
-0.5954892515828524,-0.5954892515828524
-0.09393575564419482,-0.09393575564419482
0.42496470331189,0.42496470331189
1.0026939933705543,1.0026939933705543
1.9552685277623205,1.9552685277623205
3.076787397628161,3.076787397628161
3.485572352212751,3.485572352212751
2.668756658826937,2.668756658826937
1.2410261809143375,1.2410261809143375
0.08179652188017693,0.08179652188017693
-0.6973083823373167,-0.6973083823373167
-1.4801843654716424,-1.4801843654716424
-2.227612206787747,-2.227612206787747
-2.549662346285201,-2.549662346285201
-2.330185553325578,-2.330185553325578
-1.8535211782380117,-1.8535211782380117
-1.4115507291852998,-1.4115507291852998
-1.2018787414094398,-1.2018787414094398
-1.3097315984308355,-1.3097315984308355
-1.5661649647754123,-1.5661649647754123
-1.5646565332086795,-1.5646565332086795
-1.1860402099587455,-1.1860402099587455
-0.7998817288751474,-0.7998817288751474
-0.7953564341749491,-0.7953564341749491
-1.0548066636529914,-1.0548066636529914
-1.198107662492608,-1.198107662492608
-1.0548066636529914,-1.0548066636529914
-0.776501039590789,-0.776501039590789
-0.49367012082838807,-0.49367012082838807
-0.26589695425173454,-0.26589695425173454
-0.13617183951271336,-0.13617183951271336
-0.1791621391645983,-0.1791621391645983
-0.3405643168050084,-0.3405643168050084
-0.47858580516106003,-0.47858580516106003
-0.49367012082838807,-0.49367012082838807
-0.40768952152461824,-0.40768952152461824
-0.28927764353609303,-0.28927764353609303
-0.19801753374875836,-0.19801753374875836
-0.13617183951271336,-0.13617183951271336
-0.07357192949330196,-0.07357192949330196
-0.034352708758249036,-0.034352708758249036
-0.20555969158242238,-0.20555969158242238
-0.6467759248517678,-0.6467759248517678
-0.99220675363358,-0.99220675363358
-0.7485950556062321,-0.7485950556062321
-0.0562249664758747,-0.0562249664758747
0.3736780300429747,0.3736780300429747
0.18889516311820606,0.18889516311820606
-0.13617183951271336,-0.13617183951271336
-0.13240076059588135,-0.13240076059588135
0.016933964510666328,0.016933964510666328
-0.041140650808546654,-0.041140650808546654
-0.13617183951271336,-0.13617183951271336
-0.027564766707951414,-0.027564766707951414
0.06746642199621529,0.06746642199621529
-0.1806705707313311,-0.1806705707313311
-0.544202578313937,-0.544202578313937
-0.5841760148323564,-0.5841760148323564
-0.28927764353609303,-0.28927764353609303
-0.05924182960934032,-0.05924182960934032
-0.0856393820271644,-0.0856393820271644
-0.2440246965341089,-0.2440246965341089
-0.3405643168050084,-0.3405643168050084
-0.3081330381202531,-0.3081330381202531
-0.13617183951271336,-0.13617183951271336
0.0712375009130473,0.0712375009130473
0.11875309526513064,0.11875309526513064
-0.10826585552815647,-0.10826585552815647
-0.3910967742905574,-0.3910967742905574
-0.3337763747547108,-0.3337763747547108
0.22057222601959497,0.22057222601959497
0.8888074100822275,0.8888074100822275
1.139207050159873,1.139207050159873
0.9061543730996547,0.9061543730996547
0.679889638089734,0.679889638089734
0.8216822053626177,0.8216822053626177
1.139207050159873,1.139207050159873
1.221416570546811,1.221416570546811
1.0366337036220423,1.0366337036220423
0.8510966209139074,0.8510966209139074
0.7817087688441984,0.7817087688441984
0.6165355122869562,0.6165355122869562
0.22057222601959497,0.22057222601959497
-0.26137165955153613,-0.26137165955153613
-0.544202578313937,-0.544202578313937
-0.6166072935171116,-0.6166072935171116
-0.6467759248517678,-0.6467759248517678
-0.7154095611381104,-0.7154095611381104
-0.6973083823373167,-0.6973083823373167
-0.5645664044648299,-0.5645664044648299
-0.49367012082838807,-0.49367012082838807
-0.6286747460509741,-0.6286747460509741
-0.8504141863606964,-0.8504141863606964
-0.9884356747167481,-0.9884356747167481
-1.0548066636529914,-1.0548066636529914
-1.1679390311579518,-1.1679390311579518
-1.207912467676371,-1.207912467676371
-0.8783201703452533,-0.8783201703452533
-0.0856393820271644,-0.0856393820271644
0.8412918157301441,0.8412918157301441
1.5977702464466457,1.5977702464466457
2.330867987878789,2.330867987878789
3.3324665481893714,3.3324665481893714
4.196797835927268,4.196797835927268
3.9954222217684388,3.9954222217684388
2.454559376350879,2.454559376350879
0.475497160797439,0.475497160797439
-0.9597754749488248,-0.9597754749488248
-1.7690490105009746,-1.7690490105009746
-2.309067511391319,-2.309067511391319
-2.5338238148345065,-2.5338238148345065
-2.2970000588574564,-2.2970000588574564
-1.8708681412554389,-1.8708681412554389
-1.6061384012938316,-1.6061384012938316
-1.4115507291852998,-1.4115507291852998
-1.1898112888755774,-1.1898112888755774
-1.207912467676371,-1.207912467676371
-1.5789866330926412,-1.5789866330926412
-1.7690490105009746,-1.7690490105009746
-1.2908762038466755,-1.2908762038466755
-0.49367012082838807,-0.49367012082838807
-0.18972116013172793,-0.18972116013172793
-0.5954892515828524,-0.5954892515828524
-1.2033871729761727,-1.2033871729761727
-1.4115507291852998,-1.4115507291852998
-1.1113728474054716,-1.1113728474054716
-0.544202578313937,-0.544202578313937
-0.08186830311033239,-0.08186830311033239
0.06746642199621529,0.06746642199621529
-0.07508036106003477,-0.07508036106003477
-0.28927764353609303,-0.28927764353609303
-0.3760124586232293,-0.3760124586232293
-0.28927764353609303,-0.28927764353609303
-0.13164654481251495,-0.13164654481251495
-0.034352708758249036,-0.034352708758249036
-0.08111408732696598,-0.08111408732696598
-0.2387451860505441,-0.2387451860505441
-0.38958834272382453,-0.38958834272382453
-0.3910967742905574,-0.3910967742905574
-0.2093307704992544,-0.2093307704992544
0.06746642199621529,0.06746642199621529
0.27110468350514394,0.27110468350514394
0.3231455725574257,0.3231455725574257
0.25526615205444947,0.25526615205444947
0.170039768534046,0.170039768534046
0.09612662176413858,0.09612662176413858
0.016933964510666328,0.016933964510666328
-0.09468997142756122,-0.09468997142756122
-0.18745851278162873,-0.18745851278162873
-0.2100849862826208,-0.2100849862826208
-0.18745851278162873,-0.18745851278162873
-0.2975740171531235,-0.2975740171531235
-0.5954892515828524,-0.5954892515828524
-0.838346733826834,-0.838346733826834
-0.6973083823373167,-0.6973083823373167
-0.2960655855863907,-0.2960655855863907
-0.0856393820271644,-0.0856393820271644
-0.2093307704992544,-0.2093307704992544
-0.2387451860505441,-0.2387451860505441
0.12629525309879466,0.12629525309879466
0.5780705073352697,0.5780705073352697
0.65349208567191,0.65349208567191
0.42496470331189,0.42496470331189
0.28166370447227357,0.28166370447227357
0.3736780300429747,0.3736780300429747
0.5320633445499191,0.5320633445499191
0.679889638089734,0.679889638089734
0.8548676998307394,0.8548676998307394
1.0366337036220423,1.0366337036220423
1.1173347924422474,1.1173347924422474
1.0879203768909578,1.0879203768909578
0.985347030353127,0.985347030353127
0.8329954421131137,0.8329954421131137
0.6753643433895357,0.6753643433895357
0.6286029648208187,0.6286029648208187
0.6866775801400317,0.6866775801400317
0.679889638089734,0.679889638089734
0.47248029766397337,0.47248029766397337
0.170039768534046,0.170039768534046
-0.09468997142756122,-0.09468997142756122
-0.28927764353609303,-0.28927764353609303
-0.45143403695986956,-0.45143403695986956
-0.49367012082838807,-0.49367012082838807
-0.405426874174519,-0.405426874174519
-0.28927764353609303,-0.28927764353609303
-0.25910901220143695,-0.25910901220143695
-0.28927764353609303,-0.28927764353609303
-0.3616823587392677,-0.3616823587392677
-0.49367012082838807,-0.49367012082838807
-0.6083109199000812,-0.6083109199000812
-0.544202578313937,-0.544202578313937
-0.3805377533234277,-0.3805377533234277
-0.3910967742905574,-0.3910967742905574
-0.6475301406351341,-0.6475301406351341
-0.7485950556062321,-0.7485950556062321
-0.3036077434200547,-0.3036077434200547
0.5780705073352697,0.5780705073352697
1.397903063854549,1.397903063854549
2.0065552010312357,2.0065552010312357
2.7856601052487293,2.7856601052487293
3.94488976428289,3.94488976428289
4.726257315850483,4.726257315850483
4.046708895037354,4.046708895037354
1.9024734229266722,1.9024734229266722
-0.3910967742905574,-0.3910967742905574
-1.7313382213326545,-1.7313382213326545
-2.227612206787747,-2.227612206787747
-2.429742036729943,-2.429742036729943
-2.2788988800566625,-2.2788988800566625
-1.6008588908102668,-1.6008588908102668
-0.8504141863606964,-0.8504141863606964
-0.6309373934010734,-0.6309373934010734
-0.7998817288751474,-0.7998817288751474
-0.8451346758771316,-0.8451346758771316
-0.6973083823373167,-0.6973083823373167
-0.6475301406351341,-0.6475301406351341
-0.6973083823373167,-0.6973083823373167
-0.671665045702859,-0.671665045702859
-0.5954892515828524,-0.5954892515828524
-0.6045398409832492,-0.6045398409832492
-0.5954892515828524,-0.5954892515828524
-0.48386531564462487,-0.48386531564462487
-0.3910967742905574,-0.3910967742905574
-0.45294246852660236,-0.45294246852660236
-0.49367012082838807,-0.49367012082838807
-0.38280040067352694,-0.38280040067352694
-0.2387451860505441,-0.2387451860505441
-0.22139822303311682,-0.22139822303311682
-0.2387451860505441,-0.2387451860505441
-0.1784079233812319,-0.1784079233812319
-0.13617183951271336,-0.13617183951271336
-0.22516930194994883,-0.22516930194994883
-0.28927764353609303,-0.28927764353609303
-0.13541762372934696,-0.13541762372934696
0.170039768534046,0.170039768534046
0.355576851242181,0.355576851242181
0.3231455725574257,0.3231455725574257
0.18889516311820606,0.18889516311820606
0.11875309526513064,0.11875309526513064
0.13987113719938993,0.13987113719938993
0.22057222601959497,0.22057222601959497
0.30579860953999843,0.30579860953999843
0.3736780300429747,0.3736780300429747
0.40535509294436356,0.40535509294436356
0.42496470331189,0.42496470331189
0.4438200978960501,0.4438200978960501
0.475497160797439,0.475497160797439
0.4777598081475382,0.4777598081475382
0.42496470331189,0.42496470331189
0.31786606207386087,0.31786606207386087
0.22057222601959497,0.22057222601959497
0.14288800033285554,0.14288800033285554
0.06746642199621529,0.06746642199621529
-0.01700574574082178,-0.01700574574082178
-0.034352708758249036,-0.034352708758249036
0.05615318524571925,0.05615318524571925
0.22057222601959497,0.22057222601959497
0.3525599881087154,0.3525599881087154
0.42496470331189,0.42496470331189
0.4656923556136757,0.4656923556136757
0.5267838340663543,0.5267838340663543
0.599188549269529,0.599188549269529
0.679889638089734,0.679889638089734
0.7703955320937023,0.7703955320937023
0.884282115382029,0.884282115382029
0.981575951436295,0.981575951436295
1.0366337036220423,1.0366337036220423
1.0645396876065993,1.0645396876065993
1.139207050159873,1.139207050159873
1.2598815754984976,1.2598815754984976
1.3428453116688017,1.3428453116688017
1.2779827542992912,1.2779827542992912
1.0879203768909578,1.0879203768909578
0.8782483891150978,0.8782483891150978
0.7311763113586494,0.7311763113586494
0.6006969808362618,0.6006969808362618
0.42496470331189,0.42496470331189
0.18361565263464125,0.18361565263464125
-0.034352708758249036,-0.034352708758249036
-0.1768994918144991,-0.1768994918144991
-0.2387451860505441,-0.2387451860505441
-0.32774264848777956,-0.32774264848777956
-0.49367012082838807,-0.49367012082838807
-0.652809651118699,-0.652809651118699
-0.6467759248517678,-0.6467759248517678
-0.4883906103448233,-0.4883906103448233
-0.3405643168050084,-0.3405643168050084
-0.29681980136975705,-0.29681980136975705
-0.28927764353609303,-0.28927764353609303
-0.32698843270441313,-0.32698843270441313
-0.49367012082838807,-0.49367012082838807
-0.7063589717377136,-0.7063589717377136
-0.6467759248517678,-0.6467759248517678
-0.19952596531549116,-0.19952596531549116
0.42496470331189,0.42496470331189
1.054734882422836,1.054734882422836
1.853449397007856,1.853449397007856
2.858064820451904,2.858064820451904
3.5873914829672153,3.5873914829672153
3.375456847841256,3.375456847841256
2.1589067892712492,2.1589067892712492
0.563740407451308,0.563740407451308
-0.6973083823373167,-0.6973083823373167
-1.417584455452231,-1.417584455452231
-1.7690490105009746,-1.7690490105009746
-1.9002825568067285,-1.9002825568067285
-1.7690490105009746,-1.7690490105009746
-1.4115507291852998,-1.4115507291852998
-1.0548066636529914,-1.0548066636529914
-0.9099972332466422,-0.9099972332466422
-0.9017008596296118,-0.9017008596296118
-0.842117812743666,-0.842117812743666
-0.6973083823373167,-0.6973083823373167
-0.6143446461670125,-0.6143446461670125
-0.6467759248517678,-0.6467759248517678
-0.7101300506545456,-0.7101300506545456
-0.6973083823373167,-0.6973083823373167
-0.6120819988169133,-0.6120819988169133
-0.49367012082838807,-0.49367012082838807
-0.41372324779154945,-0.41372324779154945
-0.3910967742905574,-0.3910967742905574
-0.42805334767551106,-0.42805334767551106
-0.44238344755947273,-0.44238344755947273
-0.3926052058572902,-0.3926052058572902
-0.28927764353609303,-0.28927764353609303
-0.20631390736578878,-0.20631390736578878
-0.18745851278162873,-0.18745851278162873
-0.23120302821688005,-0.23120302821688005
-0.28927764353609303,-0.28927764353609303
-0.3345305905380772,-0.3345305905380772
-0.3405643168050084,-0.3405643168050084
-0.2945571540196579,-0.2945571540196579
-0.18745851278162873,-0.18745851278162873
-0.06376712430953872,-0.06376712430953872
0.016933964510666328,0.016933964510666328
0.007129159326903096,0.007129159326903096
-0.034352708758249036,-0.034352708758249036
-0.007955156340424952,-0.007955156340424952
0.11875309526513064,0.11875309526513064
0.19115781046830527,0.19115781046830527
0.06746642199621529,0.06746642199621529
-0.16483203928063664,-0.16483203928063664
-0.2387451860505441,-0.2387451860505441
-0.1188248764952861,-0.1188248764952861
-0.034352708758249036,-0.034352708758249036
-0.1210875238453853,-0.1210875238453853
-0.18745851278162873,-0.18745851278162873
-0.10298634504459166,-0.10298634504459166
-0.034352708758249036,-0.034352708758249036
-0.1814247865146975,-0.1814247865146975
-0.3910967742905574,-0.3910967742905574
-0.4242822687586791,-0.4242822687586791
-0.28927764353609303,-0.28927764353609303
-0.1806705707313311,-0.1806705707313311
-0.13617183951271336,-0.13617183951271336
-0.10449477661132446,-0.10449477661132446
-0.0856393820271644,-0.0856393820271644
-0.09695261877766044,-0.09695261877766044
-0.034352708758249036,-0.034352708758249036
0.14515064768295474,0.14515064768295474
0.3231455725574257,0.3231455725574257
0.3872539141435699,0.3872539141435699
0.42496470331189,0.42496470331189
0.5116995183990263,0.5116995183990263
0.5780705073352697,0.5780705073352697
0.5494103075673464,0.5494103075673464
0.5267838340663543,0.5267838340663543
0.5720367810683384,0.5720367810683384
0.5780705073352697,0.5780705073352697
0.43024421379545486,0.43024421379545486
0.22057222601959497,0.22057222601959497
0.05917004837918486,0.05917004837918486
-0.0856393820271644,-0.0856393820271644
-0.2681596016018338,-0.2681596016018338
-0.3910967742905574,-0.3910967742905574
-0.4257907003254119,-0.4257907003254119
-0.49367012082838807,-0.49367012082838807
-0.7025878928208815,-0.7025878928208815
-0.9017008596296118,-0.9017008596296118
-0.9560043960319927,-0.9560043960319927
-0.9522333171151608,-0.9522333171151608
-1.0246380323183353,-1.0246380323183353
-1.1053391211385404,-1.1053391211385404
-1.112127063188838,-1.112127063188838
-1.1053391211385404,-1.1053391211385404
-1.130982457772998,-1.130982457772998
-1.1053391211385404,-1.1053391211385404
-1.1023222580050749,-1.1023222580050749
-1.3097315984308355,-1.3097315984308355
-1.584266143576206,-1.584266143576206
-1.4115507291852998,-1.4115507291852998
-0.649038572201867,-0.649038572201867
0.2718588992885103,0.2718588992885103
1.0615228244731336,1.0615228244731336
1.9552685277623205,1.9552685277623205
2.902563551670522,2.902563551670522
3.1288282866804424,3.1288282866804424
2.0510539322498538,2.0510539322498538
0.22057222601959497,0.22057222601959497
-1.3119942457809346,-1.3119942457809346
-2.125793076033283,-2.125793076033283
-2.4832913573489575,-2.4832913573489575
-2.585110488103422,-2.585110488103422
-2.4139035052792486,-2.4139035052792486
-2.0745064027643676,-2.0745064027643676
-1.8346657836538516,-1.8346657836538516
-1.7690490105009746,-1.7690490105009746
-1.732092437116021,-1.732092437116021
-1.615943206477595,-1.615943206477595
-1.509598781022932,-1.509598781022932
-1.513369859939764,-1.513369859939764
-1.5797408488760076,-1.5797408488760076
-1.5646565332086795,-1.5646565332086795
-1.46811691293778,-1.46811691293778
-1.4115507291852998,-1.4115507291852998
-1.4409651447365894,-1.4409651447365894
-1.4115507291852998,-1.4115507291852998
-1.2878593407132097,-1.2878593407132097
-1.207912467676371,-1.207912467676371
-1.2705123776957825,-1.2705123776957825
-1.3097315984308355,-1.3097315984308355
-1.2086666834597375,-1.2086666834597375
-1.1053391211385404,-1.1053391211385404
-1.1483294207904253,-1.1483294207904253
-1.207912467676371,-1.207912467676371
-1.1023222580050749,-1.1023222580050749
-0.9017008596296118,-0.9017008596296118
-0.7991275130917811,-0.7991275130917811
-0.7998817288751474,-0.7998817288751474
-0.7900769236913843,-0.7900769236913843
-0.7485950556062321,-0.7485950556062321
-0.7252143663218736,-0.7252143663218736
-0.6973083823373167,-0.6973083823373167
-0.6513012195519662,-0.6513012195519662
-0.6467759248517678,-0.6467759248517678
-0.7116384822212783,-0.7116384822212783
-0.7485950556062321,-0.7485950556062321
-0.7154095611381104,-0.7154095611381104
-0.6973083823373167,-0.6973083823373167
-0.7440697609060337,-0.7440697609060337
-0.7485950556062321,-0.7485950556062321
-0.6875035771535535,-0.6875035771535535
-0.6973083823373167,-0.6973083823373167
-0.8466431074438644,-0.8466431074438644
-0.9522333171151608,-0.9522333171151608
-0.8768117387785205,-0.8768117387785205
-0.7485950556062321,-0.7485950556062321
-0.7832889816410866,-0.7832889816410866
-0.9522333171151608,-0.9522333171151608
-1.0849752949876477,-1.0849752949876477
-1.1053391211385404,-1.1053391211385404
-1.0751704898038843,-1.0751704898038843
-1.0035199903840761,-1.0035199903840761
-0.8677611493781237,-0.8677611493781237
-0.6973083823373167,-0.6973083823373167
-0.587192877965822,-0.587192877965822
-0.544202578313937,-0.544202578313937
-0.4853737472113577,-0.4853737472113577
-0.3405643168050084,-0.3405643168050084
-0.16030674458043823,-0.16030674458043823
-0.034352708758249036,-0.034352708758249036
0.018442396077399132,0.018442396077399132
0.06746642199621529,0.06746642199621529
0.12554103731542826,0.12554103731542826
0.11875309526513064,0.11875309526513064
-0.01021780369052416,-0.01021780369052416
-0.18745851278162873,-0.18745851278162873
-0.3134125486038179,-0.3134125486038179
-0.3910967742905574,-0.3910967742905574
-0.5132797311959145,-0.5132797311959145
-0.6973083823373167,-0.6973083823373167
-0.8835996808288181,-0.8835996808288181
-1.0035199903840761,-1.0035199903840761
-1.09704274752151,-1.09704274752151
-1.207912467676371,-1.207912467676371
-1.3640351348332165,-1.3640351348332165
-1.513369859939764,-1.513369859939764
-1.6166974222609611,-1.6166974222609611
-1.6664756639631437,-1.6664756639631437
-1.6868394901140367,-1.6868394901140367
-1.6664756639631437,-1.6664756639631437
-1.5933167329766027,-1.5933167329766027
-1.513369859939764,-1.513369859939764
-1.5276999598237258,-1.5276999598237258
-1.6664756639631437,-1.6664756639631437
-1.8452248046209812,-1.8452248046209812
-1.8708681412554389,-1.8708681412554389
-1.563902317425313,-1.563902317425313
-0.9017008596296118,-0.9017008596296118
-0.09770683456102684,-0.09770683456102684
0.679889638089734,0.679889638089734
1.5638305361951577,1.5638305361951577
2.6695108746103036,2.6695108746103036
3.457666368228194,3.457666368228194
3.026254940142612,3.026254940142612
1.2349924546474063,1.2349924546474063
-0.9017008596296118,-0.9017008596296118
-2.3256602586253794,-2.3256602586253794
-2.9418545536357303,-2.9418545536357303
-3.2088469409474367,-3.2088469409474367
-3.2480661616824897,-3.2480661616824897
-2.943362985202463,-2.943362985202463
-2.4832913573489575,-2.4832913573489575
-2.2396796593216095,-2.2396796593216095
-2.227612206787747,-2.227612206787747
-2.185376122919229,-2.185376122919229
-2.0239739452788186,-2.0239739452788186
-1.8965114778898966,-1.8965114778898966
-1.8708681412554389,-1.8708681412554389
-1.8670970623386067,-1.8670970623386067
-1.8195814679865234,-1.8195814679865234
-1.7494394001334481,-1.7494394001334481
-1.6664756639631437,-1.6664756639631437
-1.6091552644272973,-1.6091552644272973
-1.615943206477595,-1.615943206477595
-1.702678021564731,-1.702678021564731
-1.7690490105009746,-1.7690490105009746
-1.7411430265164176,-1.7411430265164176
-1.615943206477595,-1.615943206477595
-1.4537868130538183,-1.4537868130538183
-1.3097315984308355,-1.3097315984308355
-1.2335558043108288,-1.2335558043108288
-1.25844492516192,-1.25844492516192
-1.340654445548858,-1.340654445548858
-1.3610182716997508,-1.3610182716997508
-1.259953356728653,-1.259953356728653
-1.1053391211385404,-1.1053391211385404
-1.0110621482177402,-1.0110621482177402
-1.0035199903840761,-1.0035199903840761
-1.0367054848521977,-1.0367054848521977
-1.0548066636529914,-1.0548066636529914
-1.0269006796684346,-1.0269006796684346
-0.9522333171151608,-0.9522333171151608
-0.9009466438462453,-0.9009466438462453
-0.9522333171151608,-0.9522333171151608
-1.0887463739044796,-1.0887463739044796
-1.1566257944074558,-1.1566257944074558
-1.0525440163028923,-1.0525440163028923
-0.8504141863606964,-0.8504141863606964
-0.7418071135559344,-0.7418071135559344
-0.7998817288751474,-0.7998817288751474
-0.9198020384304054,-0.9198020384304054
-0.9522333171151608,-0.9522333171151608
-0.9099972332466422,-0.9099972332466422
-0.9017008596296118,-0.9017008596296118
-0.9778766537496184,-0.9778766537496184
-1.0548066636529914,-1.0548066636529914
-1.0834668634209148,-1.0834668634209148
-1.1053391211385404,-1.1053391211385404
-1.1453125576569598,-1.1453125576569598
-1.1053391211385404,-1.1053391211385404
-0.9265899804807031,-0.9265899804807031
-0.6973083823373167,-0.6973083823373167
-0.5698459149483948,-0.5698459149483948
-0.544202578313937,-0.544202578313937
-0.4951785523951209,-0.4951785523951209
-0.3405643168050084,-0.3405643168050084
-0.15578144988023981,-0.15578144988023981
-0.034352708758249036,-0.034352708758249036
0.03503514331145999,0.03503514331145999
0.11875309526513064,0.11875309526513064
0.1640060422671148,0.1640060422671148
0.06746642199621529,0.06746642199621529
-0.13240076059588135,-0.13240076059588135
-0.2387451860505441,-0.2387451860505441
-0.19349223904855994,-0.19349223904855994
-0.18745851278162873,-0.18745851278162873
-0.3963762847741222,-0.3963762847741222
-0.6973083823373167,-0.6973083823373167
-0.8888791913123829,-0.8888791913123829
-0.9522333171151608,-0.9522333171151608
-1.0517898005195259,-1.0517898005195259
-1.207912467676371,-1.207912467676371
-1.3270785614482628,-1.3270785614482628
-1.3610182716997508,-1.3610182716997508
-1.3738399400169796,-1.3738399400169796
-1.4115507291852998,-1.4115507291852998
-1.4726422076379784,-1.4726422076379784
-1.513369859939764,-1.513369859939764
-1.460574755104116,-1.460574755104116
-1.3097315984308355,-1.3097315984308355
-1.2840882617963778,-1.2840882617963778
-1.5646565332086795,-1.5646565332086795
-1.8927403989730645,-1.8927403989730645
-1.7177623372320592,-1.7177623372320592
-0.9431827277147639,-0.9431827277147639
-0.034352708758249036,-0.034352708758249036
0.7002534642406268,0.7002534642406268
1.4959511156921814,1.4959511156921814
2.4319329028498866,2.4319329028498866
2.9244358093881475,2.9244358093881475
2.3504775982463153,2.3504775982463153
0.9348145728675781,0.9348145728675781
-0.514033946979281,-0.514033946979281
-1.513369859939764,-1.513369859939764
-2.195180928102992,-2.195180928102992
-2.7382162921268014,-2.7382162921268014
-3.002946032088409,-3.002946032088409
-2.7887487496123504,-2.7887487496123504
-2.2464676013719074,-2.2464676013719074
-1.7690490105009746,-1.7690490105009746
-1.5820034962261067,-1.5820034962261067
-1.5646565332086795,-1.5646565332086795
-1.5420300597076875,-1.5420300597076875
-1.513369859939764,-1.513369859939764
-1.5495722175413513,-1.5495722175413513
-1.5646565332086795,-1.5646565332086795
-1.4583121077540167,-1.4583121077540167
-1.3097315984308355,-1.3097315984308355
-1.3021894405971715,-1.3021894405971715
-1.4115507291852998,-1.4115507291852998
-1.4522783814870854,-1.4522783814870854
-1.3097315984308355,-1.3097315984308355
-1.124948731506067,-1.124948731506067
-1.0548066636529914,-1.0548066636529914
-1.0977969633048763,-1.0977969633048763
-1.1053391211385404,-1.1053391211385404
-1.0269006796684346,-1.0269006796684346
-0.9522333171151608,-0.9522333171151608
-0.9537417486818935,-0.9537417486818935
-0.9522333171151608,-0.9522333171151608
-0.8707780125115893,-0.8707780125115893
-0.7485950556062321,-0.7485950556062321
-0.6648771036525615,-0.6648771036525615
-0.5954892515828524,-0.5954892515828524
-0.5170508101127466,-0.5170508101127466
-0.49367012082838807,-0.49367012082838807
-0.5743712096485931,-0.5743712096485931
-0.6467759248517678,-0.6467759248517678
-0.5766338569986924,-0.5766338569986924
-0.3910967742905574,-0.3910967742905574
-0.26665117003510097,-0.26665117003510097
-0.28927764353609303,-0.28927764353609303
-0.405426874174519,-0.405426874174519
-0.49367012082838807,-0.49367012082838807
-0.5019664944454185,-0.5019664944454185
-0.44238344755947273,-0.44238344755947273
-0.39034255850719096,-0.39034255850719096
-0.3910967742905574,-0.3910967742905574
-0.44540031069293834,-0.44540031069293834
-0.49367012082838807,-0.49367012082838807
-0.5351519889135402,-0.5351519889135402
-0.5954892515828524,-0.5954892515828524
-0.6739276930529583,-0.6739276930529583
-0.6973083823373167,-0.6973083823373167
-0.6535638669020654,-0.6535638669020654
-0.5954892515828524,-0.5954892515828524
-0.5615495413313643,-0.5615495413313643
-0.49367012082838807,-0.49367012082838807
-0.3692245165729317,-0.3692245165729317
-0.2387451860505441,-0.2387451860505441
-0.14522242891311019,-0.14522242891311019
-0.034352708758249036,-0.034352708758249036
0.10894829008136742,0.10894829008136742
0.22057222601959497,0.22057222601959497
0.2590372309712815,0.2590372309712815
0.3231455725574257,0.3231455725574257
0.4785140239309046,0.4785140239309046
0.6286029648208187,0.6286029648208187
0.5931548230025977,0.5931548230025977
0.3736780300429747,0.3736780300429747
0.14741329503305395,0.14741329503305395
0.06746642199621529,0.06746642199621529
0.0727459324797801,0.0727459324797801
0.016933964510666328,0.016933964510666328
-0.15578144988023981,-0.15578144988023981
-0.3405643168050084,-0.3405643168050084
-0.47858580516106003,-0.47858580516106003
-0.5954892515828524,-0.5954892515828524
-0.7576456450066289,-0.7576456450066289
-0.9017008596296118,-0.9017008596296118
-0.9567586118153592,-0.9567586118153592
-0.9522333171151608,-0.9522333171151608
-0.9982404799005112,-0.9982404799005112
-1.1053391211385404,-1.1053391211385404
-1.1837775626086462,-1.1837775626086462
-1.1566257944074558,-1.1566257944074558
-1.0683825477535867,-1.0683825477535867
-1.0035199903840761,-1.0035199903840761
-1.0344428375020986,-1.0344428375020986
-1.1053391211385404,-1.1053391211385404
-1.0472645058193275,-1.0472645058193275
-0.6973083823373167,-0.6973083823373167
-0.12712125011231654,-0.12712125011231654
0.5267838340663543,0.5267838340663543
1.3239899170846416,1.3239899170846416
2.363299266563544,2.363299266563544
3.2246136911679755,3.2246136911679755
3.1288282866804424,3.1288282866804424
1.8338397866403298,1.8338397866403298
0.06746642199621529,0.06746642199621529
-1.3036978721639043,-1.3036978721639043
-2.0745064027643676,-2.0745064027643676
-2.4644359627647976,-2.4644359627647976
-2.4832913573489575,-2.4832913573489575
-2.0888365026483293,-2.0888365026483293
-1.5646565332086795,-1.5646565332086795
-1.3059605195140034,-1.3059605195140034
-1.3097315984308355,-1.3097315984308355
-1.3074689510807362,-1.3074689510807362
-1.207912467676371,-1.207912467676371
-1.1596426575409213,-1.1596426575409213
-1.207912467676371,-1.207912467676371
-1.2260136464771647,-1.2260136464771647
-1.1053391211385404,-1.1053391211385404
-0.9099972332466422,-0.9099972332466422
-0.7485950556062321,-0.7485950556062321
-0.692028871853752,-0.692028871853752
-0.6973083823373167,-0.6973083823373167
-0.7169179927048432,-0.7169179927048432
-0.6973083823373167,-0.6973083823373167
-0.6535638669020654,-0.6535638669020654
-0.5954892515828524,-0.5954892515828524
-0.5683374833816619,-0.5683374833816619
-0.5954892515828524,-0.5954892515828524
-0.6513012195519662,-0.6513012195519662
-0.6467759248517678,-0.6467759248517678
-0.5426941467472043,-0.5426941467472043
-0.3910967742905574,-0.3910967742905574
-0.274193327868765,-0.274193327868765
-0.18745851278162873,-0.18745851278162873
-0.10600320817805726,-0.10600320817805726
-0.034352708758249036,-0.034352708758249036
-0.0019214300734937328,-0.0019214300734937328
0.016933964510666328,0.016933964510666328
0.041068869578391204,0.041068869578391204
0.06746642199621529,0.06746642199621529
0.0712375009130473,0.0712375009130473
0.06746642199621529,0.06746642199621529
0.038052006444925596,0.038052006444925596
-0.034352708758249036,-0.034352708758249036
-0.12485860276221732,-0.12485860276221732
-0.13617183951271336,-0.13617183951271336
-0.07583457684340117,-0.07583457684340117
-0.034352708758249036,-0.034352708758249036
-0.0554707506925083,-0.0554707506925083
-0.034352708758249036,-0.034352708758249036
0.04634838006195602,0.04634838006195602
0.06746642199621529,0.06746642199621529
-0.0562249664758747,-0.0562249664758747
-0.18745851278162873,-0.18745851278162873
-0.18519586543152952,-0.18519586543152952
-0.0856393820271644,-0.0856393820271644
-0.03510692454161544,-0.03510692454161544
-0.034352708758249036,-0.034352708758249036
0.0033580804100710837,0.0033580804100710837
0.11875309526513064,0.11875309526513064
0.24772399422078545,0.24772399422078545
0.3736780300429747,0.3736780300429747
0.5177332446659575,0.5177332446659575
0.679889638089734,0.679889638089734
0.7764292583606335,0.7764292583606335
0.7817087688441984,0.7817087688441984
0.7802003372774655,0.7802003372774655
0.884282115382029,0.884282115382029
1.0275831142216456,1.0275831142216456
1.0366337036220423,1.0366337036220423
0.8480797577804418,0.8480797577804418
0.6286029648208187,0.6286029648208187
0.5207501077994231,0.5207501077994231
0.475497160797439,0.475497160797439
0.35105155654198256,0.35105155654198256
0.170039768534046,0.170039768534046
0.03201828017799437,0.03201828017799437
-0.034352708758249036,-0.034352708758249036
-0.13617183951271336,-0.13617183951271336
-0.28927764353609303,-0.28927764353609303
-0.4355955055091751,-0.4355955055091751
-0.49367012082838807,-0.49367012082838807
-0.4898990419115561,-0.4898990419115561
-0.49367012082838807,-0.49367012082838807
-0.5479736572307691,-0.5479736572307691
-0.5954892515828524,-0.5954892515828524
-0.5721085622984939,-0.5721085622984939
-0.49367012082838807,-0.49367012082838807
-0.48386531564462487,-0.48386531564462487
-0.5954892515828524,-0.5954892515828524
-0.7395444662058352,-0.7395444662058352
-0.6973083823373167,-0.6973083823373167
-0.3119041170370851,-0.3119041170370851
0.3736780300429747,0.3736780300429747
1.0743444927903625,1.0743444927903625
1.6490569197155611,1.6490569197155611
2.33690171414572,2.33690171414572
3.3324665481893714,3.3324665481893714
4.040675168770423,4.040675168770423
3.485572352212751,3.485572352212751
1.6068208358470426,1.6068208358470426
-0.3910967742905574,-0.3910967742905574
-1.4635916182375817,-1.4635916182375817
-1.7690490105009746,-1.7690490105009746
-1.955340308992476,-1.955340308992476
-2.0239739452788186,-2.0239739452788186
-1.6604419376962125,-1.6604419376962125
-1.0548066636529914,-1.0548066636529914
-0.718426424271576,-0.718426424271576
-0.6973083823373167,-0.6973083823373167
-0.675436124619691,-0.675436124619691
-0.544202578313937,-0.544202578313937
-0.4770773735943272,-0.4770773735943272
-0.49367012082838807,-0.49367012082838807
-0.48612796299472405,-0.48612796299472405
-0.44238344755947273,-0.44238344755947273
-0.4612388421436328,-0.4612388421436328
-0.49367012082838807,-0.49367012082838807
-0.4401208002093735,-0.4401208002093735
-0.28927764353609303,-0.28927764353609303
-0.18595008121489592,-0.18595008121489592
-0.18745851278162873,-0.18745851278162873
-0.2583547964180705,-0.2583547964180705
-0.28927764353609303,-0.28927764353609303
-0.25458371750123854,-0.25458371750123854
-0.18745851278162873,-0.18745851278162873
-0.12335017119548451,-0.12335017119548451
-0.034352708758249036,-0.034352708758249036
0.09235554284730657,0.09235554284730657
0.22057222601959497,0.22057222601959497
0.2892058623059376,0.2892058623059376
0.3231455725574257,0.3231455725574257
0.3782033247431731,0.3782033247431731
0.475497160797439,0.475497160797439
0.5396055023835832,0.5396055023835832
0.5267838340663543,0.5267838340663543
0.47172608188060694,0.47172608188060694
0.475497160797439,0.475497160797439
0.5516729549174456,0.5516729549174456
0.6286029648208187,0.6286029648208187
0.6135186491534906,0.6135186491534906
0.5267838340663543,0.5267838340663543
0.4423116663293173,0.4423116663293173
0.42496470331189,0.42496470331189
0.43250686114555403,0.43250686114555403
0.42496470331189,0.42496470331189
0.3895165614936691,0.3895165614936691
0.3736780300429747,0.3736780300429747
0.3638732248592114,0.3638732248592114
0.3231455725574257,0.3231455725574257
0.21981801023622857,0.21981801023622857
0.11875309526513064,0.11875309526513064
0.07727122717997852,0.07727122717997852
0.11875309526513064,0.11875309526513064
0.20548791035226693,0.20548791035226693
0.3231455725574257,0.3231455725574257
0.43627794006238607,0.43627794006238607
0.5267838340663543,0.5267838340663543
0.5848584493855673,0.5848584493855673
0.679889638089734,0.679889638089734
0.8548676998307394,0.8548676998307394
1.0879203768909578,1.0879203768909578
1.2704405964656271,1.2704405964656271
1.3428453116688017,1.3428453116688017
1.3081513856339473,1.3081513856339473
1.2410261809143375,1.2410261809143375
1.182197349811758,1.182197349811758
1.139207050159873,1.139207050159873
1.0630312560398665,1.0630312560398665
0.9348145728675781,0.9348145728675781
0.7681328847436031,0.7681328847436031
0.6286029648208187,0.6286029648208187
0.5215043235827895,0.5215043235827895
0.42496470331189,0.42496470331189
0.29448537278950243,0.29448537278950243
0.170039768534046,0.170039768534046
0.056907401029085654,0.056907401029085654
-0.034352708758249036,-0.034352708758249036
-0.1210875238453853,-0.1210875238453853
-0.18745851278162873,-0.18745851278162873
-0.25760058063470415,-0.25760058063470415
-0.3405643168050084,-0.3405643168050084
-0.394113637424023,-0.394113637424023
-0.3405643168050084,-0.3405643168050084
-0.2394994018339105,-0.2394994018339105
-0.2387451860505441,-0.2387451860505441
-0.40618108995788543,-0.40618108995788543
-0.544202578313937,-0.544202578313937
-0.3910967742905574,-0.3910967742905574
0.11875309526513064,0.11875309526513064
0.7605907269099391,0.7605907269099391
1.3941319849377172,1.3941319849377172
2.167957378671646,2.167957378671646
3.230647417434907,3.230647417434907
4.159841262542314,4.159841262542314
4.199814699060734,4.199814699060734
3.099413871129153,3.099413871129153
1.4959511156921814,1.4959511156921814
0.14967594238315315,0.14967594238315315
-0.7485950556062321,-0.7485950556062321
-1.3708230768835141,-1.3708230768835141
-1.6664756639631437,-1.6664756639631437
-1.5050734863227337,-1.5050734863227337
-1.0548066636529914,-1.0548066636529914
-0.7078674033044464,-0.7078674033044464
-0.5954892515828524,-0.5954892515828524
-0.5706001307317611,-0.5706001307317611
-0.49367012082838807,-0.49367012082838807
-0.4069353057412518,-0.4069353057412518
-0.3405643168050084,-0.3405643168050084
-0.26137165955153613,-0.26137165955153613
-0.13617183951271336,-0.13617183951271336
-0.041140650808546654,-0.041140650808546654
-0.034352708758249036,-0.034352708758249036
-0.10223212926122525,-0.10223212926122525
-0.13617183951271336,-0.13617183951271336
-0.13240076059588135,-0.13240076059588135
-0.13617183951271336,-0.13617183951271336
-0.1799163549479647,-0.1799163549479647
-0.13617183951271336,-0.13617183951271336
0.06294112729601688,0.06294112729601688
0.3231455725574257,0.3231455725574257
0.4536249030798133,0.4536249030798133
0.42496470331189,0.42496470331189
0.355576851242181,0.355576851242181
0.3736780300429747,0.3736780300429747
0.46795500296377496,0.46795500296377496
0.5780705073352697,0.5780705073352697
0.6602800277222075,0.6602800277222075
0.7311763113586494,0.7311763113586494
0.7620991584766719,0.7620991584766719
0.7311763113586494,0.7311763113586494
0.668576401339238,0.668576401339238
0.679889638089734,0.679889638089734
0.753048569076275,0.753048569076275
0.7817087688441984,0.7817087688441984
0.7032703273740925,0.7032703273740925
0.6286029648208187,0.6286029648208187
0.6240776701206202,0.6240776701206202
0.6286029648208187,0.6286029648208187
0.5675114863681401,0.5675114863681401
0.5267838340663543,0.5267838340663543
0.5546898180509112,0.5546898180509112
0.5780705073352697,0.5780705073352697
0.5169790288825911,0.5169790288825911
0.475497160797439,0.475497160797439
0.5094368710489271,0.5094368710489271
0.5267838340663543,0.5267838340663543
0.4392948031958517,0.4392948031958517
0.3736780300429747,0.3736780300429747
0.42722735066198925,0.42722735066198925
0.5267838340663543,0.5267838340663543
0.5667572705847737,0.5667572705847737
0.6286029648208187,0.6286029648208187
0.7628533742600383,0.7628533742600383
0.884282115382029,0.884282115382029
0.927272415033914,0.927272415033914
1.0366337036220423,1.0366337036220423
1.2802454016493903,1.2802454016493903
1.4959511156921814,1.4959511156921814
1.5125438629262422,1.5125438629262422
1.4454186582066324,1.4454186582066324
1.4529608160402965,1.4529608160402965
1.4959511156921814,1.4959511156921814
1.4175126742220756,1.4175126742220756
1.2410261809143375,1.2410261809143375
1.0698191980901641,1.0698191980901641
0.9348145728675781,0.9348145728675781
0.7779376899273663,0.7779376899273663
0.6286029648208187,0.6286029648208187
0.5003862816485303,0.5003862816485303
0.3736780300429747,0.3736780300429747
0.21453849975266376,0.21453849975266376
0.11875309526513064,0.11875309526513064
0.100651916464337,0.100651916464337
0.06746642199621529,0.06746642199621529
-0.06452134009290512,-0.06452134009290512
-0.18745851278162873,-0.18745851278162873
-0.18444164964816312,-0.18444164964816312
-0.0856393820271644,-0.0856393820271644
-0.021531040441020194,-0.021531040441020194
-0.034352708758249036,-0.034352708758249036
-0.12410438697885091,-0.12410438697885091
-0.2387451860505441,-0.2387451860505441
-0.26137165955153613,-0.26137165955153613
-0.034352708758249036,-0.034352708758249036
0.3970587193273331,0.3970587193273331
0.884282115382029,0.884282115382029
1.4431560108565333,1.4431560108565333
2.3120125932946287,2.3120125932946287
3.4244808737600723,3.4244808737600723
4.199814699060734,4.199814699060734
3.9969306533351716,3.9969306533351716
2.822616678633683,2.822616678633683
1.2749658911658255,1.2749658911658255
-0.034352708758249036,-0.034352708758249036
-0.9401658645812982,-0.9401658645812982
-1.513369859939764,-1.513369859939764
-1.754718910617013,-1.754718910617013
-1.5646565332086795,-1.5646565332086795
-1.0661199004034876,-1.0661199004034876
-0.5954892515828524,-0.5954892515828524
-0.405426874174519,-0.405426874174519
-0.3910967742905574,-0.3910967742905574
-0.3503691219887716,-0.3503691219887716
-0.2387451860505441,-0.2387451860505441
-0.16558625506400304,-0.16558625506400304
-0.13617183951271336,-0.13617183951271336
-0.09468997142756122,-0.09468997142756122
-0.034352708758249036,-0.034352708758249036
-0.027564766707951414,-0.027564766707951414
-0.034352708758249036,-0.034352708758249036
0.022213474994231142,0.022213474994231142
0.170039768534046,0.170039768534046
0.27713840977207516,0.27713840977207516
0.2718588992885103,0.2718588992885103
0.17531927901761082,0.17531927901761082
0.11875309526513064,0.11875309526513064
0.16098917913364919,0.16098917913364919
0.2718588992885103,0.2718588992885103
0.3653816564259442,0.3653816564259442
0.42496470331189,0.42496470331189
0.47021765031387414,0.47021765031387414
0.5267838340663543,0.5267838340663543
0.563740407451308,0.563740407451308
0.5780705073352697,0.5780705073352697
0.5848584493855673,0.5848584493855673
0.6286029648208187,0.6286029648208187
0.7010076800239933,0.7010076800239933
0.7817087688441984,0.7817087688441984
0.8390291683800449,0.8390291683800449
0.884282115382029,0.884282115382029
0.90087486261609,0.90087486261609
0.884282115382029,0.884282115382029
0.8269617158461825,0.8269617158461825
0.7817087688441984,0.7817087688441984
0.7500317059428094,0.7500317059428094
0.7311763113586494,0.7311763113586494
0.7258968008750846,0.7258968008750846
0.7817087688441984,0.7817087688441984
0.8322412263297473,0.8322412263297473
0.7817087688441984,0.7817087688441984
0.6368993384378491,0.6368993384378491
0.5780705073352697,0.5780705073352697
0.668576401339238,0.668576401339238
0.7817087688441984,0.7817087688441984
0.7605907269099391,0.7605907269099391
0.679889638089734,0.679889638089734
0.679889638089734,0.679889638089734
0.7817087688441984,0.7817087688441984
0.869197799714701,0.869197799714701
0.9348145728675781,0.9348145728675781
1.0592601771230343,1.0592601771230343
1.2923128541832527,1.2923128541832527
1.5223486681100056,1.5223486681100056
1.6490569197155611,1.6490569197155611
1.6724376089999196,1.6724376089999196
1.7003435929844763,1.7003435929844763
1.7493676189032925,1.7493676189032925
1.7508760504700254,1.7508760504700254
1.6407605460985306,1.6407605460985306
1.4959511156921814,1.4959511156921814
1.399411495421282,1.399411495421282
1.3428453116688017,1.3428453116688017
1.2138744127131469,1.2138744127131469
0.9861012461364934,0.9861012461364934
0.7326847429253822,0.7326847429253822
0.5780705073352697,0.5780705073352697
0.5003862816485303,0.5003862816485303
0.42496470331189,0.42496470331189
0.2658251730215791,0.2658251730215791
0.06746642199621529,0.06746642199621529
-0.12184173962875171,-0.12184173962875171
-0.2387451860505441,-0.2387451860505441
-0.20480547579905597,-0.20480547579905597
0.016933964510666328,0.016933964510666328
0.21453849975266376,0.21453849975266376
0.11875309526513064,0.11875309526513064
-0.20857655471588799,-0.20857655471588799
-0.3405643168050084,-0.3405643168050084
-0.12938389746241574,-0.12938389746241574
0.11875309526513064,0.11875309526513064
0.17682771058434363,0.17682771058434363
0.3231455725574257,0.3231455725574257
0.8156484790956865,0.8156484790956865
1.5472377889610969,1.5472377889610969
2.377629366447506,2.377629366447506
3.3837532214582864,3.3837532214582864
4.244313430279352,4.244313430279352
4.148528025791818,4.148528025791818
2.7592625528309056,2.7592625528309056
0.884282115382029,0.884282115382029
-0.452188252743236,-0.452188252743236
-1.0548066636529914,-1.0548066636529914
-1.355738761216186,-1.355738761216186
-1.513369859939764,-1.513369859939764
-1.398729060868071,-1.398729060868071
-1.0548066636529914,-1.0548066636529914
-0.7599082923567281,-0.7599082923567281
-0.5954892515828524,-0.5954892515828524
-0.4446460949095719,-0.4446460949095719
-0.28927764353609303,-0.28927764353609303
-0.3111499012537187,-0.3111499012537187
-0.49367012082838807,-0.49367012082838807
-0.4929159050450217,-0.4929159050450217
-0.0856393820271644,-0.0856393820271644
0.27562997820534235,0.27562997820534235
-0.034352708758249036,-0.034352708758249036
-0.8247708497262387,-0.8247708497262387
-1.0548066636529914,-1.0548066636529914
-0.2598632279848033,-0.2598632279848033
0.7817087688441984,0.7817087688441984
1.035879487838676,1.035879487838676
0.5780705073352697,0.5780705073352697
0.20247104721880133,0.20247104721880133
0.2718588992885103,0.2718588992885103
0.4408032347625845,0.4408032347625845
0.42496470331189,0.42496470331189
0.33672145665802095,0.33672145665802095
0.3736780300429747,0.3736780300429747
0.48982726068140064,0.48982726068140064
0.5780705073352697,0.5780705073352697
0.633128259521017,0.633128259521017
0.7311763113586494,0.7311763113586494
0.8277159316295489,0.8277159316295489
0.8329954421131137,0.8329954421131137
0.7568196479931071,0.7568196479931071
0.7817087688441984,0.7817087688441984
0.9785590883028293,0.9785590883028293
1.189739507645422,1.189739507645422
1.1957732339123532,1.1957732339123532
1.0366337036220423,1.0366337036220423
0.8993664310493571,0.8993664310493571
0.884282115382029,0.884282115382029
0.9144507467166851,0.9144507467166851
0.9348145728675781,0.9348145728675781
0.8910700574323267,0.8910700574323267
0.7817087688441984,0.7817087688441984
0.6678221855558716,0.6678221855558716
0.679889638089734,0.679889638089734
0.7628533742600383,0.7628533742600383
0.7311763113586494,0.7311763113586494
0.5252754024996216,0.5252754024996216
0.3736780300429747,0.3736780300429747
0.42496470331189,0.42496470331189
0.5780705073352697,0.5780705073352697
0.6746101276061692,0.6746101276061692
0.7817087688441984,0.7817087688441984
0.9649832042022342,0.9649832042022342
1.139207050159873,1.139207050159873
1.2093491180129485,1.2093491180129485
1.2923128541832527,1.2923128541832527
1.4605029738739606,1.4605029738739606
1.5977702464466457,1.5977702464466457
1.5676016151119896,1.5676016151119896
1.4959511156921814,1.4959511156921814
1.55704259414486,1.55704259414486
1.7003435929844763,1.7003435929844763
1.6837508457504156,1.6837508457504156
1.4454186582066324,1.4454186582066324
1.150520286910369,1.150520286910369
0.9861012461364934,0.9861012461364934
0.9076628046663875,0.9076628046663875
0.7817087688441984,0.7817087688441984
0.5494103075673464,0.5494103075673464
0.3231455725574257,0.3231455725574257
0.15043015816651956,0.15043015816651956
0.016933964510666328,0.016933964510666328
-0.10902007131152287,-0.10902007131152287
-0.13617183951271336,-0.13617183951271336
-0.06452134009290512,-0.06452134009290512
-0.034352708758249036,-0.034352708758249036
-0.1550272340968734,-0.1550272340968734
-0.28927764353609303,-0.28927764353609303
-0.28248970148579544,-0.28248970148579544
-0.18745851278162873,-0.18745851278162873
-0.18821272856499513,-0.18821272856499513
-0.28927764353609303,-0.28927764353609303
-0.3835546164568933,-0.3835546164568933
-0.3405643168050084,-0.3405643168050084
-0.04491172972537867,-0.04491172972537867
0.5780705073352697,0.5780705073352697
1.3232357013012752,1.3232357013012752
1.9552685277623205,1.9552685277623205
2.6189784171247545,2.6189784171247545
3.5873914829672153,3.5873914829672153
4.347640992600549,4.347640992600549
3.8423164177450593,3.8423164177450593
1.9062445018435044,1.9062445018435044
-0.18745851278162873,-0.18745851278162873
-1.2546738462450882,-1.2546738462450882
-1.4628374024542152,-1.4628374024542152
-1.5970878118934348,-1.5970878118934348
-1.7177623372320592,-1.7177623372320592
-1.4341772026862918,-1.4341772026862918
-0.8504141863606964,-0.8504141863606964
-0.5012122786620521,-0.5012122786620521
-0.49367012082838807,-0.49367012082838807
-0.5095086522790825,-0.5095086522790825
-0.3910967742905574,-0.3910967742905574
-0.3111499012537187,-0.3111499012537187
-0.3405643168050084,-0.3405643168050084
-0.36243657452263406,-0.36243657452263406
-0.28927764353609303,-0.28927764353609303
-0.22215243881648322,-0.22215243881648322
-0.2387451860505441,-0.2387451860505441
-0.32321735378758115,-0.32321735378758115
-0.3405643168050084,-0.3405643168050084
-0.23120302821688005,-0.23120302821688005
-0.034352708758249036,-0.034352708758249036
0.09537240598077218,0.09537240598077218
0.11875309526513064,0.11875309526513064
0.12327838996532907,0.12327838996532907
0.22057222601959497,0.22057222601959497
0.36161057750911224,0.36161057750911224
0.42496470331189,0.42496470331189
0.36839851955940983,0.36839851955940983
0.3231455725574257,0.3231455725574257
0.40460087716099713,0.40460087716099713
0.5780705073352697,0.5780705073352697
0.6572631645887419,0.6572631645887419
0.5780705073352697,0.5780705073352697
0.4822851028477366,0.4822851028477366
0.5780705073352697,0.5780705073352697
0.8209279895792513,0.8209279895792513
0.9861012461364934,0.9861012461364934
0.93858565178441,0.93858565178441
0.8329954421131137,0.8329954421131137
0.8375207368133121,0.8375207368133121
0.9348145728675781,0.9348145728675781
0.9604579095020357,0.9604579095020357
0.884282115382029,0.884282115382029
0.7817087688441984,0.7817087688441984
0.7311763113586494,0.7311763113586494
0.7017618958073597,0.7017618958073597
0.679889638089734,0.679889638089734
0.6368993384378491,0.6368993384378491
0.5780705073352697,0.5780705073352697
0.5177332446659575,0.5177332446659575
0.5267838340663543,0.5267838340663543
0.6022054124029946,0.6022054124029946
0.679889638089734,0.679889638089734
0.6866775801400317,0.6866775801400317
0.679889638089734,0.679889638089734
0.7500317059428094,0.7500317059428094
0.9348145728675781,0.9348145728675781
1.1437323448600716,1.1437323448600716
1.2923128541832527,1.2923128541832527
1.3534043326359313,1.3534043326359313
1.3941319849377172,1.3941319849377172
1.440893363506434,1.440893363506434
1.4959511156921814,1.4959511156921814
1.5427124942608983,1.5427124942608983
1.5977702464466457,1.5977702464466457
1.6045581884969433,1.6045581884969433
1.4959511156921814,1.4959511156921814
1.29080442261652,1.29080442261652
1.139207050159873,1.139207050159873
1.0894288084576904,1.0894288084576904
1.0366337036220423,1.0366337036220423
0.8450628946469761,0.8450628946469761
0.5780705073352697,0.5780705073352697
0.3502973407586162,0.3502973407586162
0.22057222601959497,0.22057222601959497
0.12629525309879466,0.12629525309879466
0.06746642199621529,0.06746642199621529
0.041823085361757606,0.041823085361757606
0.016933964510666328,0.016933964510666328
-0.057733398042607506,-0.057733398042607506
-0.13617183951271336,-0.13617183951271336
-0.1768994918144991,-0.1768994918144991
-0.18745851278162873,-0.18745851278162873
-0.2146102809828192,-0.2146102809828192
-0.2387451860505441,-0.2387451860505441
-0.26589695425173454,-0.26589695425173454
-0.28927764353609303,-0.28927764353609303
-0.2176271441162848,-0.2176271441162848
0.11875309526513064,0.11875309526513064
0.6972366011071612,0.6972366011071612
1.3941319849377172,1.3941319849377172
2.2403620938748205,2.2403620938748205
3.3324665481893714,3.3324665481893714
4.251855588113016,4.251855588113016
4.199814699060734,4.199814699060734
2.910859925287552,2.910859925287552
1.139207050159873,1.139207050159873
-0.22366087038321603,-0.22366087038321603
-1.0035199903840761,-1.0035199903840761
-1.4960228969223368,-1.4960228969223368
-1.7177623372320592,-1.7177623372320592
-1.522420449340161,-1.522420449340161
-1.0548066636529914,-1.0548066636529914
-0.692028871853752,-0.692028871853752
-0.544202578313937,-0.544202578313937
-0.47481472624422805,-0.47481472624422805
-0.3910967742905574,-0.3910967742905574
-0.35112333777213806,-0.35112333777213806
-0.3405643168050084,-0.3405643168050084
-0.3051161749867875,-0.3051161749867875
-0.2387451860505441,-0.2387451860505441
-0.20631390736578878,-0.20631390736578878
-0.18745851278162873,-0.18745851278162873
-0.13918870264617897,-0.13918870264617897
-0.034352708758249036,-0.034352708758249036
0.060678479945917664,0.060678479945917664
0.11875309526513064,0.11875309526513064
0.11950731104849704,0.11950731104849704
0.11875309526513064,0.11875309526513064
0.14892172659978675,0.14892172659978675
0.22057222601959497,0.22057222601959497
0.27412154663860955,0.27412154663860955
0.2718588992885103,0.2718588992885103
0.24093605217048783,0.24093605217048783
0.2718588992885103,0.2718588992885103
0.37216959847624187,0.37216959847624187
0.475497160797439,0.475497160797439
0.5109453026156598,0.5109453026156598
0.5267838340663543,0.5267838340663543
0.595417470352697,0.595417470352697
0.7311763113586494,0.7311763113586494
0.846571326213709,0.846571326213709
0.884282115382029,0.884282115382029
0.8352580894632129,0.8352580894632129
0.7817087688441984,0.7817087688441984
0.8043352423451904,0.8043352423451904
0.9348145728675781,0.9348145728675781
1.0554890982062024,1.0554890982062024
1.0366337036220423,1.0366337036220423
0.8707062312814339,0.8707062312814339
0.7311763113586494,0.7311763113586494
0.7236341535249854,0.7236341535249854
0.7817087688441984,0.7817087688441984
0.7349473902754814,0.7349473902754814
0.5780705073352697,0.5780705073352697
0.43703215584575245,0.43703215584575245
0.42496470331189,0.42496470331189
0.4596586293467445,0.4596586293467445
0.42496470331189,0.42496470331189
0.3110781200235633,0.3110781200235633
0.2718588992885103,0.2718588992885103
0.3857454825768371,0.3857454825768371
0.5780705073352697,0.5780705073352697
0.679889638089734,0.679889638089734
0.679889638089734,0.679889638089734
0.7055329747241917,0.7055329747241917
0.884282115382029,0.884282115382029
1.1339275396763082,1.1339275396763082
1.2923128541832527,1.2923128541832527
1.2877875594830543,1.2877875594830543
1.2410261809143375,1.2410261809143375
1.2470599071812687,1.2470599071812687
1.2923128541832527,1.2923128541832527
1.2915586383998863,1.2915586383998863
1.2410261809143375,1.2410261809143375
1.1437323448600716,1.1437323448600716
0.9861012461364934,0.9861012461364934
0.7507859217261759,0.7507859217261759
0.5267838340663543,0.5267838340663543
0.35708528280891383,0.35708528280891383
0.22057222601959497,0.22057222601959497
0.05238210632888724,0.05238210632888724
-0.0856393820271644,-0.0856393820271644
-0.17312841289766706,-0.17312841289766706
-0.2387451860505441,-0.2387451860505441
-0.3141667643871843,-0.3141667643871843
-0.3405643168050084,-0.3405643168050084
-0.3119041170370851,-0.3119041170370851
-0.28927764353609303,-0.28927764353609303
-0.3051161749867875,-0.3051161749867875
-0.28927764353609303,-0.28927764353609303
-0.25307528593450573,-0.25307528593450573
-0.28927764353609303,-0.28927764353609303
-0.4257907003254119,-0.4257907003254119
-0.44238344755947273,-0.44238344755947273
-0.10374056082795806,-0.10374056082795806
0.5780705073352697,0.5780705073352697
1.314939327684245,1.314939327684245
2.0065552010312357,2.0065552010312357
2.8980382569703234,2.8980382569703234
4.09799556830627,4.09799556830627
4.910285966991885,4.910285966991885
4.352920503084114,4.352920503084114
2.402518487298597,2.402518487298597
0.2718588992885103,0.2718588992885103
-0.9741055748327864,-0.9741055748327864
-1.4115507291852998,-1.4115507291852998
-1.627256443228091,-1.627256443228091
-1.6664756639631437,-1.6664756639631437
-1.3195364036145987,-1.3195364036145987
-0.7998817288751474,-0.7998817288751474
-0.5487278730141355,-0.5487278730141355
-0.544202578313937,-0.544202578313937
-0.5019664944454185,-0.5019664944454185
-0.3910967742905574,-0.3910967742905574
-0.3910967742905574,-0.3910967742905574
-0.44238344755947273,-0.44238344755947273
-0.3835546164568933,-0.3835546164568933
-0.2387451860505441,-0.2387451860505441
-0.16332360771390383,-0.16332360771390383
-0.13617183951271336,-0.13617183951271336
-0.10147791347785885,-0.10147791347785885
-0.0856393820271644,-0.0856393820271644
-0.15653566566360622,-0.15653566566360622
-0.18745851278162873,-0.18745851278162873
-0.07658879262676757,-0.07658879262676757
0.11875309526513064,0.11875309526513064
0.2266059522865262,0.2266059522865262
0.22057222601959497,0.22057222601959497
0.19342045781840447,0.19342045781840447
0.22057222601959497,0.22057222601959497
0.2763841939887087,0.2763841939887087
0.3231455725574257,0.3231455725574257
0.3299335146077233,0.3299335146077233
0.3231455725574257,0.3231455725574257
0.34200096714158573,0.34200096714158573
0.42496470331189,0.42496470331189
0.5109453026156598,0.5109453026156598
0.5267838340663543,0.5267838340663543
0.4762513765808054,0.4762513765808054
0.475497160797439,0.475497160797439
0.5554440338342777,0.5554440338342777
0.6286029648208187,0.6286029648208187
0.5961716861360633,0.5961716861360633
0.5267838340663543,0.5267838340663543
0.5199958920160567,0.5199958920160567
0.5780705073352697,0.5780705073352697
0.5614777601012089,0.5614777601012089
0.42496470331189,0.42496470331189
0.2612998783213807,0.2612998783213807
0.22057222601959497,0.22057222601959497
0.28241792025563994,0.28241792025563994
0.3231455725574257,0.3231455725574257
0.2560203678378159,0.2560203678378159
