ECG,PPG
-0.6001493315454082,-0.6001493315454082
-0.4957575204344339,-0.4957575204344339
-0.47058502697505,-0.47058502697505
-0.41727857023753123,-0.41727857023753123
-0.34176108985937964,-0.34176108985937964
-0.3410207224046919,-0.3410207224046919
-0.42764371460315986,-0.42764371460315986
-0.5098245020735014,-0.5098245020735014
-0.5142667068016279,-0.5142667068016279
-0.4668831897016112,-0.4668831897016112
-0.42764371460315986,-0.42764371460315986
-0.42246114242034555,-0.42246114242034555
-0.42764371460315986,-0.42764371460315986
-0.418018937692219,-0.418018937692219
-0.3847024022312698,-0.3847024022312698
-0.33953998749531633,-0.33953998749531633
-0.2988197774874895,-0.2988197774874895
-0.2832720609390465,-0.2832720609390465
-0.2988197774874895,-0.2988197774874895
-0.31806933130937126,-0.31806933130937126
-0.2988197774874895,-0.2988197774874895
-0.24551332074997073,-0.24551332074997073
-0.21219678528902147,-0.21219678528902147
-0.24181148347653192,-0.24181148347653192
-0.2988197774874895,-0.2988197774874895
-0.33361704785781426,-0.33361704785781426
-0.34176108985937964,-0.34176108985937964
-0.35804917386251034,-0.35804917386251034
-0.3847024022312698,-0.3847024022312698
-0.3987693838703372,-0.3987693838703372
-0.3847024022312698,-0.3847024022312698
-0.3610106436812614,-0.3610106436812614
-0.34176108985937964,-0.34176108985937964
-0.3269537407656244,-0.3269537407656244
-0.2988197774874895,-0.2988197774874895
-0.2580995674796627,-0.2580995674796627
-0.21219678528902147,-0.21219678528902147
-0.1707362078265069,-0.1707362078265069
-0.12631416054524122,-0.12631416054524122
-0.0796710108999123,-0.0796710108999123
-0.03969116834677321,-0.03969116834677321
-0.030066391435832323,-0.030066391435832323
-0.03969116834677321,-0.03969116834677321
-0.03969116834677321,-0.03969116834677321
0.003250144025116913,0.003250144025116913
0.04841255876107032,0.04841255876107032
0.04619145639700704,0.04619145639700704
-0.04487374052958754,-0.04487374052958754
-0.16925547291713136,-0.16925547291713136
-0.2588399349343504,-0.2588399349343504
-0.2551380976609116,-0.2551380976609116
-0.19368759892182746,-0.19368759892182746
-0.12631416054524122,-0.12631416054524122
-0.09151689017491647,-0.09151689017491647
-0.0833728481733511,-0.0833728481733511
-0.12039122090773914,-0.12039122090773914
-0.21219678528902147,-0.21219678528902147
-0.3025216147609283,-0.3025216147609283
-0.2988197774874895,-0.2988197774874895
-0.22552339947340116,-0.22552339947340116
-0.16925547291713136,-0.16925547291713136
-0.05375814998584067,-0.05375814998584067
0.39120269028150356,0.39120269028150356
1.287787677908382,1.287787677908382
2.4161076788525295,2.4161076788525295
3.437074398866952,3.437074398866952
4.182624425737527,4.182624425737527
4.575759544176728,4.575759544176728
4.527635659622024,4.527635659622024
4.067127102806237,4.067127102806237
3.4504010130513314,3.4504010130513314
2.8958657894901982,2.8958657894901982
2.373166366480639,2.373166366480639
1.7719879932741776,1.7719879932741776
1.166367415339589,1.166367415339589
0.6947533467034855,0.6947533467034855
0.34752101045492567,0.34752101045492567
0.017317125664184366,0.017317125664184366
-0.2988197774874895,-0.2988197774874895
-0.5246318511672565,-0.5246318511672565
-0.6430906439172983,-0.6430906439172983
-0.7045411426563825,-0.7045411426563825
-0.7297136361157663,-0.7297136361157663
-0.7163870219313866,-0.7163870219313866
-0.6860319562891884,-0.6860319562891884
-0.6793686491969986,-0.6793686491969986
-0.6860319562891884,-0.6860319562891884
-0.7023200402923191,-0.7023200402923191
-0.7297136361157663,-0.7297136361157663
-0.795606339582977,-0.795606339582977
-0.8585375732314366,-0.8585375732314366
-0.8748256572345674,-0.8748256572345674
-0.8155962608595465,-0.8155962608595465
-0.7467420875735848,-0.7467420875735848
-0.7297136361157663,-0.7297136361157663
-0.7748760508517197,-0.7748760508517197
-0.8155962608595465,-0.8155962608595465
-0.8215192004970486,-0.8215192004970486
-0.8155962608595465,-0.8155962608595465
-0.8244806703157996,-0.8244806703157996
-0.8155962608595465,-0.8155962608595465
-0.7733953159423442,-0.7733953159423442
-0.7297136361157663,-0.7297136361157663
-0.7104640822938845,-0.7104640822938845
-0.6860319562891884,-0.6860319562891884
-0.6490135835548003,-0.6490135835548003
-0.6430906439172983,-0.6430906439172983
-0.6793686491969986,-0.6793686491969986
-0.6860319562891884,-0.6860319562891884
-0.6349466019157329,-0.6349466019157329
-0.6001493315454082,-0.6001493315454082
-0.6401291740985472,-0.6401291740985472
-0.6860319562891884,-0.6860319562891884
-0.6623401977391801,-0.6623401977391801
-0.6001493315454082,-0.6001493315454082
-0.5712750008125855,-0.5712750008125855
-0.557208019173518,-0.557208019173518
-0.5068630322547503,-0.5068630322547503
-0.42764371460315986,-0.42764371460315986
-0.36175101113594915,-0.36175101113594915
-0.2988197774874895,-0.2988197774874895
-0.22182156219996238,-0.22182156219996238
-0.16925547291713136,-0.16925547291713136
-0.19146649655776418,-0.19146649655776418
-0.2551380976609116,-0.2551380976609116
-0.27586838639216893,-0.27586838639216893
-0.21219678528902147,-0.21219678528902147
-0.12187195581711467,-0.12187195581711467
-0.0833728481733511,-0.0833728481733511
-0.11668938363430034,-0.11668938363430034
-0.16925547291713136,-0.16925547291713136
-0.2062738456515194,-0.2062738456515194
-0.21219678528902147,-0.21219678528902147
-0.19368759892182746,-0.19368759892182746
-0.12631416054524122,-0.12631416054524122
-0.06338292689678156,-0.06338292689678156
-0.0833728481733511,-0.0833728481733511
-0.21145641783433372,-0.21145641783433372
-0.34176108985937964,-0.34176108985937964
-0.39432717914221066,-0.39432717914221066
-0.3847024022312698,-0.3847024022312698
-0.3706354205922023,-0.3706354205922023
-0.34176108985937964,-0.34176108985937964
-0.30104087985155276,-0.30104087985155276
-0.2988197774874895,-0.2988197774874895
-0.3513858667703205,-0.3513858667703205
-0.34176108985937964,-0.34176108985937964
-0.12409305818117795,-0.12409305818117795
0.34752101045492567,0.34752101045492567
1.024216864039539,1.024216864039539
1.8556495156538946,1.8556495156538946
2.769262954738591,2.769262954738591
3.579224950167002,3.579224950167002
4.009378441340591,4.009378441340591
3.9242361840514985,3.9242361840514985
3.4851982834216564,3.4851982834216564
3.0195071544230543,3.0195071544230543
2.6752362879932456,2.6752362879932456
2.3294846866540615,2.3294846866540615
1.823073347647633,1.823073347647633
1.2093087277114793,1.2093087277114793
0.662177178697224,0.662177178697224
0.26163838571114545,0.26163838571114545
-0.04487374052958754,-0.04487374052958754
-0.2988197774874895,-0.2988197774874895
-0.48687311097818076,-0.48687311097818076
-0.6001493315454082,-0.6001493315454082
-0.6630805651938678,-0.6630805651938678
-0.6860319562891884,-0.6860319562891884
-0.674926444468872,-0.674926444468872
-0.6430906439172983,-0.6430906439172983
-0.6201392528219777,-0.6201392528219777
-0.6001493315454082,-0.6001493315454082
-0.5816401451782142,-0.5816401451782142
-0.557208019173518,-0.557208019173518
-0.5512850795360159,-0.5512850795360159
-0.557208019173518,-0.557208019173518
-0.5794190428141508,-0.5794190428141508
-0.6001493315454082,-0.6001493315454082
-0.6238410900954166,-0.6238410900954166
-0.6430906439172983,-0.6430906439172983
-0.6675227699219943,-0.6675227699219943
-0.6860319562891884,-0.6860319562891884
-0.6941759982907538,-0.6941759982907538
-0.6860319562891884,-0.6860319562891884
-0.6912145284720027,-0.6912145284720027
-0.7297136361157663,-0.7297136361157663
-0.7889430324907871,-0.7889430324907871
-0.8155962608595465,-0.8155962608595465
-0.7726549484876564,-0.7726549484876564
-0.6860319562891884,-0.6860319562891884
-0.6423502764626106,-0.6423502764626106
-0.6860319562891884,-0.6860319562891884
-0.7622898041220277,-0.7622898041220277
-0.7726549484876564,-0.7726549484876564
-0.7178677568407621,-0.7178677568407621
-0.6860319562891884,-0.6860319562891884
-0.7141659195673233,-0.7141659195673233
-0.7297136361157663,-0.7297136361157663
-0.6993585704735681,-0.6993585704735681
-0.6860319562891884,-0.6860319562891884
-0.7141659195673233,-0.7141659195673233
-0.6860319562891884,-0.6860319562891884
-0.5557272842641425,-0.5557272842641425
-0.42764371460315986,-0.42764371460315986
-0.4069134258719026,-0.4069134258719026
-0.42764371460315986,-0.42764371460315986
-0.383962034776582,-0.383962034776582
-0.2988197774874895,-0.2988197774874895
-0.2588399349343504,-0.2588399349343504
-0.2551380976609116,-0.2551380976609116
-0.23440780892965432,-0.23440780892965432
-0.21219678528902147,-0.21219678528902147
-0.24181148347653192,-0.24181148347653192
-0.2988197774874895,-0.2988197774874895
-0.32029043367343457,-0.32029043367343457
-0.2988197774874895,-0.2988197774874895
-0.27290691657341787,-0.27290691657341787
-0.2551380976609116,-0.2551380976609116
-0.24699405565934623,-0.24699405565934623
-0.2551380976609116,-0.2551380976609116
-0.2832720609390465,-0.2832720609390465
-0.2988197774874895,-0.2988197774874895
-0.2951179402140507,-0.2951179402140507
-0.2988197774874895,-0.2988197774874895
-0.31658859639999576,-0.31658859639999576
-0.2988197774874895,-0.2988197774874895
-0.22996560420152776,-0.22996560420152776
-0.16925547291713136,-0.16925547291713136
-0.1855435569202621,-0.1855435569202621
-0.2551380976609116,-0.2551380976609116
-0.3062234520343671,-0.3062234520343671
-0.2988197774874895,-0.2988197774874895
-0.2573592000249749,-0.2573592000249749
-0.21219678528902147,-0.21219678528902147
-0.18258208710151105,-0.18258208710151105
-0.16925547291713136,-0.16925547291713136
-0.17369767764525793,-0.17369767764525793
-0.16925547291713136,-0.16925547291713136
-0.15222702145931286,-0.15222702145931286
-0.12631416054524122,-0.12631416054524122
-0.1307563652733678,-0.1307563652733678
-0.16925547291713136,-0.16925547291713136
-0.2247830320187134,-0.2247830320187134
-0.2551380976609116,-0.2551380976609116
-0.2603206698437259,-0.2603206698437259
-0.2551380976609116,-0.2551380976609116
-0.26772434439060355,-0.26772434439060355
-0.2988197774874895,-0.2988197774874895
-0.3543473365890716,-0.3543473365890716
-0.42764371460315986,-0.42764371460315986
-0.489094213342244,-0.489094213342244
-0.47058502697505,-0.47058502697505
-0.31880969876405907,-0.31880969876405907
0.003250144025116913,0.003250144025116913
0.5185458924877985,0.5185458924877985
1.2522500400833694,1.2522500400833694
2.145873557891497,2.145873557891497
2.9758254745964767,2.9758254745964767
3.4111615379528804,3.4111615379528804
3.2778953961090833,3.2778953961090833
2.7581574429182747,2.7581574429182747
2.243602061910281,2.243602061910281
1.9319073634867339,1.9319073634867339
1.6831438987116463,1.6831438987116463
1.2900087802724451,1.2900087802724451
0.7784148690832025,0.7784148690832025
0.32160814954085404,0.32160814954085404
0.003250144025116913,0.003250144025116913
-0.22256192965465013,-0.22256192965465013
-0.3847024022312698,-0.3847024022312698
-0.47650796661255207,-0.47650796661255207
-0.5142667068016279,-0.5142667068016279
-0.5372180978969485,-0.5372180978969485
-0.557208019173518,-0.557208019173518
-0.5868227173610284,-0.5868227173610284
-0.6430906439172983,-0.6430906439172983
-0.703060407747007,-0.703060407747007
-0.6860319562891884,-0.6860319562891884
-0.5927456569985305,-0.5927456569985305
-0.5142667068016279,-0.5142667068016279
-0.5275933209860076,-0.5275933209860076
-0.557208019173518,-0.557208019173518
-0.5194492789844423,-0.5194492789844423
-0.42764371460315986,-0.42764371460315986
-0.38692350459533303,-0.38692350459533303
-0.42764371460315986,-0.42764371460315986
-0.504641929890687,-0.504641929890687
-0.557208019173518,-0.557208019173518
-0.5853419824516529,-0.5853419824516529
-0.6001493315454082,-0.6001493315454082
-0.5957071268172816,-0.5957071268172816
-0.557208019173518,-0.557208019173518
-0.5150070742563156,-0.5150070742563156
-0.5142667068016279,-0.5142667068016279
-0.560169488992269,-0.560169488992269
-0.6001493315454082,-0.6001493315454082
-0.594226391907906,-0.594226391907906
-0.557208019173518,-0.557208019173518
-0.5305547908047586,-0.5305547908047586
-0.5142667068016279,-0.5142667068016279
-0.48095017134067863,-0.48095017134067863
-0.42764371460315986,-0.42764371460315986
-0.4002501187797127,-0.4002501187797127
-0.42764371460315986,-0.42764371460315986
-0.486132743523493,-0.486132743523493
-0.5142667068016279,-0.5142667068016279
-0.48835384588755626,-0.48835384588755626
-0.42764371460315986,-0.42764371460315986
-0.3632317460453247,-0.3632317460453247
-0.2988197774874895,-0.2988197774874895
-0.2536573627515361,-0.2536573627515361
-0.2551380976609116,-0.2551380976609116
-0.2936372053046752,-0.2936372053046752
-0.2988197774874895,-0.2988197774874895
-0.2403307485671564,-0.2403307485671564
-0.16925547291713136,-0.16925547291713136
-0.14852518418587404,-0.14852518418587404
-0.16925547291713136,-0.16925547291713136
-0.19590870128589075,-0.19590870128589075
-0.21219678528902147,-0.21219678528902147
-0.2025720083780806,-0.2025720083780806
-0.12631416054524122,-0.12631416054524122
0.001769409115741391,0.001769409115741391
0.08913276876889717,0.08913276876889717
0.05877770312669897,0.05877770312669897
-0.03969116834677321,-0.03969116834677321
-0.10114166708585737,-0.10114166708585737
-0.0833728481733511,-0.0833728481733511
-0.0456141079842753,-0.0456141079842753
-0.03969116834677321,-0.03969116834677321
-0.05375814998584067,-0.05375814998584067
-0.03969116834677321,-0.03969116834677321
-0.0078553677951995,-0.0078553677951995
0.003250144025116913,0.003250144025116913
-0.021922349434266956,-0.021922349434266956
-0.03969116834677321,-0.03969116834677321
-0.03524896361864665,-0.03524896361864665
-0.03969116834677321,-0.03969116834677321
-0.08411321562803886,-0.08411321562803886
-0.12631416054524122,-0.12631416054524122
-0.12261232327180242,-0.12261232327180242
-0.0833728481733511,-0.0833728481733511
-0.05375814998584067,-0.05375814998584067
-0.03969116834677321,-0.03969116834677321
-0.03302786125458337,-0.03302786125458337
-0.03969116834677321,-0.03969116834677321
-0.07819027599053678,-0.07819027599053678
-0.12631416054524122,-0.12631416054524122
-0.1588903285515027,-0.1588903285515027
-0.16925547291713136,-0.16925547291713136
-0.16185179837025374,-0.16185179837025374
-0.12631416054524122,-0.12631416054524122
-0.08485358308272663,-0.08485358308272663
-0.0833728481733511,-0.0833728481733511
-0.1418618770936842,-0.1418618770936842
-0.21219678528902147,-0.21219678528902147
-0.24921515802340952,-0.24921515802340952
-0.2551380976609116,-0.2551380976609116
-0.2603206698437259,-0.2603206698437259
-0.2551380976609116,-0.2551380976609116
-0.23218670656559104,-0.23218670656559104
-0.21219678528902147,-0.21219678528902147
-0.23736927874840535,-0.23736927874840535
-0.2988197774874895,-0.2988197774874895
-0.3595299087718859,-0.3595299087718859
-0.3847024022312698,-0.3847024022312698
-0.3758179927750166,-0.3758179927750166
-0.34176108985937964,-0.34176108985937964
-0.3121463916718692,-0.3121463916718692
-0.2988197774874895,-0.2988197774874895
-0.30770418694374263,-0.30770418694374263
-0.2988197774874895,-0.2988197774874895
-0.26402250711716474,-0.26402250711716474
-0.21219678528902147,-0.21219678528902147
-0.18258208710151105,-0.18258208710151105
-0.16925547291713136,-0.16925547291713136
-0.15740959364212717,-0.15740959364212717
-0.12631416054524122,-0.12631416054524122
-0.09521872744835527,-0.09521872744835527
-0.0833728481733511,-0.0833728481733511
-0.09892056472179409,-0.09892056472179409
-0.12631416054524122,-0.12631416054524122
-0.16111143091556598,-0.16111143091556598
-0.21219678528902147,-0.21219678528902147
-0.26624360948122805,-0.26624360948122805
-0.21219678528902147,-0.21219678528902147
0.12541077404859743,0.12541077404859743
0.8650378612816705,0.8650378612816705
1.9008119303898479,1.9008119303898479
2.8899428498526962,2.8899428498526962
3.43115145922945,3.43115145922945
3.3637780208528634,3.3637780208528634
2.8892024823980087,2.8892024823980087
2.373166366480639,2.373166366480639
1.9978000669539446,1.9978000669539446
1.6831438987116463,1.6831438987116463
1.2966720873646351,1.2966720873646351
0.8650378612816705,0.8650378612816705
0.4852293570268492,0.4852293570268492
0.17575576096736517,0.17575576096736517
-0.11965085345305138,-0.11965085345305138
-0.3847024022312698,-0.3847024022312698
-0.5401795677156995,-0.5401795677156995
-0.557208019173518,-0.557208019173518
-0.5187089115297545,-0.5187089115297545
-0.5142667068016279,-0.5142667068016279
-0.5579483866282058,-0.5579483866282058
-0.6001493315454082,-0.6001493315454082
-0.6208796202766654,-0.6208796202766654
-0.6430906439172983,-0.6430906439172983
-0.693435630836066,-0.693435630836066
-0.7297136361157663,-0.7297136361157663
-0.7126851846579478,-0.7126851846579478
-0.6430906439172983,-0.6430906439172983
-0.5949667593625938,-0.5949667593625938
-0.6001493315454082,-0.6001493315454082
-0.6379080717344839,-0.6379080717344839
-0.6430906439172983,-0.6430906439172983
-0.5949667593625938,-0.5949667593625938
-0.5142667068016279,-0.5142667068016279
-0.45281620806254375,-0.45281620806254375
-0.42764371460315986,-0.42764371460315986
-0.41579783532815573,-0.41579783532815573
-0.3847024022312698,-0.3847024022312698
-0.36027027622657365,-0.36027027622657365
-0.3847024022312698,-0.3847024022312698
-0.4350473891500375,-0.4350473891500375
-0.42764371460315986,-0.42764371460315986
-0.352866601679696,-0.352866601679696
-0.2988197774874895,-0.2988197774874895
-0.3387996200406286,-0.3387996200406286
-0.42764371460315986,-0.42764371460315986
-0.48983458079693176,-0.48983458079693176
-0.5142667068016279,-0.5142667068016279
-0.5268529535313198,-0.5268529535313198
-0.5142667068016279,-0.5142667068016279
-0.4668831897016112,-0.4668831897016112
-0.42764371460315986,-0.42764371460315986
-0.45281620806254375,-0.45281620806254375
-0.5142667068016279,-0.5142667068016279
-0.5431410375344505,-0.5431410375344505
-0.5142667068016279,-0.5142667068016279
-0.4654024547922357,-0.4654024547922357
-0.42764371460315986,-0.42764371460315986
-0.4061730584172148,-0.4061730584172148
-0.3847024022312698,-0.3847024022312698
-0.35508770404375933,-0.35508770404375933
-0.2988197774874895,-0.2988197774874895
-0.20479311074214387,-0.20479311074214387
-0.0833728481733511,-0.0833728481733511
0.017317125664184366,0.017317125664184366
0.04619145639700704,0.04619145639700704
-0.018960879615515912,-0.018960879615515912
-0.12631416054524122,-0.12631416054524122
-0.19368759892182746,-0.19368759892182746
-0.16925547291713136,-0.16925547291713136
-0.09447835999366752,-0.09447835999366752
-0.03969116834677321,-0.03969116834677321
-0.03747006598270993,-0.03747006598270993
-0.03969116834677321,-0.03969116834677321
-0.02414345179833024,-0.02414345179833024
0.003250144025116913,0.003250144025116913
-0.010816837613950542,-0.010816837613950542
-0.03969116834677321,-0.03969116834677321
-0.024883819253017997,-0.024883819253017997
0.08913276876889717,0.08913276876889717
0.22980258515957172,0.22980258515957172
0.3045796980830356,0.3045796980830356
0.31420447499397647,0.31420447499397647
0.34752101045492567,0.34752101045492567
0.3800971784611872,0.3800971784611872
0.3045796980830356,0.3045796980830356
0.15428510478142013,0.15428510478142013
0.13207408114078728,0.13207408114078728
0.2831090418970905,0.2831090418970905
0.4341440026533937,0.4341440026533937
0.5577853675862497,0.5577853675862497
0.9509204860254508,0.9509204860254508
1.789016444731996,1.789016444731996
2.804060225108916,2.804060225108916
3.6058781785357614,3.6058781785357614
4.096741800993747,4.096741800993747
4.30404468830632,4.30404468830632
4.139683113365637,4.139683113365637
3.588849727077943,3.588849727077943
2.9328841622245863,2.9328841622245863
2.4375783350384745,2.4375783350384745
2.028155132596143,2.028155132596143
1.5017538723131447,1.5017538723131447
0.9079791736535606,0.9079791736535606
0.439326574836208,0.439326574836208
0.13207408114078728,0.13207408114078728
-0.1211315883624269,-0.1211315883624269
-0.34176108985937964,-0.34176108985937964
-0.4824309062500542,-0.4824309062500542
-0.557208019173518,-0.557208019173518
-0.6149566806391633,-0.6149566806391633
-0.6430906439172983,-0.6430906439172983
-0.6356869693704207,-0.6356869693704207
-0.6430906439172983,-0.6430906439172983
-0.6978778355641926,-0.6978778355641926
-0.7297136361157663,-0.7297136361157663
-0.7104640822938845,-0.7104640822938845
-0.6860319562891884,-0.6860319562891884
-0.703060407747007,-0.703060407747007
-0.6860319562891884,-0.6860319562891884
-0.6142163131844756,-0.6142163131844756
-0.557208019173518,-0.557208019173518
-0.5794190428141508,-0.5794190428141508
-0.6001493315454082,-0.6001493315454082
-0.5564676517188303,-0.5564676517188303
-0.5142667068016279,-0.5142667068016279
-0.5816401451782142,-0.5816401451782142
-0.7297136361157663,-0.7297136361157663
-0.851133898684559,-0.851133898684559
-0.9014788856033268,-0.9014788856033268
-0.9148054997877065,-0.9148054997877065
-0.9014788856033268,-0.9014788856033268
-0.8503935312298713,-0.8503935312298713
-0.7726549484876564,-0.7726549484876564
-0.7149062870220111,-0.7149062870220111
-0.6860319562891884,-0.6860319562891884
-0.6571576255563657,-0.6571576255563657
-0.6001493315454082,-0.6001493315454082
-0.541660302625075,-0.541660302625075
-0.5142667068016279,-0.5142667068016279
-0.5068630322547503,-0.5068630322547503
-0.47058502697505,-0.47058502697505
-0.41135563060002917,-0.41135563060002917
-0.3847024022312698,-0.3847024022312698
-0.41135563060002917,-0.41135563060002917
-0.42764371460315986,-0.42764371460315986
-0.39210607677814735,-0.39210607677814735
-0.34176108985937964,-0.34176108985937964
-0.3217711685828101,-0.3217711685828101
-0.2988197774874895,-0.2988197774874895
-0.247734423114034,-0.247734423114034
-0.21219678528902147,-0.21219678528902147
-0.23218670656559104,-0.23218670656559104
-0.2551380976609116,-0.2551380976609116
-0.22626376692808894,-0.22626376692808894
-0.16925547291713136,-0.16925547291713136
-0.13964077472962091,-0.13964077472962091
-0.12631416054524122,-0.12631416054524122
-0.11224717890617378,-0.11224717890617378
-0.12631416054524122,-0.12631416054524122
-0.2084949480155827,-0.2084949480155827
-0.2988197774874895,-0.2988197774874895
-0.33361704785781426,-0.33361704785781426
-0.2988197774874895,-0.2988197774874895
-0.2403307485671564,-0.2403307485671564
-0.16925547291713136,-0.16925547291713136
-0.1211315883624269,-0.1211315883624269
-0.12631416054524122,-0.12631416054524122
-0.1685151054624436,-0.1685151054624436
-0.16925547291713136,-0.16925547291713136
-0.1381600398202454,-0.1381600398202454
-0.16925547291713136,-0.16925547291713136
-0.281791326029671,-0.281791326029671
-0.34176108985937964,-0.34176108985937964
-0.24107111602184417,-0.24107111602184417
0.003250144025116913,0.003250144025116913
0.386760485553377,0.386760485553377
1.036803110769231,1.036803110769231
2.000021169318008,2.000021169318008
3.0195071544230543,3.0195071544230543
3.668809412184221,3.668809412184221
3.7517305671092505,3.7517305671092505
3.4415166035950784,3.4415166035950784
3.0624484667949448,3.0624484667949448
2.761118912737026,2.761118912737026
2.4590489912244196,2.4590489912244196
2.025193662777392,2.025193662777392
1.4676969693975077,1.4676969693975077
0.9153828482004382,0.9153828482004382
0.47708531502528384,0.47708531502528384
0.14466032787047922,0.14466032787047922
-0.12631416054524122,-0.12631416054524122
-0.33213631294843876,-0.33213631294843876
-0.42764371460315986,-0.42764371460315986
-0.4328262867859742,-0.4328262867859742
-0.42764371460315986,-0.42764371460315986
-0.45503731042660706,-0.45503731042660706
-0.47058502697505,-0.47058502697505
-0.4505951056984805,-0.4505951056984805
-0.42764371460315986,-0.42764371460315986
-0.43578775660472524,-0.43578775660472524
-0.42764371460315986,-0.42764371460315986
-0.3950675465968984,-0.3950675465968984
-0.3847024022312698,-0.3847024022312698
-0.4454125335156661,-0.4454125335156661
-0.5142667068016279,-0.5142667068016279
-0.5438814049891383,-0.5438814049891383
-0.557208019173518,-0.557208019173518
-0.5934860244532183,-0.5934860244532183
-0.6001493315454082,-0.6001493315454082
-0.5505447120813282,-0.5505447120813282
-0.5142667068016279,-0.5142667068016279
-0.575717205540712,-0.575717205540712
-0.6860319562891884,-0.6860319562891884
-0.7334154733892051,-0.7334154733892051
-0.6860319562891884,-0.6860319562891884
-0.6208796202766654,-0.6208796202766654
-0.6001493315454082,-0.6001493315454082
-0.6223603551860409,-0.6223603551860409
-0.6430906439172983,-0.6430906439172983
-0.6356869693704207,-0.6356869693704207
-0.6001493315454082,-0.6001493315454082
-0.575717205540712,-0.575717205540712
-0.6001493315454082,-0.6001493315454082
-0.6704842397407454,-0.6704842397407454
-0.7297136361157663,-0.7297136361157663
-0.7356365757532684,-0.7356365757532684
-0.6860319562891884,-0.6860319562891884
-0.606812638637598,-0.606812638637598
-0.5142667068016279,-0.5142667068016279
-0.44097032878753956,-0.44097032878753956
-0.42764371460315986,-0.42764371460315986
-0.47502723170317657,-0.47502723170317657
-0.5142667068016279,-0.5142667068016279
-0.48095017134067863,-0.48095017134067863
-0.3847024022312698,-0.3847024022312698
-0.29437757275936294,-0.29437757275936294
-0.2551380976609116,-0.2551380976609116
-0.2736472840281056,-0.2736472840281056
-0.2988197774874895,-0.2988197774874895
-0.27438765148279337,-0.27438765148279337
-0.16925547291713136,-0.16925547291713136
-0.0833728481733511,-0.0833728481733511
-0.12631416054524122,-0.12631416054524122
-0.28771426566717306,-0.28771426566717306
-0.3847024022312698,-0.3847024022312698
-0.3269537407656244,-0.3269537407656244
-0.21219678528902147,-0.21219678528902147
-0.18258208710151105,-0.18258208710151105
-0.21219678528902147,-0.21219678528902147
-0.22034082729058685,-0.22034082729058685
-0.21219678528902147,-0.21219678528902147
-0.2440325858405952,-0.2440325858405952
-0.2988197774874895,-0.2988197774874895
-0.33509778276718977,-0.33509778276718977
-0.2988197774874895,-0.2988197774874895
-0.02414345179833024,-0.02414345179833024
0.6925322443394222,0.6925322443394222
1.776430198002304,1.776430198002304
2.847001537480806,2.847001537480806
3.622166262538892,3.622166262538892
4.139683113365637,4.139683113365637
4.427686053239176,4.427686053239176
4.312188730307885,4.312188730307885
3.7391443203795585,3.7391443203795585
3.0195071544230543,3.0195071544230543
2.444982009585352,2.444982009585352
1.9422725078523624,1.9422725078523624
1.334430827553711,1.334430827553711
0.7354735567113123,0.7354735567113123
0.36158799209399317,0.36158799209399317
0.17575576096736517,0.17575576096736517
-0.03228749379989561,-0.03228749379989561
-0.2988197774874895,-0.2988197774874895
-0.5001997251625604,-0.5001997251625604
-0.6001493315454082,-0.6001493315454082
-0.6926952633813782,-0.6926952633813782
-0.8155962608595465,-0.8155962608595465
-0.9044403554220778,-0.9044403554220778
-0.9014788856033268,-0.9014788856033268
-0.851133898684559,-0.851133898684559
-0.8155962608595465,-0.8155962608595465
-0.8333650797720528,-0.8333650797720528
-0.8585375732314366,-0.8585375732314366
-0.8563164708673734,-0.8563164708673734
-0.8155962608595465,-0.8155962608595465
-0.7948659721282892,-0.7948659721282892
-0.8155962608595465,-0.8155962608595465
-0.8555761034126856,-0.8555761034126856
-0.8585375732314366,-0.8585375732314366
-0.8318843448626773,-0.8318843448626773
-0.8155962608595465,-0.8155962608595465
-0.8363265495908039,-0.8363265495908039
-0.8585375732314366,-0.8585375732314366
-0.8496531637751835,-0.8496531637751835
-0.8155962608595465,-0.8155962608595465
-0.8015292792204791,-0.8015292792204791
-0.8155962608595465,-0.8155962608595465
-0.8304036099533018,-0.8304036099533018
-0.8155962608595465,-0.8155962608595465
-0.7867219301267239,-0.7867219301267239
-0.7726549484876564,-0.7726549484876564
-0.7785778881251585,-0.7785778881251585
-0.7726549484876564,-0.7726549484876564
-0.7371173106626439,-0.7371173106626439
-0.6860319562891884,-0.6860319562891884
-0.6541961557376147,-0.6541961557376147
-0.6430906439172983,-0.6430906439172983
-0.6319851320969818,-0.6319851320969818
-0.6001493315454082,-0.6001493315454082
-0.557208019173518,-0.557208019173518
-0.5142667068016279,-0.5142667068016279
-0.48169053879536644,-0.48169053879536644
-0.42764371460315986,-0.42764371460315986
-0.3402803549500041,-0.3402803549500041
-0.21219678528902147,-0.21219678528902147
-0.09966093217648184,-0.09966093217648184
-0.03969116834677321,-0.03969116834677321
-0.050056312712401865,-0.050056312712401865
-0.0833728481733511,-0.0833728481733511
-0.08707468544678991,-0.08707468544678991
-0.03969116834677321,-0.03969116834677321
-0.0034131630670729348,-0.0034131630670729348
-0.03969116834677321,-0.03969116834677321
-0.1344582025468066,-0.1344582025468066
-0.21219678528902147,-0.21219678528902147
-0.26254177220778924,-0.26254177220778924
-0.2988197774874895,-0.2988197774874895
-0.19146649655776418,-0.19146649655776418
0.3045796980830356,0.3045796980830356
1.2352215886255509,1.2352215886255509
2.3294846866540615,2.3294846866540615
3.279376131018459,3.279376131018459
3.9671774964233886,3.9671774964233886
4.32699607940164,4.32699607940164
4.225565738109418,4.225565738109418
3.67251124945766,3.67251124945766
2.9758254745964767,2.9758254745964767
2.4346168652197235,2.4346168652197235
2.028155132596143,2.028155132596143
1.5587621663241025,1.5587621663241025
0.9938617983973409,0.9938617983973409
0.4526531890205877,0.4526531890205877
0.003250144025116913,0.003250144025116913
-0.35878954131719815,-0.35878954131719815
-0.6001493315454082,-0.6001493315454082
-0.7015796728376313,-0.7015796728376313
-0.7297136361157663,-0.7297136361157663
-0.7696934786689054,-0.7696934786689054
-0.8155962608595465,-0.8155962608595465
-0.8392880194095549,-0.8392880194095549
-0.8585375732314366,-0.8585375732314366
-0.8948155785111369,-0.8948155785111369
-0.9014788856033268,-0.9014788856033268
-0.8740852897798796,-0.8740852897798796
-0.8585375732314366,-0.8585375732314366
-0.8955559459658247,-0.8955559459658247
-0.9014788856033268,-0.9014788856033268
-0.8311439774079895,-0.8311439774079895
-0.7297136361157663,-0.7297136361157663
-0.6838108539251251,-0.6838108539251251
-0.6860319562891884,-0.6860319562891884
-0.7141659195673233,-0.7141659195673233
-0.7726549484876564,-0.7726549484876564
-0.8614990430501878,-0.8614990430501878
-0.9014788856033268,-0.9014788856033268
-0.8392880194095549,-0.8392880194095549
-0.7297136361157663,-0.7297136361157663
-0.674926444468872,-0.674926444468872
-0.6860319562891884,-0.6860319562891884
-0.7015796728376313,-0.7015796728376313
-0.6860319562891884,-0.6860319562891884
-0.671964974650121,-0.671964974650121
-0.6860319562891884,-0.6860319562891884
-0.7171273893860743,-0.7171273893860743
-0.7297136361157663,-0.7297136361157663
-0.7149062870220111,-0.7149062870220111
-0.6860319562891884,-0.6860319562891884
-0.6623401977391801,-0.6623401977391801
-0.6430906439172983,-0.6430906439172983
-0.625321825004792,-0.625321825004792
-0.6001493315454082,-0.6001493315454082
-0.5638713262657079,-0.5638713262657079
-0.5142667068016279,-0.5142667068016279
-0.4639217198828602,-0.4639217198828602
-0.42764371460315986,-0.42764371460315986
-0.4069134258719026,-0.4069134258719026
-0.3847024022312698,-0.3847024022312698
-0.3573088064078226,-0.3573088064078226
-0.34176108985937964,-0.34176108985937964
-0.3595299087718859,-0.3595299087718859
-0.3847024022312698,-0.3847024022312698
-0.35804917386251034,-0.35804917386251034
-0.2551380976609116,-0.2551380976609116
-0.16037106346087823,-0.16037106346087823
-0.16925547291713136,-0.16925547291713136
-0.2580995674796627,-0.2580995674796627
-0.2988197774874895,-0.2988197774874895
-0.25069589293278505,-0.25069589293278505
-0.21219678528902147,-0.21219678528902147
-0.2529169952968483,-0.2529169952968483
-0.2988197774874895,-0.2988197774874895
-0.27957022366560774,-0.27957022366560774
-0.2551380976609116,-0.2551380976609116
-0.3099252893078059,-0.3099252893078059
-0.3847024022312698,-0.3847024022312698
-0.3661932158640757,-0.3661932158640757
-0.2551380976609116,-0.2551380976609116
-0.1722169427358824,-0.1722169427358824
-0.16925547291713136,-0.16925547291713136
-0.17888024982807224,-0.17888024982807224
-0.12631416054524122,-0.12631416054524122
-0.05153704762177739,-0.05153704762177739
-0.03969116834677321,-0.03969116834677321
-0.09743982981241855,-0.09743982981241855
-0.12631416054524122,-0.12631416054524122
-0.07226733635303469,-0.07226733635303469
0.003250144025116913,0.003250144025116913
0.009173083662619,0.009173083662619
-0.03969116834677321,-0.03969116834677321
-0.06708476417022037,-0.06708476417022037
-0.03969116834677321,-0.03969116834677321
-0.006374632885823978,-0.006374632885823978
0.003250144025116913,0.003250144025116913
-0.0011920607030096522,-0.0011920607030096522
0.003250144025116913,0.003250144025116913
-0.0011920607030096522,-0.0011920607030096522
-0.03969116834677321,-0.03969116834677321
-0.1211315883624269,-0.1211315883624269
-0.21219678528902147,-0.21219678528902147
-0.27882985621091994,-0.27882985621091994
-0.2988197774874895,-0.2988197774874895
-0.28475279584842206,-0.28475279584842206
-0.2551380976609116,-0.2551380976609116
-0.22996560420152776,-0.22996560420152776
-0.21219678528902147,-0.21219678528902147
-0.20701421310620716,-0.20701421310620716
-0.21219678528902147,-0.21219678528902147
-0.2440325858405952,-0.2440325858405952
-0.2988197774874895,-0.2988197774874895
-0.3462032945875062,-0.3462032945875062
-0.34176108985937964,-0.34176108985937964
-0.30474271712499157,-0.30474271712499157
-0.2988197774874895,-0.2988197774874895
-0.3462032945875062,-0.3462032945875062
-0.3847024022312698,-0.3847024022312698
-0.37211615550157784,-0.37211615550157784
-0.34176108985937964,-0.34176108985937964
-0.3513858667703205,-0.3513858667703205
-0.3847024022312698,-0.3847024022312698
-0.41061526314534136,-0.41061526314534136
-0.42764371460315986,-0.42764371460315986
-0.44467216606097837,-0.44467216606097837
-0.42764371460315986,-0.42764371460315986
-0.36545284840938796,-0.36545284840938796
-0.2988197774874895,-0.2988197774874895
-0.28105095857498325,-0.28105095857498325
-0.2988197774874895,-0.2988197774874895
-0.3084445543984304,-0.3084445543984304
-0.2988197774874895,-0.2988197774874895
-0.29585830766873844,-0.29585830766873844
-0.2988197774874895,-0.2988197774874895
-0.2751280189374812,-0.2751280189374812
-0.21219678528902147,-0.21219678528902147
-0.16333253327962927,-0.16333253327962927
-0.16925547291713136,-0.16925547291713136
-0.18406282201088658,-0.18406282201088658
-0.12631416054524122,-0.12631416054524122
-0.03598933107333441,-0.03598933107333441
-0.03969116834677321,-0.03969116834677321
-0.15222702145931286,-0.15222702145931286
-0.21219678528902147,-0.21219678528902147
-0.13593893745618213,-0.13593893745618213
-0.03969116834677321,-0.03969116834677321
-0.05745998725927948,-0.05745998725927948
-0.12631416054524122,-0.12631416054524122
-0.1285352629093045,-0.1285352629093045
-0.0833728481733511,-0.0833728481733511
-0.08707468544678991,-0.08707468544678991
-0.12631416054524122,-0.12631416054524122
-0.1248334256358657,-0.1248334256358657
-0.0833728481733511,-0.0833728481733511
-0.07819027599053678,-0.07819027599053678
-0.12631416054524122,-0.12631416054524122
-0.1833224545561988,-0.1833224545561988
-0.21219678528902147,-0.21219678528902147
-0.2099756829249582,-0.2099756829249582
-0.16925547291713136,-0.16925547291713136
-0.11298754636086153,-0.11298754636086153
-0.0833728481733511,-0.0833728481733511
-0.10114166708585737,-0.10114166708585737
-0.12631416054524122,-0.12631416054524122
-0.12927563036399228,-0.12927563036399228
-0.12631416054524122,-0.12631416054524122
-0.1477848167311863,-0.1477848167311863
-0.16925547291713136,-0.16925547291713136
-0.15963069600619045,-0.15963069600619045
-0.12631416054524122,-0.12631416054524122
-0.12187195581711467,-0.12187195581711467
-0.16925547291713136,-0.16925547291713136
-0.24699405565934623,-0.24699405565934623
-0.2988197774874895,-0.2988197774874895
-0.2869738982124853,-0.2869738982124853
-0.21219678528902147,-0.21219678528902147
-0.13890040727493316,-0.13890040727493316
-0.12631416054524122,-0.12631416054524122
-0.16407290073431702,-0.16407290073431702
-0.16925547291713136,-0.16925547291713136
-0.11150681145148601,-0.11150681145148601
-0.03969116834677321,-0.03969116834677321
-0.010076470159262782,-0.010076470159262782
0.003250144025116913,0.003250144025116913
0.02694190257512526,0.02694190257512526
0.04619145639700704,0.04619145639700704
0.03656667948606615,0.03656667948606615
0.04619145639700704,0.04619145639700704
0.08913276876889717,0.08913276876889717
0.13207408114078728,0.13207408114078728
0.12096856932047088,0.12096856932047088
0.08913276876889717,0.08913276876889717
0.06470064276420107,0.06470064276420107
0.04619145639700704,0.04619145639700704
0.035826312031378385,0.035826312031378385
0.08913276876889717,0.08913276876889717
0.1883420076970571,0.1883420076970571
0.2186970733392553,0.2186970733392553
0.10912269004546671,0.10912269004546671
-0.03969116834677321,-0.03969116834677321
-0.10706460672335945,-0.10706460672335945
-0.0833728481733511,-0.0833728481733511
-0.0034131630670729348,-0.0034131630670729348
0.2186970733392553,0.2186970733392553
0.7243680448909959,0.7243680448909959
1.5543199615959757,1.5543199615959757
2.559738965061955,2.559738965061955
3.4504010130513314,3.4504010130513314
3.8687086249499165,3.8687086249499165
3.622166262538892,3.622166262538892
2.8973465243995737,2.8973465243995737
2.157719437166501,2.157719437166501
1.6875861034397728,1.6875861034397728
1.3818143446537277,1.3818143446537277
1.008669147491096,1.008669147491096
0.5629679397690641,0.5629679397690641
0.19500531478924696,0.19500531478924696
-0.03969116834677321,-0.03969116834677321
-0.2210811947452746,-0.2210811947452746
-0.3847024022312698,-0.3847024022312698
-0.4927960506156828,-0.4927960506156828
-0.5142667068016279,-0.5142667068016279
-0.48095017134067863,-0.48095017134067863
-0.42764371460315986,-0.42764371460315986
-0.38544276968595753,-0.38544276968595753
-0.3847024022312698,-0.3847024022312698
-0.4535565755172315,-0.4535565755172315
-0.557208019173518,-0.557208019173518
-0.6275429273688553,-0.6275429273688553
-0.6001493315454082,-0.6001493315454082
-0.5120456044375646,-0.5120456044375646
-0.42764371460315986,-0.42764371460315986
-0.3980290164156495,-0.3980290164156495
-0.3847024022312698,-0.3847024022312698
-0.3513858667703205,-0.3513858667703205
-0.2988197774874895,-0.2988197774874895
-0.26550324202654024,-0.26550324202654024
-0.2551380976609116,-0.2551380976609116
-0.26772434439060355,-0.26772434439060355
-0.2988197774874895,-0.2988197774874895
-0.33805925258594083,-0.33805925258594083
-0.34176108985937964,-0.34176108985937964
-0.30178124730624056,-0.30178124730624056
-0.2551380976609116,-0.2551380976609116
-0.23366744147496654,-0.23366744147496654
-0.21219678528902147,-0.21219678528902147
-0.18110135219213552,-0.18110135219213552
-0.16925547291713136,-0.16925547291713136
-0.19590870128589075,-0.19590870128589075
-0.21219678528902147,-0.21219678528902147
-0.19220686401245193,-0.19220686401245193
-0.16925547291713136,-0.16925547291713136
-0.18702429182963762,-0.18702429182963762
-0.21219678528902147,-0.21219678528902147
-0.20553347819683163,-0.20553347819683163
-0.16925547291713136,-0.16925547291713136
-0.13371783509211885,-0.13371783509211885
-0.0833728481733511,-0.0833728481733511
-0.010076470159262782,-0.010076470159262782
0.04619145639700704,0.04619145639700704
0.016576758209496608,0.016576758209496608
-0.0833728481733511,-0.0833728481733511
-0.15592885873275167,-0.15592885873275167
-0.12631416054524122,-0.12631416054524122
-0.05449851744052843,-0.05449851744052843
-0.03969116834677321,-0.03969116834677321
-0.07670954108116125,-0.07670954108116125
-0.03969116834677321,-0.03969116834677321
0.10023828058921358,0.10023828058921358
0.2186970733392553,0.2186970733392553
0.1964860496986225,0.1964860496986225
0.08913276876889717,0.08913276876889717
0.003250144025116913,0.003250144025116913
-0.03969116834677321,-0.03969116834677321
-0.06930586653428365,-0.06930586653428365
-0.03969116834677321,-0.03969116834677321
0.077286889493893,0.077286889493893
0.2186970733392553,0.2186970733392553
0.2890319815345926,0.2890319815345926
0.3045796980830356,0.3045796980830356
0.3208677820861663,0.3208677820861663
0.34752101045492567,0.34752101045492567
0.36158799209399317,0.36158799209399317
0.39120269028150356,0.39120269028150356
0.4437687795643346,0.4437687795643346
0.47708531502528384,0.47708531502528384
0.44302841210964683,0.44302841210964683
0.39120269028150356,0.39120269028150356
0.3734338713689973,0.3734338713689973
0.39120269028150356,0.39120269028150356
0.3963852624643179,0.3963852624643179
0.39120269028150356,0.39120269028150356
0.386760485553377,0.386760485553377
0.39120269028150356,0.39120269028150356
0.39120269028150356,0.39120269028150356
0.39120269028150356,0.39120269028150356
0.3815779133705627,0.3815779133705627
0.34752101045492567,0.34752101045492567
0.29569528862678246,0.29569528862678246
0.3045796980830356,0.3045796980830356
0.4793064173893471,0.4793064173893471
0.8220965489097803,0.8220965489097803
1.1582233733380238,1.1582233733380238
1.3388730322818374,1.3388730322818374
1.4499281504850015,1.4499281504850015
1.6831438987116463,1.6831438987116463
1.9370899356695481,1.9370899356695481
1.8556495156538946,1.8556495156538946
1.3388730322818374,1.3388730322818374
0.7784148690832025,0.7784148690832025
0.554083530312811,0.554083530312811
0.5629679397690641,0.5629679397690641
0.439326574836208,0.439326574836208
0.08913276876889717,0.08913276876889717
-0.300300512396865,-0.300300512396865
-0.6001493315454082,-0.6001493315454082
-0.8763063921439429,-0.8763063921439429
-1.160607494744043,-1.160607494744043
-1.361987442419114,-1.361987442419114
-1.3760544240581816,-1.3760544240581816
-1.231682770394068,-1.231682770394068
-1.031043190173685,-1.031043190173685
-0.8614990430501878,-0.8614990430501878
-0.7297136361157663,-0.7297136361157663
-0.6201392528219777,-0.6201392528219777
-0.5142667068016279,-0.5142667068016279
-0.4120959980547169,-0.4120959980547169
-0.2988197774874895,-0.2988197774874895
-0.2025720083780806,-0.2025720083780806
-0.16925547291713136,-0.16925547291713136
-0.22552339947340116,-0.22552339947340116
-0.2988197774874895,-0.2988197774874895
-0.31288675912655695,-0.31288675912655695
-0.2551380976609116,-0.2551380976609116
-0.18480318946557434,-0.18480318946557434
-0.12631416054524122,-0.12631416054524122
-0.06930586653428365,-0.06930586653428365
0.003250144025116913,0.003250144025116913
0.07284468476576643,0.07284468476576643
0.13207408114078728,0.13207408114078728
0.1905631100611204,0.1905631100611204
0.26163838571114545,0.26163838571114545
0.32382925190491735,0.32382925190491735
0.34752101045492567,0.34752101045492567
0.33715586608929704,0.33715586608929704
0.34752101045492567,0.34752101045492567
0.4060100393752588,0.4060100393752588
0.47708531502528384,0.47708531502528384
0.49929633866591666,0.49929633866591666
0.47708531502528384,0.47708531502528384
0.4593164961127776,0.4593164961127776
0.47708531502528384,0.47708531502528384
0.49559450139247785,0.49559450139247785
0.47708531502528384,0.47708531502528384
0.41119261155807313,0.41119261155807313
0.34752101045492567,0.34752101045492567
0.349742112818989,0.349742112818989
0.4341440026533937,0.4341440026533937
0.5081807481221697,0.5081807481221697
0.47708531502528384,0.47708531502528384
0.3771357086424361,0.3771357086424361
0.34752101045492567,0.34752101045492567
0.3971256299190057,0.3971256299190057
0.39120269028150356,0.39120269028150356
0.2808879395330272,0.2808879395330272
0.2186970733392553,0.2186970733392553
0.2860705117158415,0.2860705117158415
0.34752101045492567,0.34752101045492567
0.2542347111642678,0.2542347111642678
0.08913276876889717,0.08913276876889717
-0.006374632885823978,-0.006374632885823978
-0.03969116834677321,-0.03969116834677321
-0.1041031369046084,-0.1041031369046084
-0.16925547291713136,-0.16925547291713136
-0.1929472314671397,-0.1929472314671397
-0.21219678528902147,-0.21219678528902147
-0.2647628745718525,-0.2647628745718525
-0.2551380976609116,-0.2551380976609116
-0.1529673889140006,-0.1529673889140006
-0.0833728481733511,-0.0833728481733511
-0.1648132681890048,-0.1648132681890048
-0.2988197774874895,-0.2988197774874895
-0.3402803549500041,-0.3402803549500041
-0.2988197774874895,-0.2988197774874895
-0.28105095857498325,-0.28105095857498325
-0.2988197774874895,-0.2988197774874895
-0.29956014494217725,-0.29956014494217725
-0.2551380976609116,-0.2551380976609116
-0.14482334691243526,-0.14482334691243526
0.08913276876889717,0.08913276876889717
0.436365105017457,0.436365105017457
0.7784148690832025,0.7784148690832025
1.0316205385864168,1.0316205385864168
1.2522500400833694,1.2522500400833694
1.4995327699490815,1.4995327699490815
1.6831438987116463,1.6831438987116463
1.6490869957960093,1.6490869957960093
1.3818143446537277,1.3818143446537277
1.0145920871285983,1.0145920871285983
0.6925322443394222,0.6925322443394222
0.454874291384651,0.454874291384651
0.26163838571114545,0.26163838571114545
0.0469318238516948,0.0469318238516948
-0.21219678528902147,-0.21219678528902147
-0.489094213342244,-0.489094213342244
-0.7297136361157663,-0.7297136361157663
-0.9273917465173984,-0.9273917465173984
-1.1169258149174652,-1.1169258149174652
-1.318305762592536,-1.318305762592536
-1.4619370488019618,-1.4619370488019618
-1.448610434617582,-1.448610434617582
-1.2464901194878233,-1.2464901194878233
-0.9710734263439763,-0.9710734263439763
-0.7726549484876564,-0.7726549484876564
-0.7082429799298212,-0.7082429799298212
-0.6860319562891884,-0.6860319562891884
-0.6223603551860409,-0.6223603551860409
-0.5142667068016279,-0.5142667068016279
-0.4202400400562823,-0.4202400400562823
-0.34176108985937964,-0.34176108985937964
-0.2588399349343504,-0.2588399349343504
-0.16925547291713136,-0.16925547291713136
-0.11076644399679825,-0.11076644399679825
-0.0833728481733511,-0.0833728481733511
-0.06708476417022037,-0.06708476417022037
-0.03969116834677321,-0.03969116834677321
-0.01673977725145263,-0.01673977725145263
0.003250144025116913,0.003250144025116913
0.03434557712200287,0.03434557712200287
0.08913276876889717,0.08913276876889717
0.13133371368609953,0.13133371368609953
0.13207408114078728,0.13207408114078728
0.12170893677515865,0.12170893677515865
0.17575576096736517,0.17575576096736517
0.2942145537174069,0.2942145537174069
0.39120269028150356,0.39120269028150356
0.39342379264556687,0.39342379264556687
0.34752101045492567,0.34752101045492567
0.3393769684533603,0.3393769684533603
0.39120269028150356,0.39120269028150356
0.457835761203402,0.457835761203402
0.520026627397174,0.520026627397174
0.5836982285003214,0.5836982285003214
0.6495909319675321,0.6495909319675321
0.6984551839769243,0.6984551839769243
0.7354735567113123,0.7354735567113123
0.7658286223535106,0.7658286223535106
0.7784148690832025,0.7784148690832025
0.7391753939847512,0.7391753939847512
0.6495909319675321,0.6495909319675321
0.5555642652221865,0.5555642652221865
0.520026627397174,0.520026627397174
0.541497283583119,0.541497283583119
0.5629679397690641,0.5629679397690641
0.5237284646706127,0.5237284646706127
0.4341440026533937,0.4341440026533937
0.33567513117992154,0.33567513117992154
0.26163838571114545,0.26163838571114545
0.19796678460799802,0.19796678460799802
0.13207408114078728,0.13207408114078728
0.04989329367044584,0.04989329367044584
-0.03969116834677321,-0.03969116834677321
-0.11224717890617378,-0.11224717890617378
-0.12631416054524122,-0.12631416054524122
-0.11150681145148601,-0.11150681145148601
-0.12631416054524122,-0.12631416054524122
-0.18628392437494987,-0.18628392437494987
-0.21219678528902147,-0.21219678528902147
-0.1892453941937009,-0.1892453941937009
-0.16925547291713136,-0.16925547291713136
-0.195168333831203,-0.195168333831203
-0.21219678528902147,-0.21219678528902147
-0.21737935747183582,-0.21737935747183582
-0.2551380976609116,-0.2551380976609116
-0.3239922709468734,-0.3239922709468734
-0.2988197774874895,-0.2988197774874895
-0.1529673889140006,-0.1529673889140006
-0.03969116834677321,-0.03969116834677321
-0.09077652272022871,-0.09077652272022871
-0.16925547291713136,-0.16925547291713136
-0.04339300562021202,-0.04339300562021202
0.3045796980830356,0.3045796980830356
0.6421872574206545,0.6421872574206545
0.8220965489097803,0.8220965489097803
0.9783140818488979,0.9783140818488979
1.3388730322818374,1.3388730322818374
1.8697164972929619,1.8697164972929619
2.243602061910281,2.243602061910281
2.1740075211696315,2.1740075211696315
1.7697668909101143,1.7697668909101143
1.4462263132115627,1.4462263132115627
1.4676969693975077,1.4676969693975077
1.6379814839756928,1.6379814839756928
1.5543199615959757,1.5543199615959757
1.101955446781754,1.101955446781754
0.5629679397690641,0.5629679397690641
0.2075915615189389,0.2075915615189389
0.003250144025116913,0.003250144025116913
-0.21071605037964597,-0.21071605037964597
-0.42764371460315986,-0.42764371460315986
-0.5431410375344505,-0.5431410375344505
-0.557208019173518,-0.557208019173518
-0.5801594102688387,-0.5801594102688387
-0.6430906439172983,-0.6430906439172983
-0.6882530586532517,-0.6882530586532517
-0.6860319562891884,-0.6860319562891884
-0.693435630836066,-0.693435630836066
-0.7297136361157663,-0.7297136361157663
-0.7563668644845257,-0.7563668644845257
-0.7297136361157663,-0.7297136361157663
-0.690474161017315,-0.690474161017315
-0.6860319562891884,-0.6860319562891884
-0.7082429799298212,-0.7082429799298212
-0.6860319562891884,-0.6860319562891884
-0.6245814575501043,-0.6245814575501043
-0.6001493315454082,-0.6001493315454082
-0.6630805651938678,-0.6630805651938678
-0.7297136361157663,-0.7297136361157663
-0.7149062870220111,-0.7149062870220111
-0.6430906439172983,-0.6430906439172983
-0.6008896990000959,-0.6008896990000959
-0.6001493315454082,-0.6001493315454082
-0.6038511688188469,-0.6038511688188469
-0.6001493315454082,-0.6001493315454082
-0.6149566806391633,-0.6149566806391633
-0.6430906439172983,-0.6430906439172983
-0.6571576255563657,-0.6571576255563657
-0.6430906439172983,-0.6430906439172983
-0.6208796202766654,-0.6208796202766654
-0.6001493315454082,-0.6001493315454082
-0.5683135309938344,-0.5683135309938344
-0.5142667068016279,-0.5142667068016279
-0.4624409849734846,-0.4624409849734846
-0.42764371460315986,-0.42764371460315986
-0.3743372578656411,-0.3743372578656411
-0.2551380976609116,-0.2551380976609116
-0.12261232327180242,-0.12261232327180242
-0.0833728481733511,-0.0833728481733511
-0.14260224454837198,-0.14260224454837198
-0.16925547291713136,-0.16925547291713136
-0.10114166708585737,-0.10114166708585737
-0.03969116834677321,-0.03969116834677321
-0.09743982981241855,-0.09743982981241855
-0.21219678528902147,-0.21219678528902147
-0.26624360948122805,-0.26624360948122805
-0.2551380976609116,-0.2551380976609116
-0.26254177220778924,-0.26254177220778924
-0.2988197774874895,-0.2988197774874895
-0.3136271265812447,-0.3136271265812447
-0.2988197774874895,-0.2988197774874895
-0.2914161029406119,-0.2914161029406119
-0.2988197774874895,-0.2988197774874895
-0.30178124730624056,-0.30178124730624056
-0.2988197774874895,-0.2988197774874895
-0.300300512396865,-0.300300512396865
-0.2988197774874895,-0.2988197774874895
-0.29585830766873844,-0.29585830766873844
-0.2988197774874895,-0.2988197774874895
-0.2965986751234262,-0.2965986751234262
-0.2551380976609116,-0.2551380976609116
-0.20183164092339284,-0.20183164092339284
-0.21219678528902147,-0.21219678528902147
-0.31806933130937126,-0.31806933130937126
-0.42764371460315986,-0.42764371460315986
-0.4454125335156661,-0.4454125335156661
-0.3847024022312698,-0.3847024022312698
-0.3595299087718859,-0.3595299087718859
-0.42764371460315986,-0.42764371460315986
-0.5424006700797628,-0.5424006700797628
-0.6001493315454082,-0.6001493315454082
-0.5520254469907037,-0.5520254469907037
-0.42764371460315986,-0.42764371460315986
-0.3121463916718692,-0.3121463916718692
-0.2551380976609116,-0.2551380976609116
-0.2403307485671564,-0.2403307485671564
-0.21219678528902147,-0.21219678528902147
-0.17295731019057017,-0.17295731019057017
-0.16925547291713136,-0.16925547291713136
-0.22996560420152776,-0.22996560420152776
-0.2988197774874895,-0.2988197774874895
-0.297339042578114,-0.297339042578114
-0.21219678528902147,-0.21219678528902147
-0.12039122090773914,-0.12039122090773914
-0.0833728481733511,-0.0833728481733511
-0.07819027599053678,-0.07819027599053678
-0.03969116834677321,-0.03969116834677321
0.012874920936057804,0.012874920936057804
0.003250144025116913,0.003250144025116913
-0.07893064344522453,-0.07893064344522453
-0.12631416054524122,-0.12631416054524122
-0.08633431799210214,-0.08633431799210214
-0.03969116834677321,-0.03969116834677321
-0.0833728481733511,-0.0833728481733511
-0.16925547291713136,-0.16925547291713136
-0.19146649655776418,-0.19146649655776418
-0.12631416054524122,-0.12631416054524122
-0.04783521034833858,-0.04783521034833858
0.003250144025116913,0.003250144025116913
0.03138410730325182,0.03138410730325182
0.04619145639700704,0.04619145639700704
0.03434557712200287,0.03434557712200287
0.003250144025116913,0.003250144025116913
-0.03672969852802217,-0.03672969852802217
-0.0833728481733511,-0.0833728481733511
-0.1344582025468066,-0.1344582025468066
-0.16925547291713136,-0.16925547291713136
-0.19072612910307643,-0.19072612910307643
-0.21219678528902147,-0.21219678528902147
-0.22330229710933788,-0.22330229710933788
-0.16925547291713136,-0.16925547291713136
-0.08041137835460006,-0.08041137835460006
-0.03969116834677321,-0.03969116834677321
-0.10854534163273497,-0.10854534163273497
-0.21219678528902147,-0.21219678528902147
-0.2780894887562322,-0.2780894887562322
-0.2988197774874895,-0.2988197774874895
-0.3225115360374978,-0.3225115360374978
-0.34176108985937964,-0.34176108985937964
-0.34176108985937964,-0.34176108985937964
-0.34176108985937964,-0.34176108985937964
-0.3802601975031432,-0.3802601975031432
-0.42764371460315986,-0.42764371460315986
-0.4320859193312864,-0.4320859193312864
-0.3847024022312698,-0.3847024022312698
-0.3269537407656244,-0.3269537407656244
-0.21219678528902147,-0.21219678528902147
0.13059334623141178,0.13059334623141178
0.8650378612816705,0.8650378612816705
1.9052541351179744,1.9052541351179744
2.8899428498526962,2.8899428498526962
3.4200459474091334,3.4200459474091334
3.3637780208528634,3.3637780208528634
2.9099327711292657,2.9099327711292657
2.373166366480639,2.373166366480639
1.9474550800351769,1.9474550800351769
1.640202586339756,1.640202586339756
1.3351711950083986,1.3351711950083986
0.9509204860254508,0.9509204860254508
0.5244688321253005,0.5244688321253005
0.17575576096736517,0.17575576096736517
-0.028585656526456803,-0.028585656526456803
-0.12631416054524122,-0.12631416054524122
-0.20553347819683163,-0.20553347819683163
-0.2988197774874895,-0.2988197774874895
-0.3795198300484554,-0.3795198300484554
-0.42764371460315986,-0.42764371460315986
-0.47502723170317657,-0.47502723170317657
-0.557208019173518,-0.557208019173518
-0.6630805651938678,-0.6630805651938678
-0.7297136361157663,-0.7297136361157663
-0.7304540035704541,-0.7304540035704541
-0.6860319562891884,-0.6860319562891884
-0.6445713788266738,-0.6445713788266738
-0.6001493315454082,-0.6001493315454082
-0.5660924286297712,-0.5660924286297712
-0.557208019173518,-0.557208019173518
-0.5838612475422774,-0.5838612475422774
-0.6001493315454082,-0.6001493315454082
-0.5853419824516529,-0.5853419824516529
-0.557208019173518,-0.557208019173518
-0.541660302625075,-0.541660302625075
-0.5142667068016279,-0.5142667068016279
-0.4639217198828602,-0.4639217198828602
-0.42764371460315986,-0.42764371460315986
-0.4424510636969151,-0.4424510636969151
-0.47058502697505,-0.47058502697505
-0.4639217198828602,-0.4639217198828602
-0.42764371460315986,-0.42764371460315986
-0.4135767329640924,-0.4135767329640924
-0.42764371460315986,-0.42764371460315986
-0.4402299613328518,-0.4402299613328518
-0.42764371460315986,-0.42764371460315986
-0.4150574678734679,-0.4150574678734679
-0.42764371460315986,-0.42764371460315986
-0.4728061293391133,-0.4728061293391133
-0.5142667068016279,-0.5142667068016279
-0.504641929890687,-0.504641929890687
-0.42764371460315986,-0.42764371460315986
-0.3491647644062572,-0.3491647644062572
-0.34176108985937964,-0.34176108985937964
-0.38692350459533303,-0.38692350459533303
-0.3847024022312698,-0.3847024022312698
-0.3136271265812447,-0.3136271265812447
-0.2551380976609116,-0.2551380976609116
-0.26254177220778924,-0.26254177220778924
-0.2551380976609116,-0.2551380976609116
-0.1648132681890048,-0.1648132681890048
-0.03969116834677321,-0.03969116834677321
0.017317125664184366,0.017317125664184366
0.003250144025116913,0.003250144025116913
-0.024883819253017997,-0.024883819253017997
-0.03969116834677321,-0.03969116834677321
-0.05227741507646515,-0.05227741507646515
-0.03969116834677321,-0.03969116834677321
0.01805749311887213,0.01805749311887213
0.08913276876889717,0.08913276876889717
0.11208415986421776,0.11208415986421776
0.08913276876889717,0.08913276876889717
0.08172909422201956,0.08172909422201956
0.13207408114078728,0.13207408114078728
0.19944751951737352,0.19944751951737352
0.2186970733392553,0.2186970733392553
0.1661309840564243,0.1661309840564243
0.08913276876889717,0.08913276876889717
0.03138410730325182,0.03138410730325182
0.003250144025116913,0.003250144025116913
-0.010816837613950542,-0.010816837613950542
0.003250144025116913,0.003250144025116913
0.04767219130638256,0.04767219130638256
0.08913276876889717,0.08913276876889717
0.06099880549076225,0.06099880549076225
-0.03969116834677321,-0.03969116834677321
-0.15740959364212717,-0.15740959364212717
-0.21219678528902147,-0.21219678528902147
-0.20479311074214387,-0.20479311074214387
-0.16925547291713136,-0.16925547291713136
-0.16259216582494151,-0.16259216582494151
-0.16925547291713136,-0.16925547291713136
-0.15074628654993733,-0.15074628654993733
-0.0833728481733511,-0.0833728481733511
-0.055238884895216195,-0.055238884895216195
-0.12631416054524122,-0.12631416054524122
-0.20553347819683163,-0.20553347819683163
-0.12631416054524122,-0.12631416054524122
0.06321990785482554,0.06321990785482554
0.13207408114078728,0.13207408114078728
-0.0026727956123851738,-0.0026727956123851738
-0.12631416054524122,-0.12631416054524122
-0.050796680167089624,-0.050796680167089624
0.17575576096736517,0.17575576096736517
0.4985559712112289,0.4985559712112289
1.0804847905958088,1.0804847905958088
2.015568885866451,2.015568885866451
3.0195071544230543,3.0195071544230543
3.6125414856279514,3.6125414856279514
3.622166262538892,3.622166262538892
3.277155028654396,3.277155028654396
2.8899428498526962,2.8899428498526962
2.565661904699457,2.565661904699457
2.243602061910281,2.243602061910281
1.8489862085617046,1.8489862085617046
1.3818143446537277,1.3818143446537277
0.879104842920738,0.879104842920738
0.39120269028150356,0.39120269028150356
-0.02414345179833024,-0.02414345179833024
-0.2988197774874895,-0.2988197774874895
-0.4217207749656578,-0.4217207749656578
-0.47058502697505,-0.47058502697505
-0.5535061819000792,-0.5535061819000792
-0.6860319562891884,-0.6860319562891884
-0.7963467070376647,-0.7963467070376647
-0.8155962608595465,-0.8155962608595465
-0.7689531112142176,-0.7689531112142176
-0.7297136361157663,-0.7297136361157663
-0.7541457621204624,-0.7541457621204624
-0.8155962608595465,-0.8155962608595465
-0.8548357359579979,-0.8548357359579979
-0.8155962608595465,-0.8155962608595465
-0.740078780481395,-0.740078780481395
-0.6860319562891884,-0.6860319562891884
-0.6838108539251251,-0.6838108539251251
-0.6860319562891884,-0.6860319562891884
-0.6697438722860577,-0.6697438722860577
-0.6430906439172983,-0.6430906439172983
-0.6275429273688553,-0.6275429273688553
-0.6001493315454082,-0.6001493315454082
-0.5520254469907037,-0.5520254469907037
-0.5142667068016279,-0.5142667068016279
-0.5224107488031933,-0.5224107488031933
-0.557208019173518,-0.557208019173518
-0.5831208800875897,-0.5831208800875897
-0.6001493315454082,-0.6001493315454082
-0.6371677042797962,-0.6371677042797962
-0.6860319562891884,-0.6860319562891884
-0.708983347384509,-0.708983347384509
-0.6860319562891884,-0.6860319562891884
-0.6615998302844923,-0.6615998302844923
-0.6860319562891884,-0.6860319562891884
-0.7593283343032767,-0.7593283343032767
-0.8155962608595465,-0.8155962608595465
-0.8007889117657914,-0.8007889117657914
-0.7297136361157663,-0.7297136361157663
-0.6778879142876231,-0.6778879142876231
-0.6860319562891884,-0.6860319562891884
-0.7141659195673233,-0.7141659195673233
-0.6860319562891884,-0.6860319562891884
-0.5979282291813449,-0.5979282291813449
-0.5142667068016279,-0.5142667068016279
-0.4957575204344339,-0.4957575204344339
-0.5142667068016279,-0.5142667068016279
-0.5001997251625604,-0.5001997251625604
-0.42764371460315986,-0.42764371460315986
-0.3573088064078226,-0.3573088064078226
-0.34176108985937964,-0.34176108985937964
-0.35878954131719815,-0.35878954131719815
-0.34176108985937964,-0.34176108985937964
-0.2988197774874895,-0.2988197774874895
-0.2988197774874895,-0.2988197774874895
-0.35804917386251034,-0.35804917386251034
-0.3847024022312698,-0.3847024022312698
-0.3054830845796793,-0.3054830845796793
-0.16925547291713136,-0.16925547291713136
-0.09595909490304304,-0.09595909490304304
-0.12631416054524122,-0.12631416054524122
-0.20331237583276834,-0.20331237583276834
-0.2551380976609116,-0.2551380976609116
-0.28475279584842206,-0.28475279584842206
-0.2988197774874895,-0.2988197774874895
-0.28845463312186087,-0.28845463312186087
-0.21219678528902147,-0.21219678528902147
-0.10854534163273497,-0.10854534163273497
-0.03969116834677321,-0.03969116834677321
-0.03672969852802217,-0.03672969852802217
-0.03969116834677321,-0.03969116834677321
-0.030806758890520085,-0.030806758890520085
-0.03969116834677321,-0.03969116834677321
-0.09225725762960424,-0.09225725762960424
-0.12631416054524122,-0.12631416054524122
-0.09595909490304304,-0.09595909490304304
-0.03969116834677321,-0.03969116834677321
-0.021922349434266956,-0.021922349434266956
0.003250144025116913,0.003250144025116913
0.16687135151111204,0.16687135151111204
0.5629679397690641,0.5629679397690641
1.17599219225053,1.17599219225053
1.9422725078523624,1.9422725078523624
2.781849201468283,2.781849201468283
3.536283637795112,3.536283637795112
3.91387103968587,3.91387103968587
3.70878925473736,3.70878925473736
3.0750347135246368,3.0750347135246368
2.4590489912244196,2.4590489912244196
2.132546943707117,2.132546943707117
1.9422725078523624,1.9422725078523624
1.5868961296022372,1.5868961296022372
1.036803110769231,1.036803110769231
0.5022578084846677,0.5022578084846677
0.13207408114078728,0.13207408114078728
-0.10854534163273497,-0.10854534163273497
-0.2988197774874895,-0.2988197774874895
-0.46614282224692344,-0.46614282224692344
-0.6001493315454082,-0.6001493315454082
-0.693435630836066,-0.693435630836066
-0.7297136361157663,-0.7297136361157663
-0.7149062870220111,-0.7149062870220111
-0.6860319562891884,-0.6860319562891884
-0.690474161017315,-0.690474161017315
-0.7297136361157663,-0.7297136361157663
-0.7948659721282892,-0.7948659721282892
-0.8585375732314366,-0.8585375732314366
-0.9214688068798963,-0.9214688068798963
-0.9451605654299047,-0.9451605654299047
-0.8970366808752003,-0.8970366808752003
-0.7726549484876564,-0.7726549484876564
-0.6704842397407454,-0.6704842397407454
-0.6860319562891884,-0.6860319562891884
-0.7978274419470403,-0.7978274419470403
-0.8585375732314366,-0.8585375732314366
-0.8059714839486056,-0.8059714839486056
-0.7297136361157663,-0.7297136361157663
-0.7319347384798296,-0.7319347384798296
-0.7726549484876564,-0.7726549484876564
-0.7563668644845257,-0.7563668644845257
-0.6860319562891884,-0.6860319562891884
-0.6534557882829269,-0.6534557882829269
-0.6860319562891884,-0.6860319562891884
-0.7200888592048253,-0.7200888592048253
-0.6860319562891884,-0.6860319562891884
-0.6001493315454082,-0.6001493315454082
-0.5142667068016279,-0.5142667068016279
-0.4587391477000458,-0.4587391477000458
-0.42764371460315986,-0.42764371460315986
-0.41579783532815573,-0.41579783532815573
-0.42764371460315986,-0.42764371460315986
-0.46836392461098675,-0.46836392461098675
-0.5142667068016279,-0.5142667068016279
-0.5342566280781974,-0.5342566280781974
-0.5142667068016279,-0.5142667068016279
-0.4742868642484888,-0.4742868642484888
-0.42764371460315986,-0.42764371460315986
-0.35804917386251034,-0.35804917386251034
-0.2551380976609116,-0.2551380976609116
-0.1855435569202621,-0.1855435569202621
-0.21219678528902147,-0.21219678528902147
-0.29437757275936294,-0.29437757275936294
-0.2988197774874895,-0.2988197774874895
-0.23144633911090326,-0.23144633911090326
-0.21219678528902147,-0.21219678528902147
-0.28475279584842206,-0.28475279584842206
-0.2988197774874895,-0.2988197774874895
-0.18702429182963762,-0.18702429182963762
-0.0833728481733511,-0.0833728481733511
-0.1248334256358657,-0.1248334256358657
-0.21219678528902147,-0.21219678528902147
-0.19887017110464178,-0.19887017110464178
-0.12631416054524122,-0.12631416054524122
-0.15666922618743942,-0.15666922618743942
-0.2988197774874895,-0.2988197774874895
-0.40395195605315154,-0.40395195605315154
-0.34176108985937964,-0.34176108985937964
-0.06708476417022037,-0.06708476417022037
0.47708531502528384,0.47708531502528384
1.3396133997365252,1.3396133997365252
2.4161076788525295,2.4161076788525295
3.38154683976537,3.38154683976537
3.8812948716796085,3.8812948716796085
3.798373716754579,3.798373716754579
3.3637780208528634,3.3637780208528634
2.9336245296792742,2.9336245296792742
2.674495920538558,2.674495920538558
2.454606786496293,2.454606786496293
2.071096444968033,2.071096444968033
1.5098979143147102,1.5098979143147102
0.9509204860254508,0.9509204860254508
0.5311321392174904,0.5311321392174904
0.2186970733392553,0.2186970733392553
-0.09003615526554094,-0.09003615526554094
-0.3847024022312698,-0.3847024022312698
-0.5683135309938344,-0.5683135309938344
-0.6001493315454082,-0.6001493315454082
-0.5749768380860243,-0.5749768380860243
-0.6001493315454082,-0.6001493315454082
-0.6682631373766822,-0.6682631373766822
-0.6860319562891884,-0.6860319562891884
-0.6386484391891717,-0.6386484391891717
-0.6001493315454082,-0.6001493315454082
-0.6364273368251084,-0.6364273368251084
-0.6860319562891884,-0.6860319562891884
-0.7000989379282558,-0.7000989379282558
-0.6860319562891884,-0.6860319562891884
-0.7045411426563825,-0.7045411426563825
-0.7297136361157663,-0.7297136361157663
-0.7230503290235765,-0.7230503290235765
-0.6860319562891884,-0.6860319562891884
-0.6734457095594965,-0.6734457095594965
-0.6860319562891884,-0.6860319562891884
-0.6949163657454416,-0.6949163657454416
-0.6860319562891884,-0.6860319562891884
-0.6926952633813782,-0.6926952633813782
-0.7297136361157663,-0.7297136361157663
-0.7689531112142176,-0.7689531112142176
-0.7726549484876564,-0.7726549484876564
-0.7482228224829603,-0.7482228224829603
-0.7297136361157663,-0.7297136361157663
-0.7208292266595132,-0.7208292266595132
-0.6860319562891884,-0.6860319562891884
-0.6297640297329186,-0.6297640297329186
-0.6001493315454082,-0.6001493315454082
-0.609774108456349,-0.609774108456349
-0.6001493315454082,-0.6001493315454082
-0.5498043446266404,-0.5498043446266404
-0.5142667068016279,-0.5142667068016279
-0.523151116257881,-0.523151116257881
-0.5142667068016279,-0.5142667068016279
-0.45651804533598256,-0.45651804533598256
-0.42764371460315986,-0.42764371460315986
-0.4994593577078727,-0.4994593577078727
-0.6001493315454082,-0.6001493315454082
-0.6201392528219777,-0.6201392528219777
-0.557208019173518,-0.557208019173518
-0.4972382553438094,-0.4972382553438094
-0.47058502697505,-0.47058502697505
-0.44171069624222736,-0.44171069624222736
-0.3847024022312698,-0.3847024022312698
-0.32843447567499995,-0.32843447567499995
-0.2988197774874895,-0.2988197774874895
-0.297339042578114,-0.297339042578114
-0.2988197774874895,-0.2988197774874895
-0.27438765148279337,-0.27438765148279337
-0.21219678528902147,-0.21219678528902147
-0.15814996109681495,-0.15814996109681495
-0.16925547291713136,-0.16925547291713136
-0.24329221838590745,-0.24329221838590745
-0.2988197774874895,-0.2988197774874895
-0.2780894887562322,-0.2780894887562322
-0.21219678528902147,-0.21219678528902147
-0.1818417196468233,-0.1818417196468233
-0.21219678528902147,-0.21219678528902147
-0.26772434439060355,-0.26772434439060355
-0.2988197774874895,-0.2988197774874895
-0.30178124730624056,-0.30178124730624056
-0.2988197774874895,-0.2988197774874895
-0.30104087985155276,-0.30104087985155276
-0.2988197774874895,-0.2988197774874895
-0.29585830766873844,-0.29585830766873844
-0.2988197774874895,-0.2988197774874895
-0.29437757275936294,-0.29437757275936294
-0.2551380976609116,-0.2551380976609116
-0.19812980364995403,-0.19812980364995403
-0.16925547291713136,-0.16925547291713136
-0.1892453941937009,-0.1892453941937009
-0.21219678528902147,-0.21219678528902147
-0.21145641783433372,-0.21145641783433372
-0.21219678528902147,-0.21219678528902147
-0.2536573627515361,-0.2536573627515361
-0.2988197774874895,-0.2988197774874895
-0.28475279584842206,-0.28475279584842206
-0.21219678528902147,-0.21219678528902147
-0.1707362078265069,-0.1707362078265069
-0.21219678528902147,-0.21219678528902147
-0.2751280189374812,-0.2751280189374812
-0.2551380976609116,-0.2551380976609116
-0.18036098473744777,-0.18036098473744777
-0.16925547291713136,-0.16925547291713136
-0.2514362603874728,-0.2514362603874728
-0.2988197774874895,-0.2988197774874895
-0.2381096462030931,-0.2381096462030931
-0.16925547291713136,-0.16925547291713136
-0.2062738456515194,-0.2062738456515194
-0.2988197774874895,-0.2988197774874895
-0.3425014573140674,-0.3425014573140674
-0.34176108985937964,-0.34176108985937964
-0.3632317460453247,-0.3632317460453247
-0.3847024022312698,-0.3847024022312698
-0.36027027622657365,-0.36027027622657365
-0.2988197774874895,-0.2988197774874895
-0.2684647118452913,-0.2684647118452913
-0.2551380976609116,-0.2551380976609116
-0.23366744147496654,-0.23366744147496654
-0.21219678528902147,-0.21219678528902147
-0.24255185093121967,-0.24255185093121967
-0.2988197774874895,-0.2988197774874895
-0.3239922709468734,-0.3239922709468734
-0.2988197774874895,-0.2988197774874895
-0.27586838639216893,-0.27586838639216893
-0.2988197774874895,-0.2988197774874895
-0.3624913785906369,-0.3624913785906369
-0.42764371460315986,-0.42764371460315986
-0.47058502697505,-0.47058502697505
-0.47058502697505,-0.47058502697505
-0.3758179927750166,-0.3758179927750166
-0.03969116834677321,-0.03969116834677321
0.6880900396112957,0.6880900396112957
1.7697668909101143,1.7697668909101143
2.844040067662055,2.844040067662055
3.4504010130513314,3.4504010130513314
3.422267049773197,3.422267049773197
3.0195071544230543,3.0195071544230543
2.5915747656135286,2.5915747656135286
2.243602061910281,2.243602061910281
1.85046694347108,1.85046694347108
1.3388730322818374,1.3388730322818374
0.7939625856316455,0.7939625856316455
0.34752101045492567,0.34752101045492567
0.03656667948606615,0.03656667948606615
-0.16925547291713136,-0.16925547291713136
-0.3040023496703038,-0.3040023496703038
-0.3847024022312698,-0.3847024022312698
-0.4461529009703539,-0.4461529009703539
-0.5142667068016279,-0.5142667068016279
-0.5690538984485222,-0.5690538984485222
-0.557208019173518,-0.557208019173518
-0.4824309062500542,-0.4824309062500542
-0.42764371460315986,-0.42764371460315986
-0.46836392461098675,-0.46836392461098675
-0.557208019173518,-0.557208019173518
-0.6023704339094714,-0.6023704339094714
-0.557208019173518,-0.557208019173518
-0.49205568316099507,-0.49205568316099507
-0.47058502697505,-0.47058502697505
-0.5209300138938178,-0.5209300138938178
-0.6001493315454082,-0.6001493315454082
-0.6675227699219943,-0.6675227699219943
-0.6860319562891884,-0.6860319562891884
-0.6586383604657412,-0.6586383604657412
-0.6001493315454082,-0.6001493315454082
-0.5453621398985139,-0.5453621398985139
-0.5142667068016279,-0.5142667068016279
-0.5083437671641258,-0.5083437671641258
-0.5142667068016279,-0.5142667068016279
-0.5320355257141341,-0.5320355257141341
-0.557208019173518,-0.557208019173518
-0.5616502239016445,-0.5616502239016445
-0.5142667068016279,-0.5142667068016279
-0.4461529009703539,-0.4461529009703539
-0.42764371460315986,-0.42764371460315986
-0.47650796661255207,-0.47650796661255207
-0.5142667068016279,-0.5142667068016279
-0.48317127370474194,-0.48317127370474194
-0.42764371460315986,-0.42764371460315986
-0.43948959387816405,-0.43948959387816405
-0.5142667068016279,-0.5142667068016279
-0.5609098564469568,-0.5609098564469568
-0.5142667068016279,-0.5142667068016279
-0.4254226122390966,-0.4254226122390966
-0.3847024022312698,-0.3847024022312698
-0.41061526314534136,-0.41061526314534136
-0.42764371460315986,-0.42764371460315986
-0.3832216673218942,-0.3832216673218942
-0.2988197774874895,-0.2988197774874895
-0.2270041343827767,-0.2270041343827767
-0.16925547291713136,-0.16925547291713136
-0.10484350435929617,-0.10484350435929617
-0.03969116834677321,-0.03969116834677321
-0.007115000340511738,-0.007115000340511738
0.003250144025116913,0.003250144025116913
0.02768227002981302,0.02768227002981302
0.08913276876889717,0.08913276876889717
0.163909881692361,0.163909881692361
0.2186970733392553,0.2186970733392553
0.22165854315800634,0.22165854315800634
0.17575576096736517,0.17575576096736517
0.11282452731890551,0.11282452731890551
0.08913276876889717,0.08913276876889717
0.10912269004546671,0.10912269004546671
0.13207408114078728,0.13207408114078728
0.1187474669564076,0.1187474669564076
0.08913276876889717,0.08913276876889717
0.077286889493893,0.077286889493893
0.08913276876889717,0.08913276876889717
0.0980171782251503,0.0980171782251503
0.08913276876889717,0.08913276876889717
0.05433549839857241,0.05433549839857241
0.003250144025116913,0.003250144025116913
-0.04117190325614874,-0.04117190325614874
-0.03969116834677321,-0.03969116834677321
-0.0078553677951995,-0.0078553677951995
0.003250144025116913,0.003250144025116913
-0.03747006598270993,-0.03747006598270993
-0.0833728481733511,-0.0833728481733511
-0.08263248071866335,-0.08263248071866335
-0.03969116834677321,-0.03969116834677321
-0.006374632885823978,-0.006374632885823978
0.003250144025116913,0.003250144025116913
0.002509776570429152,0.002509776570429152
0.003250144025116913,0.003250144025116913
-0.012297572523326064,-0.012297572523326064
-0.03969116834677321,-0.03969116834677321
-0.058200354713967235,-0.058200354713967235
-0.03969116834677321,-0.03969116834677321
-0.004153530521760695,-0.004153530521760695
0.003250144025116913,0.003250144025116913
-0.061161824532718276,-0.061161824532718276
-0.16925547291713136,-0.16925547291713136
-0.24107111602184417,-0.24107111602184417
-0.21219678528902147,-0.21219678528902147
-0.12557379309055347,-0.12557379309055347
-0.0833728481733511,-0.0833728481733511
-0.1344582025468066,-0.1344582025468066
-0.21219678528902147,-0.21219678528902147
-0.23959038111246864,-0.23959038111246864
-0.21219678528902147,-0.21219678528902147
-0.1833224545561988,-0.1833224545561988
-0.16925547291713136,-0.16925547291713136
-0.16555363564369255,-0.16555363564369255
-0.16925547291713136,-0.16925547291713136
-0.17739951491869674,-0.17739951491869674
-0.16925547291713136,-0.16925547291713136
-0.16777473800775583,-0.16777473800775583
-0.21219678528902147,-0.21219678528902147
-0.28623353075779756,-0.28623353075779756
-0.2988197774874895,-0.2988197774874895
-0.24329221838590745,-0.24329221838590745
-0.21219678528902147,-0.21219678528902147
-0.26402250711716474,-0.26402250711716474
-0.2988197774874895,-0.2988197774874895
-0.2573592000249749,-0.2573592000249749
-0.21219678528902147,-0.21219678528902147
-0.2736472840281056,-0.2736472840281056
-0.3847024022312698,-0.3847024022312698
-0.4439317986062906,-0.4439317986062906
-0.42764371460315986,-0.42764371460315986
-0.38100056495783097,-0.38100056495783097
-0.2988197774874895,-0.2988197774874895
-0.20109127346870506,-0.20109127346870506
-0.16925547291713136,-0.16925547291713136
-0.24329221838590745,-0.24329221838590745
-0.34176108985937964,-0.34176108985937964
-0.40173085368908823,-0.40173085368908823
-0.42764371460315986,-0.42764371460315986
-0.3373188851312531,-0.3373188851312531
0.08913276876889717,0.08913276876889717
0.9227865227473159,0.9227865227473159
1.9422725078523624,1.9422725078523624
2.8618088865745612,2.8618088865745612
3.536283637795112,3.536283637795112
3.8183636380311485,3.8183636380311485
3.536283637795112,3.536283637795112
2.787772141105785,2.787772141105785
2.028155132596143,2.028155132596143
1.5883768645116128,1.5883768645116128
1.3388730322818374,1.3388730322818374
0.9938617983973409,0.9938617983973409
0.5629679397690641,0.5629679397690641
0.2261007478861329,0.2261007478861329
0.003250144025116913,0.003250144025116913
-0.2077545805608949,-0.2077545805608949
-0.3847024022312698,-0.3847024022312698
-0.44467216606097837,-0.44467216606097837
-0.42764371460315986,-0.42764371460315986
-0.4617006175187969,-0.4617006175187969
-0.557208019173518,-0.557208019173518
-0.6201392528219777,-0.6201392528219777
-0.6001493315454082,-0.6001493315454082
-0.5468428748078894,-0.5468428748078894
-0.5142667068016279,-0.5142667068016279
-0.5253722186219443,-0.5253722186219443
-0.557208019173518,-0.557208019173518
-0.5949667593625938,-0.5949667593625938
-0.6001493315454082,-0.6001493315454082
-0.5794190428141508,-0.5794190428141508
-0.557208019173518,-0.557208019173518
-0.5890438197250918,-0.5890438197250918
-0.6860319562891884,-0.6860319562891884
-0.8044907490392301,-0.8044907490392301
-0.8585375732314366,-0.8585375732314366
-0.8192980981329854,-0.8192980981329854
-0.7297136361157663,-0.7297136361157663
-0.6630805651938678,-0.6630805651938678
-0.6430906439172983,-0.6430906439172983
-0.6467924811907371,-0.6467924811907371
-0.6430906439172983,-0.6430906439172983
-0.6275429273688553,-0.6275429273688553
-0.6001493315454082,-0.6001493315454082
-0.5734961031766488,-0.5734961031766488
-0.557208019173518,-0.557208019173518
-0.5468428748078894,-0.5468428748078894
-0.5142667068016279,-0.5142667068016279
-0.4498547382437927,-0.4498547382437927
-0.3847024022312698,-0.3847024022312698
-0.36989505313751453,-0.36989505313751453
-0.42764371460315986,-0.42764371460315986
-0.5498043446266404,-0.5498043446266404
-0.6860319562891884,-0.6860319562891884
-0.7637705390314032,-0.7637705390314032
-0.7297136361157663,-0.7297136361157663
-0.6282832948235431,-0.6282832948235431
-0.557208019173518,-0.557208019173518
-0.5557272842641425,-0.5557272842641425
-0.557208019173518,-0.557208019173518
-0.504641929890687,-0.504641929890687
-0.42764371460315986,-0.42764371460315986
-0.3935868116875229,-0.3935868116875229
-0.3847024022312698,-0.3847024022312698
-0.3291748431296877,-0.3291748431296877
-0.21219678528902147,-0.21219678528902147
-0.13297746763743107,-0.13297746763743107
-0.16925547291713136,-0.16925547291713136
-0.2588399349343504,-0.2588399349343504
-0.2551380976609116,-0.2551380976609116
-0.13890040727493316,-0.13890040727493316
-0.03969116834677321,-0.03969116834677321
-0.061161824532718276,-0.061161824532718276
-0.12631416054524122,-0.12631416054524122
-0.12261232327180242,-0.12261232327180242
-0.03969116834677321,-0.03969116834677321
0.06544101021888882,0.06544101021888882
0.17575576096736517,0.17575576096736517
0.25201360880020457,0.25201360880020457
0.2186970733392553,0.2186970733392553
0.07506578712982971,0.07506578712982971
-0.03969116834677321,-0.03969116834677321
-0.03821043343739769,-0.03821043343739769
0.003250144025116913,0.003250144025116913
-0.024883819253017997,-0.024883819253017997
-0.0833728481733511,-0.0833728481733511
-0.08263248071866335,-0.08263248071866335
-0.03969116834677321,-0.03969116834677321
-0.055238884895216195,-0.055238884895216195
-0.12631416054524122,-0.12631416054524122
-0.14260224454837198,-0.14260224454837198
-0.03969116834677321,-0.03969116834677321
0.077286889493893,0.077286889493893
0.08913276876889717,0.08913276876889717
0.012134553481370042,0.012134553481370042
0.003250144025116913,0.003250144025116913
0.0735850522204542,0.0735850522204542
0.08913276876889717,0.08913276876889717
-0.02636455416239352,-0.02636455416239352
-0.12631416054524122,-0.12631416054524122
-0.10558387181398393,-0.10558387181398393
-0.03969116834677321,-0.03969116834677321
-0.038950800892085455,-0.038950800892085455
-0.03969116834677321,-0.03969116834677321
0.005471246389180195,0.005471246389180195
0.003250144025116913,0.003250144025116913
-0.1137279138155493,-0.1137279138155493
-0.21219678528902147,-0.21219678528902147
-0.16703437055306808,-0.16703437055306808
0.003250144025116913,0.003250144025116913
0.32382925190491735,0.32382925190491735
0.9938617983973409,0.9938617983973409
2.0607313006024044,2.0607313006024044
3.1483310915387253,3.1483310915387253
3.743586525107685,3.743586525107685
3.70878925473736,3.70878925473736
3.3245385457544123,3.3245385457544123
2.9328841622245863,2.9328841622245863
2.642660119986984,2.642660119986984
2.373166366480639,2.373166366480639
1.9963193320445691,1.9963193320445691
1.4676969693975077,1.4676969693975077
0.8554130843707296,0.8554130843707296
0.3045796980830356,0.3045796980830356
-0.07078660144365917,-0.07078660144365917
-0.2551380976609116,-0.2551380976609116
-0.3425014573140674,-0.3425014573140674
-0.42764371460315986,-0.42764371460315986
-0.5312951582594464,-0.5312951582594464
-0.6001493315454082,-0.6001493315454082
-0.625321825004792,-0.625321825004792
-0.6430906439172983,-0.6430906439172983
-0.6438310113719861,-0.6438310113719861
-0.557208019173518,-0.557208019173518
-0.42468224478440886,-0.42468224478440886
-0.3847024022312698,-0.3847024022312698
-0.4942767855250583,-0.4942767855250583
-0.6001493315454082,-0.6001493315454082
-0.6105144759110368,-0.6105144759110368
-0.6001493315454082,-0.6001493315454082
-0.6593787279204291,-0.6593787279204291
-0.6860319562891884,-0.6860319562891884
-0.5927456569985305,-0.5927456569985305
-0.47058502697505,-0.47058502697505
-0.4720657618844255,-0.4720657618844255
-0.557208019173518,-0.557208019173518
-0.5816401451782142,-0.5816401451782142
-0.5142667068016279,-0.5142667068016279
-0.44763363587972943,-0.44763363587972943
-0.42764371460315986,-0.42764371460315986
-0.4165382027828435,-0.4165382027828435
-0.3847024022312698,-0.3847024022312698
-0.3661932158640757,-0.3661932158640757
-0.3847024022312698,-0.3847024022312698
-0.40913452823596586,-0.40913452823596586
-0.3847024022312698,-0.3847024022312698
-0.3239922709468734,-0.3239922709468734
-0.2988197774874895,-0.2988197774874895
-0.36027027622657365,-0.36027027622657365
-0.47058502697505,-0.47058502697505
-0.5616502239016445,-0.5616502239016445
-0.6001493315454082,-0.6001493315454082
-0.5949667593625938,-0.5949667593625938
-0.557208019173518,-0.557208019173518
-0.5298144233500709,-0.5298144233500709
-0.557208019173518,-0.557208019173518
-0.6105144759110368,-0.6105144759110368
-0.6001493315454082,-0.6001493315454082
-0.5312951582594464,-0.5312951582594464
-0.5142667068016279,-0.5142667068016279
-0.5801594102688387,-0.5801594102688387
-0.6001493315454082,-0.6001493315454082
-0.49871899025318495,-0.49871899025318495
-0.3847024022312698,-0.3847024022312698
-0.38248129986720647,-0.38248129986720647
-0.42764371460315986,-0.42764371460315986
-0.3980290164156495,-0.3980290164156495
-0.2988197774874895,-0.2988197774874895
-0.2307059716562155,-0.2307059716562155
-0.21219678528902147,-0.21219678528902147
-0.19738943619526628,-0.19738943619526628
-0.16925547291713136,-0.16925547291713136
-0.15222702145931286,-0.15222702145931286
-0.12631416054524122,-0.12631416054524122
-0.06338292689678156,-0.06338292689678156
0.003250144025116913,0.003250144025116913
-0.012297572523326064,-0.012297572523326064
-0.12631416054524122,-0.12631416054524122
-0.2573592000249749,-0.2573592000249749
-0.2988197774874895,-0.2988197774874895
-0.2329270740202788,-0.2329270740202788
-0.12631416054524122,-0.12631416054524122
-0.04857557780302634,-0.04857557780302634
0.003250144025116913,0.003250144025116913
0.05285476348919689,0.05285476348919689
0.08913276876889717,0.08913276876889717
0.06840248003763987,0.06840248003763987
0.003250144025116913,0.003250144025116913
-0.038950800892085455,-0.038950800892085455
0.003250144025116913,0.003250144025116913
0.10097864804390135,0.10097864804390135
0.17575576096736517,0.17575576096736517
0.16539061660173654,0.16539061660173654
0.08913276876889717,0.08913276876889717
0.006211613843867956,0.006211613843867956
-0.03969116834677321,-0.03969116834677321
-0.07300770380772245,-0.07300770380772245
-0.12631416054524122,-0.12631416054524122
-0.18998576164838865,-0.18998576164838865
-0.21219678528902147,-0.21219678528902147
-0.19220686401245193,-0.19220686401245193
-0.16925547291713136,-0.16925547291713136
-0.1588903285515027,-0.1588903285515027
-0.12631416054524122,-0.12631416054524122
-0.0833728481733511,-0.0833728481733511
-0.0833728481733511,-0.0833728481733511
-0.127054527999929,-0.127054527999929
-0.12631416054524122,-0.12631416054524122
-0.058940722168654994,-0.058940722168654994
-0.03969116834677321,-0.03969116834677321
-0.1892453941937009,-0.1892453941937009
-0.42764371460315986,-0.42764371460315986
-0.5535061819000792,-0.5535061819000792
-0.47058502697505,-0.47058502697505
-0.31436749403593245,-0.31436749403593245
-0.2551380976609116,-0.2551380976609116
-0.2988197774874895,-0.2988197774874895
-0.2988197774874895,-0.2988197774874895
-0.2077545805608949,-0.2077545805608949
-0.12631416054524122,-0.12631416054524122
-0.14334261200305973,-0.14334261200305973
-0.16925547291713136,-0.16925547291713136
-0.13223710018274332,-0.13223710018274332
-0.0833728481733511,-0.0833728481733511
-0.11446828127023706,-0.11446828127023706
-0.16925547291713136,-0.16925547291713136
-0.1685151054624436,-0.1685151054624436
-0.12631416054524122,-0.12631416054524122
-0.11594901617961258,-0.11594901617961258
-0.12631416054524122,-0.12631416054524122
-0.13741967236555763,-0.13741967236555763
-0.16925547291713136,-0.16925547291713136
-0.2196004598358991,-0.2196004598358991
-0.21219678528902147,-0.21219678528902147
-0.12335269072649019,-0.12335269072649019
0.003250144025116913,0.003250144025116913
0.2268411153408207,0.2268411153408207
0.7784148690832025,0.7784148690832025
1.7645843187272998,1.7645843187272998
2.8899428498526962,2.8899428498526962
3.607358913445137,3.607358913445137
3.622166262538892,3.622166262538892
3.1446292542652863,3.1446292542652863
2.6315546081666676,2.6315546081666676
2.309494765377492,2.309494765377492
2.071096444968033,2.071096444968033
1.754959541816359,1.754959541816359
1.3818143446537277,1.3818143446537277
1.0219957616754758,1.0219957616754758
0.6495909319675321,0.6495909319675321
0.22906221770488397,0.22906221770488397
-0.12631416054524122,-0.12631416054524122
-0.2899353680312364,-0.2899353680312364
-0.2988197774874895,-0.2988197774874895
-0.3099252893078059,-0.3099252893078059
-0.3847024022312698,-0.3847024022312698
-0.47058502697505,-0.47058502697505
-0.5142667068016279,-0.5142667068016279
-0.5253722186219443,-0.5253722186219443
-0.5142667068016279,-0.5142667068016279
-0.4913153157063073,-0.4913153157063073
-0.47058502697505,-0.47058502697505
-0.4853923760688052,-0.4853923760688052
-0.5142667068016279,-0.5142667068016279
-0.5327758931688219,-0.5327758931688219
-0.5142667068016279,-0.5142667068016279
-0.47354649679380106,-0.47354649679380106
-0.42764371460315986,-0.42764371460315986
-0.4009904862344005,-0.4009904862344005
-0.3847024022312698,-0.3847024022312698
-0.3706354205922023,-0.3706354205922023
-0.34176108985937964,-0.34176108985937964
-0.3106656567624937,-0.3106656567624937
-0.2988197774874895,-0.2988197774874895
-0.3276941082203122,-0.3276941082203122
-0.3847024022312698,-0.3847024022312698
-0.4328262867859742,-0.4328262867859742
-0.42764371460315986,-0.42764371460315986
-0.37137578804689003,-0.37137578804689003
-0.2988197774874895,-0.2988197774874895
-0.2536573627515361,-0.2536573627515361
-0.2551380976609116,-0.2551380976609116
-0.30474271712499157,-0.30474271712499157
-0.3847024022312698,-0.3847024022312698
-0.47058502697505,-0.47058502697505
-0.5142667068016279,-0.5142667068016279
-0.4802098038859909,-0.4802098038859909
-0.3847024022312698,-0.3847024022312698
-0.31658859639999576,-0.31658859639999576
-0.34176108985937964,-0.34176108985937964
-0.4165382027828435,-0.4165382027828435
-0.42764371460315986,-0.42764371460315986
-0.35878954131719815,-0.35878954131719815
-0.2988197774874895,-0.2988197774874895
-0.29289683784998743,-0.29289683784998743
-0.2551380976609116,-0.2551380976609116
-0.12927563036399228,-0.12927563036399228
0.003250144025116913,0.003250144025116913
0.0262015351204375,0.0262015351204375
-0.03969116834677321,-0.03969116834677321
-0.10336276944992065,-0.10336276944992065
-0.12631416054524122,-0.12631416054524122
-0.13519857000149435,-0.13519857000149435
-0.12631416054524122,-0.12631416054524122
-0.09595909490304304,-0.09595909490304304
-0.0833728481733511,-0.0833728481733511
-0.13371783509211885,-0.13371783509211885
-0.21219678528902147,-0.21219678528902147
-0.247734423114034,-0.247734423114034
-0.21219678528902147,-0.21219678528902147
-0.14630408182181076,-0.14630408182181076
-0.0833728481733511,-0.0833728481733511
-0.04413337307489978,-0.04413337307489978
-0.03969116834677321,-0.03969116834677321
-0.08633431799210214,-0.08633431799210214
-0.16925547291713136,-0.16925547291713136
-0.2551380976609116,-0.2551380976609116
-0.2988197774874895,-0.2988197774874895
-0.2803105911202955,-0.2803105911202955
-0.21219678528902147,-0.21219678528902147
-0.14852518418587404,-0.14852518418587404
-0.12631416054524122,-0.12631416054524122
-0.13519857000149435,-0.13519857000149435
-0.12631416054524122,-0.12631416054524122
-0.09521872744835527,-0.09521872744835527
-0.0833728481733511,-0.0833728481733511
-0.11965085345305138,-0.11965085345305138
-0.16925547291713136,-0.16925547291713136
-0.19072612910307643,-0.19072612910307643
-0.16925547291713136,-0.16925547291713136
-0.11594901617961258,-0.11594901617961258
-0.03969116834677321,-0.03969116834677321
0.005471246389180195,0.005471246389180195
-0.03969116834677321,-0.03969116834677321
-0.16703437055306808,-0.16703437055306808
-0.2551380976609116,-0.2551380976609116
-0.22182156219996238,-0.22182156219996238
-0.12631416054524122,-0.12631416054524122
-0.11150681145148601,-0.11150681145148601
-0.21219678528902147,-0.21219678528902147
-0.31806933130937126,-0.31806933130937126
-0.2988197774874895,-0.2988197774874895
-0.16703437055306808,-0.16703437055306808
-0.03969116834677321,-0.03969116834677321
-0.007115000340511738,-0.007115000340511738
-0.03969116834677321,-0.03969116834677321
-0.08559395053741438,-0.08559395053741438
-0.12631416054524122,-0.12631416054524122
-0.16703437055306808,-0.16703437055306808
-0.16925547291713136,-0.16925547291713136
-0.11298754636086153,-0.11298754636086153
-0.03969116834677321,-0.03969116834677321
-0.028585656526456803,-0.028585656526456803
-0.0833728481733511,-0.0833728481733511
-0.14852518418587404,-0.14852518418587404
-0.16925547291713136,-0.16925547291713136
-0.15074628654993733,-0.15074628654993733
-0.12631416054524122,-0.12631416054524122
-0.14334261200305973,-0.14334261200305973
-0.21219678528902147,-0.21219678528902147
-0.2906757354859241,-0.2906757354859241
-0.2988197774874895,-0.2988197774874895
-0.2210811947452746,-0.2210811947452746
-0.12631416054524122,-0.12631416054524122
-0.10632423926867168,-0.10632423926867168
-0.16925547291713136,-0.16925547291713136
-0.24699405565934623,-0.24699405565934623
-0.2551380976609116,-0.2551380976609116
-0.18702429182963762,-0.18702429182963762
-0.0833728481733511,-0.0833728481733511
0.011394186026682282,0.011394186026682282
0.08913276876889717,0.08913276876889717
0.1357759184142261,0.1357759184142261
0.13207408114078728,0.13207408114078728
0.07506578712982971,0.07506578712982971
0.003250144025116913,0.003250144025116913
-0.06412329435146932,-0.06412329435146932
-0.12631416054524122,-0.12631416054524122
-0.17369767764525793,-0.17369767764525793
-0.16925547291713136,-0.16925547291713136
-0.13223710018274332,-0.13223710018274332
-0.12631416054524122,-0.12631416054524122
-0.16629400309838033,-0.16629400309838033
-0.16925547291713136,-0.16925547291713136
-0.09151689017491647,-0.09151689017491647
0.003250144025116913,0.003250144025116913
0.024720800211061975,0.024720800211061975
0.003250144025116913,0.003250144025116913
0.012134553481370042,0.012134553481370042
0.04619145639700704,0.04619145639700704
0.006211613843867956,0.006211613843867956
-0.12631416054524122,-0.12631416054524122
-0.2307059716562155,-0.2307059716562155
-0.16925547291713136,-0.16925547291713136
0.014355655845433324,0.014355655845433324
0.13207408114078728,0.13207408114078728
0.05581623330794793,0.05581623330794793
-0.12631416054524122,-0.12631416054524122
-0.23959038111246864,-0.23959038111246864
-0.21219678528902147,-0.21219678528902147
-0.1285352629093045,-0.1285352629093045
-0.0833728481733511,-0.0833728481733511
-0.1004012996311696,-0.1004012996311696
-0.12631416054524122,-0.12631416054524122
-0.12631416054524122,-0.12631416054524122
-0.0833728481733511,-0.0833728481733511
-0.041912270710836495,-0.041912270710836495
-0.03969116834677321,-0.03969116834677321
-0.08929578781085319,-0.08929578781085319
-0.12631416054524122,-0.12631416054524122
-0.10854534163273497,-0.10854534163273497
-0.03969116834677321,-0.03969116834677321
0.012874920936057804,0.012874920936057804
0.003250144025116913,0.003250144025116913
-0.07522880617178573,-0.07522880617178573
-0.16925547291713136,-0.16925547291713136
-0.22182156219996238,-0.22182156219996238
-0.21219678528902147,-0.21219678528902147
-0.16185179837025374,-0.16185179837025374
-0.03969116834677321,-0.03969116834677321
0.28014757207833946,0.28014757207833946
0.9509204860254508,0.9509204860254508
1.9526376522179911,1.9526376522179911
2.9758254745964767,2.9758254745964767
3.5436873123419894,3.5436873123419894
3.406719333224754,3.406719333224754
2.7966565505620387,2.7966565505620387
2.200660749538391,2.200660749538391
1.8408421665601393,1.8408421665601393
1.5543199615959757,1.5543199615959757
1.1656270478849013,1.1656270478849013
0.7784148690832025,0.7784148690832025
0.5326128741268659,0.5326128741268659
0.34752101045492567,0.34752101045492567
0.07506578712982971,0.07506578712982971
-0.21219678528902147,-0.21219678528902147
-0.3387996200406286,-0.3387996200406286
-0.2988197774874895,-0.2988197774874895
-0.2580995674796627,-0.2580995674796627
-0.2988197774874895,-0.2988197774874895
-0.36175101113594915,-0.36175101113594915
-0.3847024022312698,-0.3847024022312698
-0.3965482815062739,-0.3965482815062739
-0.42764371460315986,-0.42764371460315986
-0.4557776778812948,-0.4557776778812948
-0.42764371460315986,-0.42764371460315986
-0.37211615550157784,-0.37211615550157784
-0.34176108985937964,-0.34176108985937964
-0.3661932158640757,-0.3661932158640757
-0.3847024022312698,-0.3847024022312698
-0.3647124809547002,-0.3647124809547002
-0.34176108985937964,-0.34176108985937964
-0.37211615550157784,-0.37211615550157784
-0.42764371460315986,-0.42764371460315986
-0.4505951056984805,-0.4505951056984805
-0.42764371460315986,-0.42764371460315986
-0.40247122114377604,-0.40247122114377604
-0.3847024022312698,-0.3847024022312698
-0.3536069691343838,-0.3536069691343838
-0.2988197774874895,-0.2988197774874895
-0.2566188325702871,-0.2566188325702871
-0.2551380976609116,-0.2551380976609116
-0.28253169348435875,-0.28253169348435875
-0.2988197774874895,-0.2988197774874895
-0.297339042578114,-0.297339042578114
-0.2988197774874895,-0.2988197774874895
-0.30770418694374263,-0.30770418694374263
-0.2988197774874895,-0.2988197774874895
-0.28105095857498325,-0.28105095857498325
-0.2988197774874895,-0.2988197774874895
-0.368414318228139,-0.368414318228139
-0.42764371460315986,-0.42764371460315986
-0.42394187732972105,-0.42394187732972105
-0.3847024022312698,-0.3847024022312698
-0.3832216673218942,-0.3832216673218942
-0.42764371460315986,-0.42764371460315986
-0.4720657618844255,-0.4720657618844255
-0.47058502697505,-0.47058502697505
-0.42098040751097004,-0.42098040751097004
-0.34176108985937964,-0.34176108985937964
-0.2854931633031098,-0.2854931633031098
-0.2988197774874895,-0.2988197774874895
-0.3728565229562656,-0.3728565229562656
-0.42764371460315986,-0.42764371460315986
-0.4120959980547169,-0.4120959980547169
-0.34176108985937964,-0.34176108985937964
-0.2603206698437259,-0.2603206698437259
-0.16925547291713136,-0.16925547291713136
-0.07078660144365917,-0.07078660144365917
0.003250144025116913,0.003250144025116913
0.007692348753243478,0.007692348753243478
-0.03969116834677321,-0.03969116834677321
-0.09521872744835527,-0.09521872744835527
-0.12631416054524122,-0.12631416054524122
-0.13593893745618213,-0.13593893745618213
-0.12631416054524122,-0.12631416054524122
-0.10558387181398393,-0.10558387181398393
-0.0833728481733511,-0.0833728481733511
-0.0796710108999123,-0.0796710108999123
-0.0833728481733511,-0.0833728481733511
-0.0759691736264735,-0.0759691736264735
-0.03969116834677321,-0.03969116834677321
-0.006374632885823978,-0.006374632885823978
0.003250144025116913,0.003250144025116913
-0.018960879615515912,-0.018960879615515912
-0.03969116834677321,-0.03969116834677321
-0.050056312712401865,-0.050056312712401865
-0.03969116834677321,-0.03969116834677321
0.00102904166105363,0.00102904166105363
0.08913276876889717,0.08913276876889717
0.17501539351267742,0.17501539351267742
0.17575576096736517,0.17575576096736517
0.06470064276420107,0.06470064276420107
-0.03969116834677321,-0.03969116834677321
0.016576758209496608,0.016576758209496608
0.26163838571114545,0.26163838571114545
0.5459394883112456,0.5459394883112456
0.7354735567113123,0.7354735567113123
0.8783644754660502,0.8783644754660502
1.123426102967699,1.123426102967699
1.4588125599412547,1.4588125599412547
1.6831438987116463,1.6831438987116463
1.6483466283413215,1.6483466283413215
1.4676969693975077,1.4676969693975077
1.3596033210130947,1.3596033210130947
1.3818143446537277,1.3818143446537277
1.3892180192006052,1.3892180192006052
1.2522500400833694,1.2522500400833694
0.9768333469395224,0.9768333469395224
0.6495909319675321,0.6495909319675321
0.3149448424486642,0.3149448424486642
0.003250144025116913,0.003250144025116913
-0.22552339947340116,-0.22552339947340116
-0.2988197774874895,-0.2988197774874895
-0.25217662784216055,-0.25217662784216055
-0.21219678528902147,-0.21219678528902147
-0.26402250711716474,-0.26402250711716474
-0.34176108985937964,-0.34176108985937964
-0.3543473365890716,-0.3543473365890716
-0.2988197774874895,-0.2988197774874895
-0.24551332074997073,-0.24551332074997073
-0.21219678528902147,-0.21219678528902147
-0.18998576164838865,-0.18998576164838865
-0.16925547291713136,-0.16925547291713136
-0.1588903285515027,-0.1588903285515027
-0.12631416054524122,-0.12631416054524122
-0.07226733635303469,-0.07226733635303469
-0.03969116834677321,-0.03969116834677321
-0.07448843871709797,-0.07448843871709797
-0.12631416054524122,-0.12631416054524122
-0.13149673272805557,-0.13149673272805557
-0.0833728481733511,-0.0833728481733511
-0.04339300562021202,-0.04339300562021202
-0.03969116834677321,-0.03969116834677321
-0.05153704762177739,-0.05153704762177739
-0.03969116834677321,-0.03969116834677321
-0.013037939978013825,-0.013037939978013825
0.003250144025116913,0.003250144025116913
-0.013778307432701586,-0.013778307432701586
-0.03969116834677321,-0.03969116834677321
-0.038950800892085455,-0.038950800892085455
0.003250144025116913,0.003250144025116913
0.04619145639700704,0.04619145639700704
0.04619145639700704,0.04619145639700704
0.001769409115741391,0.001769409115741391
-0.03969116834677321,-0.03969116834677321
-0.05227741507646515,-0.05227741507646515
-0.03969116834677321,-0.03969116834677321
-0.02414345179833024,-0.02414345179833024
0.003250144025116913,0.003250144025116913
0.03434557712200287,0.03434557712200287
0.04619145639700704,0.04619145639700704
0.01065381857199452,0.01065381857199452
-0.03969116834677321,-0.03969116834677321
-0.04857557780302634,-0.04857557780302634
0.003250144025116913,0.003250144025116913
0.032124474757939586,0.032124474757939586
-0.03969116834677321,-0.03969116834677321
-0.17888024982807224,-0.17888024982807224
-0.2551380976609116,-0.2551380976609116
-0.2270041343827767,-0.2270041343827767
-0.16925547291713136,-0.16925547291713136
-0.15074628654993733,-0.15074628654993733
-0.12631416054524122,-0.12631416054524122
-0.06856549907959589,-0.06856549907959589
-0.03969116834677321,-0.03969116834677321
-0.09892056472179409,-0.09892056472179409
-0.16925547291713136,-0.16925547291713136
-0.15740959364212717,-0.15740959364212717
-0.0833728481733511,-0.0833728481733511
-0.04931594525771411,-0.04931594525771411
-0.0833728481733511,-0.0833728481733511
-0.13741967236555763,-0.13741967236555763
-0.16925547291713136,-0.16925547291713136
-0.1833224545561988,-0.1833224545561988
-0.16925547291713136,-0.16925547291713136
-0.11520864872492481,-0.11520864872492481
-0.03969116834677321,-0.03969116834677321
-0.007115000340511738,-0.007115000340511738
-0.03969116834677321,-0.03969116834677321
-0.09151689017491647,-0.09151689017491647
-0.0833728481733511,-0.0833728481733511
-0.023403084343642477,-0.023403084343642477
0.003250144025116913,0.003250144025116913
-0.0626425594420938,-0.0626425594420938
-0.16925547291713136,-0.16925547291713136
-0.2381096462030931,-0.2381096462030931
-0.2551380976609116,-0.2551380976609116
-0.2699454467546668,-0.2699454467546668
-0.2988197774874895,-0.2988197774874895
-0.32621337331093664,-0.32621337331093664
-0.34176108985937964,-0.34176108985937964
-0.36027027622657365,-0.36027027622657365
-0.3847024022312698,-0.3847024022312698
-0.4120959980547169,-0.4120959980547169
-0.42764371460315986,-0.42764371460315986
-0.4120959980547169,-0.4120959980547169
-0.34176108985937964,-0.34176108985937964
-0.2529169952968483,-0.2529169952968483
-0.21219678528902147,-0.21219678528902147
-0.24847479056872177,-0.24847479056872177
-0.2988197774874895,-0.2988197774874895
-0.3099252893078059,-0.3099252893078059
-0.2988197774874895,-0.2988197774874895
-0.3106656567624937,-0.3106656567624937
-0.34176108985937964,-0.34176108985937964
-0.3706354205922023,-0.3706354205922023
-0.3847024022312698,-0.3847024022312698
-0.3691546856828268,-0.3691546856828268
-0.2988197774874895,-0.2988197774874895
-0.20701421310620716,-0.20701421310620716
-0.16925547291713136,-0.16925547291713136
-0.20331237583276834,-0.20331237583276834
-0.21219678528902147,-0.21219678528902147
-0.16333253327962927,-0.16333253327962927
-0.12631416054524122,-0.12631416054524122
-0.1833224545561988,-0.1833224545561988
-0.2551380976609116,-0.2551380976609116
-0.2366289112937176,-0.2366289112937176
-0.12631416054524122,-0.12631416054524122
-0.04043153580146098,-0.04043153580146098
-0.03969116834677321,-0.03969116834677321
-0.10336276944992065,-0.10336276944992065
-0.16925547291713136,-0.16925547291713136
-0.20553347819683163,-0.20553347819683163
-0.21219678528902147,-0.21219678528902147
-0.23514817638434207,-0.23514817638434207
-0.2988197774874895,-0.2988197774874895
-0.31510786149062026,-0.31510786149062026
-0.0833728481733511,-0.0833728481733511
0.5348339764909292,0.5348339764909292
1.4676969693975077,1.4676969693975077
2.463491195952546,2.463491195952546
3.2349540837371933,3.2349540837371933
3.5658983359826224,3.5658983359826224
3.406719333224754,3.406719333224754
2.9084520362198902,2.9084520362198902
2.3294846866540615,2.3294846866540615
1.8267751849210718,1.8267751849210718
1.3818143446537277,1.3818143446537277
0.9324112996582568,0.9324112996582568
0.520026627397174,0.520026627397174
0.2149952360658165,0.2149952360658165
0.003250144025116913,0.003250144025116913
-0.195168333831203,-0.195168333831203
-0.3847024022312698,-0.3847024022312698
-0.49205568316099507,-0.49205568316099507
-0.47058502697505,-0.47058502697505
-0.3965482815062739,-0.3965482815062739
-0.3847024022312698,-0.3847024022312698
-0.47650796661255207,-0.47650796661255207
-0.6001493315454082,-0.6001493315454082
-0.674926444468872,-0.674926444468872
-0.6860319562891884,-0.6860319562891884
-0.6852915888345007,-0.6852915888345007
-0.6860319562891884,-0.6860319562891884
-0.6823301190157496,-0.6823301190157496
-0.6430906439172983,-0.6430906439172983
-0.5831208800875897,-0.5831208800875897
-0.5142667068016279,-0.5142667068016279
-0.4609602500641091,-0.4609602500641091
-0.42764371460315986,-0.42764371460315986
-0.41135563060002917,-0.41135563060002917
-0.3847024022312698,-0.3847024022312698
-0.3425014573140674,-0.3425014573140674
-0.2988197774874895,-0.2988197774874895
-0.28253169348435875,-0.28253169348435875
-0.2988197774874895,-0.2988197774874895
-0.3373188851312531,-0.3373188851312531
-0.3847024022312698,-0.3847024022312698
-0.44319143115160287,-0.44319143115160287
-0.5142667068016279,-0.5142667068016279
-0.578678675359463,-0.578678675359463
-0.6001493315454082,-0.6001493315454082
-0.5705346333578977,-0.5705346333578977
-0.5142667068016279,-0.5142667068016279
-0.4631813524281724,-0.4631813524281724
-0.42764371460315986,-0.42764371460315986
-0.4194996726015945,-0.4194996726015945
-0.42764371460315986,-0.42764371460315986
-0.4046923235078393,-0.4046923235078393
-0.2988197774874895,-0.2988197774874895
-0.17369767764525793,-0.17369767764525793
-0.16925547291713136,-0.16925547291713136
-0.33139594549375095,-0.33139594549375095
-0.5142667068016279,-0.5142667068016279
-0.5579483866282058,-0.5579483866282058
-0.47058502697505,-0.47058502697505
-0.39062534186877185,-0.39062534186877185
-0.3847024022312698,-0.3847024022312698
-0.40765379332659035,-0.40765379332659035
-0.3847024022312698,-0.3847024022312698
-0.3084445543984304,-0.3084445543984304
-0.21219678528902147,-0.21219678528902147
-0.13519857000149435,-0.13519857000149435
-0.0833728481733511,-0.0833728481733511
-0.04487374052958754,-0.04487374052958754
0.003250144025116913,0.003250144025116913
0.05433549839857241,0.05433549839857241
0.08913276876889717,0.08913276876889717
0.09505570840639925,0.09505570840639925
0.08913276876889717,0.08913276876889717
0.08617129895014612,0.08617129895014612
0.08913276876889717,0.08913276876889717
0.09061350367827269,0.09061350367827269
0.08913276876889717,0.08913276876889717
0.07580615458451748,0.07580615458451748
0.04619145639700704,0.04619145639700704
0.00102904166105363,0.00102904166105363
-0.03969116834677321,-0.03969116834677321
-0.06560402926084484,-0.06560402926084484
-0.0833728481733511,-0.0833728481733511
-0.12039122090773914,-0.12039122090773914
-0.16925547291713136,-0.16925547291713136
-0.1818417196468233,-0.1818417196468233
-0.12631416054524122,-0.12631416054524122
-0.06486366180615709,-0.06486366180615709
-0.0833728481733511,-0.0833728481733511
-0.17147657528119464,-0.17147657528119464
-0.21219678528902147,-0.21219678528902147
-0.15666922618743942,-0.15666922618743942
-0.0833728481733511,-0.0833728481733511
-0.08633431799210214,-0.08633431799210214
-0.12631416054524122,-0.12631416054524122
-0.11150681145148601,-0.11150681145148601
-0.03969116834677321,-0.03969116834677321
-0.01599940979676487,-0.01599940979676487
-0.0833728481733511,-0.0833728481733511
-0.16629400309838033,-0.16629400309838033
-0.16925547291713136,-0.16925547291713136
-0.1248334256358657,-0.1248334256358657
-0.12631416054524122,-0.12631416054524122
-0.1781398823733845,-0.1781398823733845
-0.16925547291713136,-0.16925547291713136
-0.05968108962334276,-0.05968108962334276
0.04619145639700704,0.04619145639700704
0.03656667948606615,0.03656667948606615
-0.03969116834677321,-0.03969116834677321
-0.07300770380772245,-0.07300770380772245
-0.03969116834677321,-0.03969116834677321
-0.022662716888954715,-0.022662716888954715
-0.03969116834677321,-0.03969116834677321
-0.058940722168654994,-0.058940722168654994
-0.03969116834677321,-0.03969116834677321
-0.024883819253017997,-0.024883819253017997
-0.03969116834677321,-0.03969116834677321
-0.08707468544678991,-0.08707468544678991
-0.12631416054524122,-0.12631416054524122
-0.13964077472962091,-0.13964077472962091
-0.12631416054524122,-0.12631416054524122
-0.1248334256358657,-0.1248334256358657
-0.16925547291713136,-0.16925547291713136
-0.26772434439060355,-0.26772434439060355
-0.3847024022312698,-0.3847024022312698
-0.48317127370474194,-0.48317127370474194
-0.5142667068016279,-0.5142667068016279
-0.40247122114377604,-0.40247122114377604
-0.03969116834677321,-0.03969116834677321
0.631081745600338,0.631081745600338
1.5543199615959757,1.5543199615959757
2.5397490437853856,2.5397490437853856
3.3208367084809733,3.3208367084809733
3.637713979087335,3.637713979087335
3.406719333224754,3.406719333224754
2.8151657369292327,2.8151657369292327
2.200660749538391,2.200660749538391
1.748296234724169,1.748296234724169
1.3818143446537277,1.3818143446537277
0.9509204860254508,0.9509204860254508
0.47708531502528384,0.47708531502528384
0.10764195513609119,0.10764195513609119
-0.0833728481733511,-0.0833728481733511
-0.18406282201088658,-0.18406282201088658
-0.2988197774874895,-0.2988197774874895
-0.4328262867859742,-0.4328262867859742
-0.5142667068016279,-0.5142667068016279
-0.526112586076632,-0.526112586076632
-0.5142667068016279,-0.5142667068016279
-0.5053822973453748,-0.5053822973453748
-0.47058502697505,-0.47058502697505
-0.42394187732972105,-0.42394187732972105
-0.42764371460315986,-0.42764371460315986
-0.5061226648000625,-0.5061226648000625
-0.557208019173518,-0.557208019173518
-0.5164878091656911,-0.5164878091656911
-0.42764371460315986,-0.42764371460315986
-0.3861831371406453,-0.3861831371406453
-0.3847024022312698,-0.3847024022312698
-0.39728864896096167,-0.39728864896096167
-0.42764371460315986,-0.42764371460315986
-0.46614282224692344,-0.46614282224692344
-0.42764371460315986,-0.42764371460315986
-0.29215647039529963,-0.29215647039529963
-0.16925547291713136,-0.16925547291713136
-0.1699958403718191,-0.1699958403718191
-0.2551380976609116,-0.2551380976609116
-0.33361704785781426,-0.33361704785781426
-0.3847024022312698,-0.3847024022312698
-0.43800885896878855,-0.43800885896878855
-0.47058502697505,-0.47058502697505
-0.45503731042660706,-0.45503731042660706
-0.42764371460315986,-0.42764371460315986
-0.452075840607856,-0.452075840607856
-0.5142667068016279,-0.5142667068016279
-0.5549869168094548,-0.5549869168094548
-0.557208019173518,-0.557208019173518
-0.5653520611750834,-0.5653520611750834
-0.6001493315454082,-0.6001493315454082
-0.6297640297329186,-0.6297640297329186
-0.6001493315454082,-0.6001493315454082
-0.526112586076632,-0.526112586076632
-0.47058502697505,-0.47058502697505
-0.489094213342244,-0.489094213342244
-0.557208019173518,-0.557208019173518
-0.6112548433657246,-0.6112548433657246
-0.6001493315454082,-0.6001493315454082
-0.5290740558953831,-0.5290740558953831
-0.42764371460315986,-0.42764371460315986
-0.34472255967813065,-0.34472255967813065
-0.2988197774874895,-0.2988197774874895
-0.2706858142093546,-0.2706858142093546
-0.21219678528902147,-0.21219678528902147
-0.11891048599836362,-0.11891048599836362
-0.03969116834677321,-0.03969116834677321
-0.038950800892085455,-0.038950800892085455
-0.0833728481733511,-0.0833728481733511
-0.06412329435146932,-0.06412329435146932
0.08913276876889717,0.08913276876889717
0.2823686744424027,0.2823686744424027
0.34752101045492567,0.34752101045492567
0.2379466271611371,0.2379466271611371
0.08913276876889717,0.08913276876889717
0.030643739848564062,0.030643739848564062
0.04619145639700704,0.04619145639700704
0.05359513094388465,0.05359513094388465
0.04619145639700704,0.04619145639700704
0.04767219130638256,0.04767219130638256
0.04619145639700704,0.04619145639700704
0.02842263748450078,0.02842263748450078
0.04619145639700704,0.04619145639700704
0.11726673204703207,0.11726673204703207
0.17575576096736517,0.17575576096736517
0.1528043698720446,0.1528043698720446
0.08913276876889717,0.08913276876889717
0.040268516759504956,0.040268516759504956
0.003250144025116913,0.003250144025116913
-0.04043153580146098,-0.04043153580146098
-0.03969116834677321,-0.03969116834677321
0.02694190257512526,0.02694190257512526
0.08913276876889717,0.08913276876889717
0.05655660076263569,0.05655660076263569
-0.03969116834677321,-0.03969116834677321
-0.10262240199523288,-0.10262240199523288
-0.0833728481733511,-0.0833728481733511
-0.04117190325614874,-0.04117190325614874
-0.03969116834677321,-0.03969116834677321
-0.0833728481733511,-0.0833728481733511
-0.12631416054524122,-0.12631416054524122
-0.15444812382337614,-0.15444812382337614
-0.16925547291713136,-0.16925547291713136
-0.1551884912780639,-0.1551884912780639
-0.0833728481733511,-0.0833728481733511
0.00102904166105363,0.00102904166105363
0.003250144025116913,0.003250144025116913
-0.1041031369046084,-0.1041031369046084
-0.21219678528902147,-0.21219678528902147
-0.2403307485671564,-0.2403307485671564
-0.21219678528902147,-0.21219678528902147
-0.20109127346870506,-0.20109127346870506
-0.16925547291713136,-0.16925547291713136
-0.09003615526554094,-0.09003615526554094
0.003250144025116913,0.003250144025116913
0.04174925166888047,0.04174925166888047
0.04619145639700704,0.04619145639700704
0.0262015351204375,0.0262015351204375
-0.03969116834677321,-0.03969116834677321
-0.1381600398202454,-0.1381600398202454
-0.16925547291713136,-0.16925547291713136
-0.12779489545461675,-0.12779489545461675
-0.12631416054524122,-0.12631416054524122
-0.2210811947452746,-0.2210811947452746
-0.2988197774874895,-0.2988197774874895
-0.2610610372984137,-0.2610610372984137
-0.12631416054524122,-0.12631416054524122
0.1283722438673485,0.1283722438673485
0.6925322443394222,0.6925322443394222
1.6535292005241358,1.6535292005241358
2.717437232910448,2.717437232910448
3.3585954486700493,3.3585954486700493
3.3208367084809733,3.3208367084809733
2.844040067662055,2.844040067662055
2.373166366480639,2.373166366480639
2.0903459987899145,2.0903459987899145
1.8556495156538946,1.8556495156538946
1.5024942397678325,1.5024942397678325
1.0804847905958088,1.0804847905958088
0.7184451052534938,0.7184451052534938
0.4341440026533937,0.4341440026533937
0.14984290005329357,0.14984290005329357
-0.12631416054524122,-0.12631416054524122
-0.31288675912655695,-0.31288675912655695
-0.3847024022312698,-0.3847024022312698
-0.4232015098750333,-0.4232015098750333
-0.47058502697505,-0.47058502697505
-0.4757675991578643,-0.4757675991578643
-0.3847024022312698,-0.3847024022312698
-0.28253169348435875,-0.28253169348435875
-0.2988197774874895,-0.2988197774874895
-0.44319143115160287,-0.44319143115160287
-0.557208019173518,-0.557208019173518
-0.5342566280781974,-0.5342566280781974
-0.42764371460315986,-0.42764371460315986
-0.3876638720500208,-0.3876638720500208
-0.42764371460315986,-0.42764371460315986
-0.4617006175187969,-0.4617006175187969
-0.42764371460315986,-0.42764371460315986
-0.3847024022312698,-0.3847024022312698
-0.3847024022312698,-0.3847024022312698
-0.4069134258719026,-0.4069134258719026
-0.3847024022312698,-0.3847024022312698
-0.3173289638546835,-0.3173289638546835
-0.2551380976609116,-0.2551380976609116
-0.23144633911090326,-0.23144633911090326
-0.21219678528902147,-0.21219678528902147
-0.18036098473744777,-0.18036098473744777
-0.16925547291713136,-0.16925547291713136
-0.22256192965465013,-0.22256192965465013
-0.2988197774874895,-0.2988197774874895
-0.315848228945308,-0.315848228945308
-0.2551380976609116,-0.2551380976609116
-0.19738943619526628,-0.19738943619526628
-0.21219678528902147,-0.21219678528902147
-0.2751280189374812,-0.2751280189374812
-0.2988197774874895,-0.2988197774874895
-0.2588399349343504,-0.2588399349343504
-0.21219678528902147,-0.21219678528902147
-0.21886009238121132,-0.21886009238121132
-0.2551380976609116,-0.2551380976609116
-0.281791326029671,-0.281791326029671
-0.2988197774874895,-0.2988197774874895
-0.33953998749531633,-0.33953998749531633
-0.3847024022312698,-0.3847024022312698
-0.3802601975031432,-0.3802601975031432
-0.2988197774874895,-0.2988197774874895
-0.19072612910307643,-0.19072612910307643
-0.12631416054524122,-0.12631416054524122
-0.14408297945774748,-0.14408297945774748
-0.21219678528902147,-0.21219678528902147
-0.26624360948122805,-0.26624360948122805
-0.2551380976609116,-0.2551380976609116
-0.20331237583276834,-0.20331237583276834
-0.16925547291713136,-0.16925547291713136
-0.18776465928432537,-0.18776465928432537
-0.21219678528902147,-0.21219678528902147
-0.195168333831203,-0.195168333831203
-0.12631416054524122,-0.12631416054524122
-0.06782513162490812,-0.06782513162490812
-0.03969116834677321,-0.03969116834677321
-0.03154712634520784,-0.03154712634520784
0.003250144025116913,0.003250144025116913
0.04248961912356824,0.04248961912356824
0.04619145639700704,0.04619145639700704
-0.014518674887389347,-0.014518674887389347
-0.0833728481733511,-0.0833728481733511
-0.09225725762960424,-0.09225725762960424
-0.03969116834677321,-0.03969116834677321
-0.030066391435832323,-0.030066391435832323
-0.12631416054524122,-0.12631416054524122
-0.24477295329528295,-0.24477295329528295
-0.21219678528902147,-0.21219678528902147
0.02694190257512526,0.02694190257512526
0.39120269028150356,0.39120269028150356
0.8369038980035356,0.8369038980035356
1.4676969693975077,1.4676969693975077
2.336888361200939,2.336888361200939
3.2349540837371933,3.2349540837371933
3.77172048838582,3.77172048838582
3.7517305671092505,3.7517305671092505
3.3548936113966104,3.3548936113966104
2.9328841622245863,2.9328841622245863
2.6204490963463516,2.6204490963463516
2.2865433742821715,2.2865433742821715
1.8023430589163756,1.8023430589163756
1.2522500400833694,1.2522500400833694
0.7872992785394556,0.7872992785394556
0.4341440026533937,0.4341440026533937
0.12763187641266072,0.12763187641266072
-0.12631416054524122,-0.12631416054524122
-0.28845463312186087,-0.28845463312186087
-0.3847024022312698,-0.3847024022312698
-0.48835384588755626,-0.48835384588755626
-0.6001493315454082,-0.6001493315454082
-0.6734457095594965,-0.6734457095594965
-0.6860319562891884,-0.6860319562891884
-0.6630805651938678,-0.6630805651938678
-0.6001493315454082,-0.6001493315454082
-0.5009400926172483,-0.5009400926172483
-0.3847024022312698,-0.3847024022312698
-0.31436749403593245,-0.31436749403593245
-0.2988197774874895,-0.2988197774874895
-0.3225115360374978,-0.3225115360374978
-0.34176108985937964,-0.34176108985937964
-0.36027027622657365,-0.36027027622657365
-0.3847024022312698,-0.3847024022312698
-0.41727857023753123,-0.41727857023753123
-0.42764371460315986,-0.42764371460315986
-0.42394187732972105,-0.42394187732972105
-0.42764371460315986,-0.42764371460315986
-0.44097032878753956,-0.44097032878753956
-0.42764371460315986,-0.42764371460315986
-0.4061730584172148,-0.4061730584172148
-0.42764371460315986,-0.42764371460315986
-0.48317127370474194,-0.48317127370474194
-0.47058502697505,-0.47058502697505
-0.3691546856828268,-0.3691546856828268
-0.2988197774874895,-0.2988197774874895
-0.3802601975031432,-0.3802601975031432
-0.557208019173518,-0.557208019173518
-0.6815897515610618,-0.6815897515610618
-0.6860319562891884,-0.6860319562891884
-0.6268025599141676,-0.6268025599141676
-0.557208019173518,-0.557208019173518
-0.48983458079693176,-0.48983458079693176
-0.42764371460315986,-0.42764371460315986
-0.4046923235078393,-0.4046923235078393
-0.42764371460315986,-0.42764371460315986
-0.4557776778812948,-0.4557776778812948
-0.42764371460315986,-0.42764371460315986
-0.34546292713281845,-0.34546292713281845
-0.2551380976609116,-0.2551380976609116
-0.18850502673901315,-0.18850502673901315
-0.12631416054524122,-0.12631416054524122
-0.07819027599053678,-0.07819027599053678
-0.0833728481733511,-0.0833728481733511
-0.14260224454837198,-0.14260224454837198
-0.16925547291713136,-0.16925547291713136
-0.10558387181398393,-0.10558387181398393
0.003250144025116913,0.003250144025116913
0.05877770312669897,0.05877770312669897
0.04619145639700704,0.04619145639700704
0.006211613843867956,0.006211613843867956
-0.03969116834677321,-0.03969116834677321
-0.11594901617961258,-0.11594901617961258
-0.21219678528902147,-0.21219678528902147
-0.27438765148279337,-0.27438765148279337
-0.2551380976609116,-0.2551380976609116
-0.18406282201088658,-0.18406282201088658
-0.12631416054524122,-0.12631416054524122
-0.11668938363430034,-0.11668938363430034
-0.12631416054524122,-0.12631416054524122
-0.12779489545461675,-0.12779489545461675
-0.12631416054524122,-0.12631416054524122
-0.14408297945774748,-0.14408297945774748
-0.16925547291713136,-0.16925547291713136
-0.17888024982807224,-0.17888024982807224
-0.16925547291713136,-0.16925547291713136
-0.16629400309838033,-0.16629400309838033
-0.16925547291713136,-0.16925547291713136
-0.16037106346087823,-0.16037106346087823
-0.12631416054524122,-0.12631416054524122
