ECG,PPG
-0.20862010089034136,-0.20862010089034136
-0.03773645337016033,-0.03773645337016033
-0.20862010089034136,-0.20862010089034136
-0.29320750641283094,-0.29320750641283094
-0.20862010089034136,-0.20862010089034136
-0.1829875537623142,-0.1829875537623142
-0.26415728633440017,-0.26415728633440017
-0.30773261645204636,-0.30773261645204636
-0.26415728633440017,-0.26415728633440017
-0.24108799391917574,-0.24108799391917574
-0.26415728633440017,-0.26415728633440017
-0.27611914166081286,-0.27611914166081286
-0.26415728633440017,-0.26415728633440017
-0.27697355989841377,-0.27697355989841377
-0.3188400535408581,-0.3188400535408581
-0.33934609124327986,-0.33934609124327986
-0.3188400535408581,-0.3188400535408581
-0.28466332403682193,-0.28466332403682193
-0.26415728633440017,-0.26415728633440017
-0.23596148449357032,-0.23596148449357032
-0.15393733368388343,-0.15393733368388343
0.022072823261903032,0.022072823261903032
0.28779689515578455,0.28779689515578455
0.6064948977809221,0.6064948977809221
0.949971029296486,0.949971029296486
1.29344716081205,1.29344716081205
1.6121451634371875,1.6121451634371875
1.8402748328766292,1.8402748328766292
1.8881222541822797,1.8881222541822797
1.6300879464268065,1.6300879464268065
1.0055082147405447,1.0055082147405447
0.07931884518116368,0.07931884518116368
-0.9263314204751016,-0.9263314204751016
-1.7833129127888094,-1.7833129127888094
-2.360899641407021,-2.360899641407021
-2.66165486104254,-2.66165486104254
-2.7470966848026306,-2.7470966848026306
-2.7129199552985943,-2.7129199552985943
-2.6368767321521136,-2.6368767321521136
-2.537764216590409,-2.537764216590409
-2.360899641407021,-2.360899641407021
-2.0721062770979155,-2.0721062770979155
-1.6987255072663199,-1.6987255072663199
-1.3056931179699036,-1.3056931179699036
-0.9263314204751016,-0.9263314204751016
-0.6025069084243586,-0.6025069084243586
-0.3743772389849169,-0.3743772389849169
-0.26415728633440017,-0.26415728633440017
-0.20862010089034136,-0.20862010089034136
-0.15906384310948884,-0.15906384310948884
-0.09840014823982458,-0.09840014823982458
-0.06422341873578838,-0.06422341873578838
-0.042862962795765756,-0.042862962795765756
-0.01979367038054132,-0.01979367038054132
0.011819804410692171,0.011819804410692171
0.023781659737104843,0.023781659737104843
0.011819804410692171,0.011819804410692171
-0.00014205091572050069,-0.00014205091572050069
0.011819804410692171,0.011819804410692171
0.04172444272672385,0.04172444272672385
0.067356989854751,0.067356989854751
0.07077466280515463,0.07077466280515463
0.067356989854751,0.067356989854751
0.08017326341876459,0.08017326341876459
0.12203975706120893,0.12203975706120893
0.16305183246605237,0.16305183246605237
0.17757694250526776,0.17757694250526776
0.1656150871788551,0.1656150871788551
0.17757694250526776,0.17757694250526776
0.22371552733571665,0.22371552733571665
0.28779689515578455,0.28779689515578455
0.32453687937262343,0.32453687937262343
0.3433340805998434,0.3433340805998434
0.35871360887665965,0.35871360887665965
0.3980168478063013,0.3980168478063013
0.4475731055871538,0.4475731055871538
0.5082368004568181,0.5082368004568181
0.5637739859008769,0.5637739859008769
0.6193111713449357,0.6193111713449357
0.6654497561753846,0.6654497561753846
0.7295311239954525,0.7295311239954525
0.805574347141933,0.805574347141933
0.8944338438524272,0.8944338438524272
0.9738947399493113,0.9738947399493113
1.0601909819470028,1.0601909819470028
1.157594661033506,1.157594661033506
1.2806308872480363,1.2806308872480363
1.4139201323137776,1.4139201323137776
1.5566079779931286,1.5566079779931286
1.6950237324844752,1.6950237324844752
1.832585068738221,1.832585068738221
1.9513492037647469,1.9513492037647469
2.0538793922768552,2.0538793922768552
2.136757961324143,2.136757961324143
2.2187821121338303,2.2187821121338303
2.2854267346667005,2.2854267346667005
2.329002064784347,2.329002064784347
2.352925775437172,2.352925775437172
2.3845392502284057,2.3845392502284057
2.4067541244060293,2.4067541244060293
2.3845392502284057,2.3845392502284057
2.3042239358939205,2.3042239358939205
2.2187821121338303,2.2187821121338303
2.1453021437001523,2.1453021437001523
2.0538793922768552,2.0538793922768552
1.9009385277462933,1.9009385277462933
1.7223651160877043,1.7223651160877043
1.553190305042725,1.553190305042725
1.391705258136154,1.391705258136154
1.2011699911511522,1.2011699911511522
1.0055082147405447,1.0055082147405447
0.8269348030819557,0.8269348030819557
0.6739939385513937,0.6739939385513937
0.5099456369320199,0.5099456369320199
0.3433340805998434,0.3433340805998434
0.18782996135647861,0.18782996135647861
0.067356989854751,0.067356989854751
-0.04542621750856847,-0.04542621750856847
-0.15393733368388343,-0.15393733368388343
-0.25390426748318934,-0.25390426748318934
-0.3188400535408581,-0.3188400535408581
-0.3718139842721142,-0.3718139842721142
-0.42906000619137485,-0.42906000619137485
-0.49997671991225,-0.49997671991225
-0.5401343770794925,-0.5401343770794925
-0.5444064682674971,-0.5444064682674971
-0.5401343770794925,-0.5401343770794925
-0.5657669242075197,-0.5657669242075197
-0.5948171442859504,-0.5948171442859504
-0.6059245813747622,-0.6059245813747622
-0.5948171442859504,-0.5948171442859504
-0.5939627260483495,-0.5939627260483495
-0.5948171442859504,-0.5948171442859504
-0.5956715625235514,-0.5956715625235514
-0.5948171442859504,-0.5948171442859504
-0.6025069084243586,-0.6025069084243586
-0.5948171442859504,-0.5948171442859504
-0.5683301789203224,-0.5683301789203224
-0.5401343770794925,-0.5401343770794925
-0.5375711223666898,-0.5375711223666898
-0.5401343770794925,-0.5401343770794925
-0.5239004305650753,-0.5239004305650753
-0.4845971916354337,-0.4845971916354337
-0.4521292986065993,-0.4521292986065993
-0.42906000619137485,-0.42906000619137485
-0.40855396848895315,-0.40855396848895315
-0.3743772389849169,-0.3743772389849169
-0.34020050948088076,-0.34020050948088076
-0.3188400535408581,-0.3188400535408581
-0.3171312170656563,-0.3171312170656563
-0.3188400535408581,-0.3188400535408581
-0.3205488900160599,-0.3205488900160599
-0.3188400535408581,-0.3188400535408581
-0.3214033082536608,-0.3214033082536608
-0.3188400535408581,-0.3188400535408581
-0.3179856353032572,-0.3179856353032572
-0.3188400535408581,-0.3188400535408581
-0.32652981767926625,-0.32652981767926625
-0.3188400535408581,-0.3188400535408581
-0.29406192465043185,-0.29406192465043185
-0.26415728633440017,-0.26415728633440017
-0.25561310395839115,-0.25561310395839115
-0.26415728633440017,-0.26415728633440017
-0.27270146871040923,-0.27270146871040923
-0.26415728633440017,-0.26415728633440017
-0.25561310395839115,-0.25561310395839115
-0.26415728633440017,-0.26415728633440017
-0.29406192465043185,-0.29406192465043185
-0.3188400535408581,-0.3188400535408581
-0.32738423591686716,-0.32738423591686716
-0.3188400535408581,-0.3188400535408581
-0.31627679882805537,-0.31627679882805537
-0.3188400535408581,-0.3188400535408581
-0.3231121447288626,-0.3231121447288626
-0.3188400535408581,-0.3188400535408581
-0.3171312170656563,-0.3171312170656563
-0.3188400535408581,-0.3188400535408581
-0.32567539944166535,-0.32567539944166535
-0.3188400535408581,-0.3188400535408581
-0.29662517936323457,-0.29662517936323457
-0.26415728633440017,-0.26415728633440017
-0.2496321762951848,-0.2496321762951848
-0.26415728633440017,-0.26415728633440017
-0.2983340158384364,-0.2983340158384364
-0.3188400535408581,-0.3188400535408581
-0.3222577264912617,-0.3222577264912617
-0.3188400535408581,-0.3188400535408581
-0.32482098120406444,-0.32482098120406444
-0.3188400535408581,-0.3188400535408581
-0.29491634288803276,-0.29491634288803276
-0.26415728633440017,-0.26415728633440017
-0.25646752219599206,-0.25646752219599206
-0.26415728633440017,-0.26415728633440017
-0.2709926322352074,-0.2709926322352074
-0.26415728633440017,-0.26415728633440017
-0.26073961338399654,-0.26073961338399654
-0.26415728633440017,-0.26415728633440017
-0.2692837957600056,-0.2692837957600056
-0.26415728633440017,-0.26415728633440017
-0.26073961338399654,-0.26073961338399654
-0.26415728633440017,-0.26415728633440017
-0.27355588694801014,-0.27355588694801014
-0.26415728633440017,-0.26415728633440017
-0.23767032096877214,-0.23767032096877214
-0.20862010089034136,-0.20862010089034136
-0.202639173227135,-0.202639173227135
-0.20862010089034136,-0.20862010089034136
-0.21460102855354768,-0.21460102855354768
-0.20862010089034136,-0.20862010089034136
-0.20605684617753864,-0.20605684617753864
-0.20862010089034136,-0.20862010089034136
-0.21545544679114859,-0.21545544679114859
-0.20862010089034136,-0.20862010089034136
-0.18896848142552053,-0.18896848142552053
-0.15393733368388343,-0.15393733368388343
-0.12146944065504903,-0.12146944065504903
-0.09840014823982458,-0.09840014823982458
-0.08045736525020558,-0.08045736525020558
-0.042862962795765756,-0.042862962795765756
0.010965386173091266,0.010965386173091266
0.067356989854751,0.067356989854751
0.10238813759638811,0.10238813759638811
0.12203975706120893,0.12203975706120893
0.11434999292280079,0.11434999292280079
0.067356989854751,0.067356989854751
-0.01979367038054132,-0.01979367038054132
-0.09840014823982458,-0.09840014823982458
-0.14112106011986986,-0.14112106011986986
-0.15393733368388343,-0.15393733368388343
-0.17700662609910786,-0.17700662609910786
-0.20862010089034136,-0.20862010089034136
-0.22570846564235944,-0.22570846564235944
-0.20862010089034136,-0.20862010089034136
-0.19324057261352506,-0.19324057261352506
-0.20862010089034136,-0.20862010089034136
-0.2496321762951848,-0.2496321762951848
-0.26415728633440017,-0.26415728633440017
-0.24194241215677664,-0.24194241215677664
-0.20862010089034136,-0.20862010089034136
-0.20520242793993773,-0.20520242793993773
-0.20862010089034136,-0.20862010089034136
-0.20947451912794227,-0.20947451912794227
-0.20862010089034136,-0.20862010089034136
-0.23596148449357032,-0.23596148449357032
-0.26415728633440017,-0.26415728633440017
-0.27270146871040923,-0.27270146871040923
-0.26415728633440017,-0.26415728633440017
-0.26159403162159744,-0.26159403162159744
-0.26415728633440017,-0.26415728633440017
-0.26330286809679926,-0.26330286809679926
-0.26415728633440017,-0.26415728633440017
-0.2581763586711939,-0.2581763586711939
-0.20862010089034136,-0.20862010089034136
-0.09840014823982458,-0.09840014823982458
0.067356989854751,0.067356989854751
0.310866187571009,0.310866187571009
0.6739939385513937,0.6739939385513937
1.1063295667774515,1.1063295667774515
1.5019252107866707,1.5019252107866707
1.832585068738221,1.832585068738221
2.164099344927372,2.164099344927372
2.4067541244060293,2.4067541244060293
2.2743192975778888,2.2743192975778888
1.5651521603691376,1.5651521603691376
0.45355403325036014,0.45355403325036014
-0.6862398957092473,-0.6862398957092473
-1.5885055546158031,-1.5885055546158031
-2.212230868064464,-2.212230868064464
-2.5813395467080547,-2.5813395467080547
-2.7368436659514197,-2.7368436659514197
-2.7470966848026306,-2.7470966848026306
-2.707793445872989,-2.707793445872989
-2.6368767321521136,-2.6368767321521136
-2.4976065594231662,-2.4976065594231662
-2.2506796887565046,-2.2506796887565046
-1.9157477396169498,-1.9157477396169498
-1.5329683691717444,-1.5329683691717444
-1.1553155081521442,-1.1553155081521442
-0.815257049586984,-0.815257049586984
-0.553805068881107,-0.553805068881107
-0.3743772389849169,-0.3743772389849169
-0.27441030518561105,-0.27441030518561105
-0.20862010089034136,-0.20862010089034136
-0.15564617015908525,-0.15564617015908525
-0.09840014823982458,-0.09840014823982458
-0.06251458226058658,-0.06251458226058658
-0.042862962795765756,-0.042862962795765756
-0.02492017980614675,-0.02492017980614675
0.011819804410692171,0.011819804410692171
0.05112304334033381,0.05112304334033381
0.067356989854751,0.067356989854751
0.06137606219154467,0.06137606219154467
0.067356989854751,0.067356989854751
0.09469837345797996,0.09469837345797996
0.12203975706120893,0.12203975706120893
0.12460301177401165,0.12460301177401165
0.12203975706120893,0.12203975706120893
0.14169137652602976,0.14169137652602976
0.17757694250526776,0.17757694250526776
0.19039321606928133,0.19039321606928133
0.17757694250526776,0.17757694250526776
0.16048857775324965,0.16048857775324965
0.17757694250526776,0.17757694250526776
0.22456994557331755,0.22456994557331755
0.28779689515578455,0.28779689515578455
0.32795455232302706,0.32795455232302706
0.3433340805998434,0.3433340805998434
0.3510238447382515,0.3510238447382515
0.3980168478063013,0.3980168478063013
0.46209821562636916,0.46209821562636916
0.5082368004568181,0.5082368004568181
0.5219074922584326,0.5219074922584326
0.5637739859008769,0.5637739859008769
0.6440893002353619,0.6440893002353619
0.7295311239954525,0.7295311239954525
0.7782329635387041,0.7782329635387041
0.8397510766459693,0.8397510766459693
0.9397180104452751,0.9397180104452751
1.0601909819470028,1.0601909819470028
1.1610123339839096,1.1610123339839096
1.2806308872480363,1.2806308872480363
1.4412615159170064,1.4412615159170064
1.6121451634371875,1.6121451634371875
1.734326971414117,1.734326971414117
1.832585068738221,1.832585068738221
1.940241766675935,1.940241766675935
2.0538793922768552,2.0538793922768552
2.1256505242353314,2.1256505242353314
2.164099344927372,2.164099344927372
2.1888774738177985,2.1888774738177985
2.2187821121338303,2.2187821121338303
2.2435602410242566,2.2435602410242566
2.2743192975778888,2.2743192975778888
2.2931164988051087,2.2931164988051087
2.2743192975778888,2.2743192975778888
2.1999849109066103,2.1999849109066103
2.1085621594833133,2.1085621594833133
2.0111584803968103,2.0111584803968103
1.8881222541822797,1.8881222541822797
1.7232195343253052,1.7232195343253052
1.5566079779931286,1.5566079779931286
1.3993950222745621,1.3993950222745621
1.2259481200415783,1.2259481200415783
1.0200333247797602,1.0200333247797602
0.8397510766459693,0.8397510766459693
0.7021897403922235,0.7021897403922235
0.5637739859008769,0.5637739859008769
0.37067546420307235,0.37067546420307235
0.17757694250526776,0.17757694250526776
0.04087002448912295,0.04087002448912295
-0.042862962795765756,-0.042862962795765756
-0.14453873307027346,-0.14453873307027346
-0.26415728633440017,-0.26415728633440017
-0.36839631132171063,-0.36839631132171063
-0.42906000619137485,-0.42906000619137485
-0.48117951868503006,-0.48117951868503006
-0.5401343770794925,-0.5401343770794925
-0.6067789996123631,-0.6067789996123631
-0.6503543297300093,-0.6503543297300093
-0.6648794397692247,-0.6648794397692247
-0.6503543297300093,-0.6503543297300093
-0.6426645655916011,-0.6426645655916011
-0.6503543297300093,-0.6503543297300093
-0.6648794397692247,-0.6648794397692247
-0.6503543297300093,-0.6503543297300093
-0.6161776002259731,-0.6161776002259731
-0.5948171442859504,-0.5948171442859504
-0.617032018463574,-0.617032018463574
-0.6503543297300093,-0.6503543297300093
-0.6631706032940229,-0.6631706032940229
-0.6503543297300093,-0.6503543297300093
-0.643518983829202,-0.643518983829202
-0.6503543297300093,-0.6503543297300093
-0.6597529303436193,-0.6597529303436193
-0.6503543297300093,-0.6503543297300093
-0.6247217826019822,-0.6247217826019822
-0.5948171442859504,-0.5948171442859504
-0.5845641254347396,-0.5845641254347396
-0.5948171442859504,-0.5948171442859504
-0.608487836087565,-0.608487836087565
-0.5948171442859504,-0.5948171442859504
-0.5623492512571161,-0.5623492512571161
-0.5401343770794925,-0.5401343770794925
-0.5426976317922952,-0.5426976317922952
-0.5401343770794925,-0.5401343770794925
-0.5145018299514654,-0.5145018299514654
-0.4845971916354337,-0.4845971916354337
-0.47947068220982825,-0.47947068220982825
-0.4845971916354337,-0.4845971916354337
-0.4863060281106355,-0.4863060281106355
-0.4845971916354337,-0.4845971916354337
-0.49143253753624094,-0.49143253753624094
-0.4845971916354337,-0.4845971916354337
-0.45811022626980563,-0.45811022626980563
-0.42906000619137485,-0.42906000619137485
-0.4247879150033703,-0.4247879150033703
-0.42906000619137485,-0.42906000619137485
-0.42991442442897576,-0.42991442442897576
-0.42906000619137485,-0.42906000619137485
-0.4376041885673839,-0.4376041885673839
-0.42906000619137485,-0.42906000619137485
-0.4000097861129441,-0.4000097861129441
-0.3743772389849169,-0.3743772389849169
-0.38975676726173325,-0.38975676726173325
-0.42906000619137485,-0.42906000619137485
-0.4504204621313975,-0.4504204621313975
-0.42906000619137485,-0.42906000619137485
-0.3948832766873387,-0.3948832766873387
-0.3743772389849169,-0.3743772389849169
-0.37523165722251783,-0.37523165722251783
-0.3743772389849169,-0.3743772389849169
-0.3701051477969124,-0.3701051477969124
-0.3743772389849169,-0.3743772389849169
-0.39915536787534317,-0.39915536787534317
-0.42906000619137485,-0.42906000619137485
-0.45981906274500745,-0.45981906274500745
-0.4845971916354337,-0.4845971916354337
-0.5008311381498509,-0.5008311381498509
-0.4845971916354337,-0.4845971916354337
-0.4487116256561957,-0.4487116256561957
-0.42906000619137485,-0.42906000619137485
-0.454692553319402,-0.454692553319402
-0.4845971916354337,-0.4845971916354337
-0.4769074274970256,-0.4769074274970256
-0.42906000619137485,-0.42906000619137485
-0.38975676726173325,-0.38975676726173325
-0.3743772389849169,-0.3743772389849169
-0.37694049369771965,-0.37694049369771965
-0.3743772389849169,-0.3743772389849169
-0.373522820747316,-0.373522820747316
-0.3743772389849169,-0.3743772389849169
-0.3803581666481233,-0.3803581666481233
-0.3743772389849169,-0.3743772389849169
-0.3547256195200961,-0.3547256195200961
-0.3188400535408581,-0.3188400535408581
-0.2863721605120237,-0.2863721605120237
-0.26415728633440017,-0.26415728633440017
-0.26073961338399654,-0.26073961338399654
-0.26415728633440017,-0.26415728633440017
-0.2692837957600056,-0.2692837957600056
-0.26415728633440017,-0.26415728633440017
-0.24706892158238208,-0.24706892158238208
-0.20862010089034136,-0.20862010089034136
-0.15650058839668612,-0.15650058839668612
-0.09840014823982458,-0.09840014823982458
-0.057388072834981145,-0.057388072834981145
-0.042862962795765756,-0.042862962795765756
-0.06336900049818749,-0.06336900049818749
-0.09840014823982458,-0.09840014823982458
-0.1334312959814617,-0.1334312959814617
-0.15393733368388343,-0.15393733368388343
-0.17615220786150695,-0.17615220786150695
-0.20862010089034136,-0.20862010089034136
-0.247923339819983,-0.247923339819983
-0.26415728633440017,-0.26415728633440017
-0.26159403162159744,-0.26159403162159744
-0.26415728633440017,-0.26415728633440017
-0.29235308817523004,-0.29235308817523004
-0.3188400535408581,-0.3188400535408581
-0.32738423591686716,-0.32738423591686716
-0.3188400535408581,-0.3188400535408581
-0.319694471778459,-0.319694471778459
-0.3188400535408581,-0.3188400535408581
-0.3179856353032572,-0.3179856353032572
-0.3188400535408581,-0.3188400535408581
-0.34532701890648615,-0.34532701890648615
-0.3743772389849169,-0.3743772389849169
-0.38975676726173325,-0.38975676726173325
-0.3743772389849169,-0.3743772389849169
-0.34532701890648615,-0.34532701890648615
-0.3188400535408581,-0.3188400535408581
-0.31115028940245,-0.31115028940245
-0.3188400535408581,-0.3188400535408581
-0.329093072392069,-0.329093072392069
-0.3188400535408581,-0.3188400535408581
-0.2778279781360147,-0.2778279781360147
-0.20862010089034136,-0.20862010089034136
-0.1171973494670445,-0.1171973494670445
0.011819804410692171,0.011819804410692171
0.21602576319730848,0.21602576319730848
0.5082368004568181,0.5082368004568181
0.8286436395571575,0.8286436395571575
1.1157281673910615,1.1157281673910615
1.3797434028097413,1.3797434028097413
1.6668279306436453,1.6668279306436453
1.8659073800046562,1.8659073800046562
1.7223651160877043,1.7223651160877043
1.0738616737486173,1.0738616737486173
0.067356989854751,0.067356989854751
-0.976742096493555,-0.976742096493555
-1.8089454599168366,-1.8089454599168366
-2.372007078495833,-2.372007078495833
-2.6915594993585716,-2.6915594993585716
-2.8180133985235054,-2.8180133985235054
-2.801779452009088,-2.801779452009088
-2.715483210011397,-2.715483210011397
-2.5813395467080547,-2.5813395467080547
-2.382260097347044,-2.382260097347044
-2.084922550661929,-2.084922550661929
-1.7106873625927326,-1.7106873625927326
-1.3125284638707109,-1.3125284638707109
-0.9536728040783307,-0.9536728040783307
-0.6503543297300093,-0.6503543297300093
-0.41966140557776493,-0.41966140557776493
-0.26415728633440017,-0.26415728633440017
-0.18982289966312144,-0.18982289966312144
-0.15393733368388343,-0.15393733368388343
-0.12915920479345716,-0.12915920479345716
-0.09840014823982458,-0.09840014823982458
-0.07533085582460015,-0.07533085582460015
-0.042862962795765756,-0.042862962795765756
-0.008686233291729552,-0.008686233291729552
0.011819804410692171,0.011819804410692171
0.01011096793549036,0.01011096793549036
0.011819804410692171,0.011819804410692171
0.03745235153871933,0.03745235153871933
0.067356989854751,0.067356989854751
0.07248349928035644,0.07248349928035644
0.067356989854751,0.067356989854751
0.08017326341876459,0.08017326341876459
0.12203975706120893,0.12203975706120893
0.16048857775324965,0.16048857775324965
0.17757694250526776,0.17757694250526776
0.17245043307966235,0.17245043307966235
0.17757694250526776,0.17757694250526776
0.19637414373248768,0.19637414373248768
0.2322597097117257,0.2322597097117257
0.26216434802775734,0.26216434802775734
0.28779689515578455,0.28779689515578455
0.30830293285820626,0.30830293285820626
0.3433340805998434,0.3433340805998434
0.3740931371534759,0.3740931371534759
0.3980168478063013,0.3980168478063013
0.41254195784551667,0.41254195784551667
0.45355403325036014,0.45355403325036014
0.5236163287336343,0.5236163287336343
0.6193111713449357,0.6193111713449357
0.7038985768674253,0.7038985768674253
0.7842138912019104,0.7842138912019104
0.85940269611079,0.85940269611079
0.949971029296486,0.949971029296486
1.04822912662059,1.04822912662059
1.1704109345975195,1.1704109345975195
1.3054090161384626,1.3054090161384626
1.4463880253426118,1.4463880253426118
1.5642977421315367,1.5642977421315367
1.6668279306436453,1.6668279306436453
1.7667948644429512,1.7667948644429512
1.8881222541822797,1.8881222541822797
2.0085952256840076,2.0085952256840076
2.1085621594833133,2.1085621594833133
2.1692258543529777,2.1692258543529777
2.2187821121338303,2.2187821121338303
2.272610461102687,2.272610461102687
2.329002064784347,2.329002064784347
2.3520713571995713,2.3520713571995713
2.329002064784347,2.329002064784347
2.2743192975778888,2.2743192975778888
2.2187821121338303,2.2187821121338303
2.1521374896009595,2.1521374896009595
2.0538793922768552,2.0538793922768552
1.9154636377855088,1.9154636377855088
1.777902301531763,1.777902301531763
1.6463218929412236,1.6463218929412236
1.5019252107866707,1.5019252107866707
1.3139531985144717,1.3139531985144717
1.1157281673910615,1.1157281673910615
0.9371547557324724,0.9371547557324724
0.7842138912019104,0.7842138912019104
0.6218744260577385,0.6218744260577385
0.45355403325036014,0.45355403325036014
0.29719549576939447,0.29719549576939447
0.17757694250526776,0.17757694250526776
0.0682114080923519,0.0682114080923519
-0.042862962795765756,-0.042862962795765756
-0.16333593429749338,-0.16333593429749338
-0.26415728633440017,-0.26415728633440017
-0.3513079465696925,-0.3513079465696925
-0.42906000619137485,-0.42906000619137485
-0.5042488111002545,-0.5042488111002545
-0.5401343770794925,-0.5401343770794925
-0.5426976317922952,-0.5426976317922952
-0.5401343770794925,-0.5401343770794925
-0.5666213424451206,-0.5666213424451206
-0.5948171442859504,-0.5948171442859504
-0.6050701631371613,-0.6050701631371613
-0.5948171442859504,-0.5948171442859504
-0.5939627260483495,-0.5939627260483495
-0.5948171442859504,-0.5948171442859504
-0.5956715625235514,-0.5956715625235514
-0.5948171442859504,-0.5948171442859504
-0.6033613266619595,-0.6033613266619595
-0.5948171442859504,-0.5948171442859504
-0.5683301789203224,-0.5683301789203224
-0.5401343770794925,-0.5401343770794925
-0.5375711223666898,-0.5375711223666898
-0.5401343770794925,-0.5401343770794925
-0.5230460123274744,-0.5230460123274744
-0.4845971916354337,-0.4845971916354337
-0.4538381350818011,-0.4538381350818011
-0.42906000619137485,-0.42906000619137485
-0.4059907137761504,-0.4059907137761504
-0.3743772389849169,-0.3743772389849169
-0.34532701890648615,-0.34532701890648615
-0.3188400535408581,-0.3188400535408581
-0.3102958711648491,-0.3102958711648491
-0.3188400535408581,-0.3188400535408581
-0.3333651635800735,-0.3333651635800735
-0.3188400535408581,-0.3188400535408581
-0.283808905799221,-0.283808905799221
-0.26415728633440017,-0.26415728633440017
-0.2872265787496246,-0.2872265787496246
-0.3188400535408581,-0.3188400535408581
-0.329093072392069,-0.329093072392069
-0.3188400535408581,-0.3188400535408581
-0.3188400535408581,-0.3188400535408581
-0.3188400535408581,-0.3188400535408581
-0.30175168878884,-0.30175168878884
-0.26415728633440017,-0.26415728633440017
-0.24536008510718027,-0.24536008510718027
-0.26415728633440017,-0.26415728633440017
-0.30175168878884,-0.30175168878884
-0.3188400535408581,-0.3188400535408581
-0.3179856353032572,-0.3179856353032572
-0.3188400535408581,-0.3188400535408581
-0.3299474906296699,-0.3299474906296699
-0.3188400535408581,-0.3188400535408581
-0.2863721605120237,-0.2863721605120237
-0.26415728633440017,-0.26415728633440017
-0.28466332403682193,-0.28466332403682193
-0.3188400535408581,-0.3188400535408581
-0.3316563271048717,-0.3316563271048717
-0.3188400535408581,-0.3188400535408581
-0.31456796235285356,-0.31456796235285356
-0.3188400535408581,-0.3188400535408581
-0.3231121447288626,-0.3231121447288626
-0.3188400535408581,-0.3188400535408581
-0.319694471778459,-0.319694471778459
-0.3188400535408581,-0.3188400535408581
-0.319694471778459,-0.319694471778459
-0.3188400535408581,-0.3188400535408581
-0.3231121447288626,-0.3231121447288626
-0.3188400535408581,-0.3188400535408581
-0.31456796235285356,-0.31456796235285356
-0.3188400535408581,-0.3188400535408581
-0.3316563271048717,-0.3316563271048717
-0.3188400535408581,-0.3188400535408581
-0.28551774227442284,-0.28551774227442284
-0.26415728633440017,-0.26415728633440017
-0.2863721605120237,-0.2863721605120237
-0.3188400535408581,-0.3188400535408581
-0.3308019088672708,-0.3308019088672708
-0.3188400535408581,-0.3188400535408581
-0.31542238059045447,-0.31542238059045447
-0.3188400535408581,-0.3188400535408581
-0.32396656296646353,-0.32396656296646353
-0.3188400535408581,-0.3188400535408581
-0.30431494350164273,-0.30431494350164273
-0.26415728633440017,-0.26415728633440017
-0.21972753797915312,-0.21972753797915312
-0.20862010089034136,-0.20862010089034136
-0.24194241215677664,-0.24194241215677664
-0.26415728633440017,-0.26415728633440017
-0.24450566686957936,-0.24450566686957936
-0.20862010089034136,-0.20862010089034136
-0.202639173227135,-0.202639173227135
-0.20862010089034136,-0.20862010089034136
-0.19580382732632778,-0.19580382732632778
-0.15393733368388343,-0.15393733368388343
-0.10352665766543002,-0.10352665766543002
-0.042862962795765756,-0.042862962795765756
0.01950956854910032,0.01950956854910032
0.067356989854751,0.067356989854751
0.07761000870596187,0.07761000870596187
0.067356989854751,0.067356989854751
0.045996533914728376,0.045996533914728376
0.011819804410692171,0.011819804410692171
-0.04457179927096757,-0.04457179927096757
-0.09840014823982458,-0.09840014823982458
-0.1325768777438608,-0.1325768777438608
-0.15393733368388343,-0.15393733368388343
-0.1829875537623142,-0.1829875537623142
-0.20862010089034136,-0.20862010089034136
-0.2180187015039513,-0.2180187015039513
-0.20862010089034136,-0.20862010089034136
-0.20520242793993773,-0.20520242793993773
-0.20862010089034136,-0.20862010089034136
-0.21374661031594677,-0.21374661031594677
-0.20862010089034136,-0.20862010089034136
-0.20776568265274045,-0.20776568265274045
-0.20862010089034136,-0.20862010089034136
-0.21545544679114859,-0.21545544679114859
-0.20862010089034136,-0.20862010089034136
-0.20434800970233682,-0.20434800970233682
-0.20862010089034136,-0.20862010089034136
-0.23767032096877214,-0.23767032096877214
-0.26415728633440017,-0.26415728633440017
-0.27355588694801014,-0.27355588694801014
-0.26415728633440017,-0.26415728633440017
-0.25732194043359297,-0.25732194043359297
-0.26415728633440017,-0.26415728633440017
-0.2718470504728083,-0.2718470504728083
-0.26415728633440017,-0.26415728633440017
-0.24108799391917574,-0.24108799391917574
-0.20862010089034136,-0.20862010089034136
-0.15650058839668612,-0.15650058839668612
-0.042862962795765756,-0.042862962795765756
0.17672252426766685,0.17672252426766685
0.5082368004568181,0.5082368004568181
0.8952882620900281,0.8952882620900281
1.2806308872480363,1.2806308872480363
1.6480307294164254,1.6480307294164254
1.9983422068327965,1.9983422068327965
2.2324528039354448,2.2324528039354448
2.164099344927372,2.164099344927372
1.6454674747036229,1.6454674747036229
0.7295311239954525,0.7295311239954525
-0.37779491193532055,-0.37779491193532055
-1.4227484165212276,-1.4227484165212276
-2.2241927233908765,-2.2241927233908765
-2.6915594993585716,-2.6915594993585716
-2.8632975651163535,-2.8632975651163535
-2.857316637453147,-2.857316637453147
-2.7915264331578777,-2.7915264331578777
-2.6915594993585716,-2.6915594993585716
-2.536909798352808,-2.536909798352808
-2.3053624559629626,-2.3053624559629626
-2.0071704910402466,-2.0071704910402466
-1.643188321822261,-1.643188321822261
-1.247592677813042,-1.247592677813042
-0.8707942350310428,-0.8707942350310428
-0.5785831977715332,-0.5785831977715332
-0.3743772389849169,-0.3743772389849169
-0.24536008510718027,-0.24536008510718027
-0.15393733368388343,-0.15393733368388343
-0.09412805705182006,-0.09412805705182006
-0.042862962795765756,-0.042862962795765756
-0.008686233291729552,-0.008686233291729552
0.011819804410692171,0.011819804410692171
0.010965386173091266,0.010965386173091266
0.011819804410692171,0.011819804410692171
0.030617005637912083,0.030617005637912083
0.067356989854751,0.067356989854751
0.1015337193587872,0.1015337193587872
0.12203975706120893,0.12203975706120893
0.12545743001161255,0.12545743001161255
0.12203975706120893,0.12203975706120893
0.1331471941500207,0.1331471941500207
0.17757694250526776,0.17757694250526776
0.22456994557331755,0.22456994557331755
0.2322597097117257,0.2322597097117257
0.19637414373248768,0.19637414373248768
0.17757694250526776,0.17757694250526776
0.1972285619700886,0.1972285619700886
0.2322597097117257,0.2322597097117257
0.2510569109389456,0.2510569109389456
0.28779689515578455,0.28779689515578455
0.34760617178784786,0.34760617178784786
0.3980168478063013,0.3980168478063013
0.3980168478063013,0.3980168478063013
0.3980168478063013,0.3980168478063013
0.436465668498342,0.436465668498342
0.5082368004568181,0.5082368004568181
0.5637739859008769,0.5637739859008769
0.6193111713449357,0.6193111713449357
0.6910823033034117,0.6910823033034117
0.7842138912019104,0.7842138912019104
0.8645292055363955,0.8645292055363955
0.949971029296486,0.949971029296486
1.0507923813333928,1.0507923813333928
1.1704109345975195,1.1704109345975195
1.2789220507728345,1.2789220507728345
1.391705258136154,1.391705258136154
1.517304739063487,1.517304739063487
1.6668279306436453,1.6668279306436453
1.8120790310357993,1.8120790310357993
1.9428050213887378,1.9428050213887378
2.055588228752057,2.055588228752057
2.164099344927372,2.164099344927372
2.255522096350669,2.255522096350669
2.329002064784347,2.329002064784347
2.383684831990805,2.383684831990805
2.4400764356724647,2.4400764356724647
2.4819429293149087,2.4819429293149087
2.4947592028789223,2.4947592028789223
2.469981073988496,2.469981073988496
2.4400764356724647,2.4400764356724647
2.401627614980424,2.401627614980424
2.329002064784347,2.329002064784347
2.1999849109066103,2.1999849109066103
2.0538793922768552,2.0538793922768552
1.9163180560231097,1.9163180560231097
1.777902301531763,1.777902301531763
1.597620053397972,1.597620053397972
1.391705258136154,1.391705258136154
1.1874992993495377,1.1874992993495377
1.0055082147405447,1.0055082147405447
0.814972947755543,0.814972947755543
0.6193111713449357,0.6193111713449357
0.4321935773103375,0.4321935773103375
0.28779689515578455,0.28779689515578455
0.17159601484206144,0.17159601484206144
0.067356989854751,0.067356989854751
-0.04798947222137119,-0.04798947222137119
-0.15393733368388343,-0.15393733368388343
-0.24706892158238208,-0.24706892158238208
-0.3188400535408581,-0.3188400535408581
-0.3846302578361278,-0.3846302578361278
-0.42906000619137485,-0.42906000619137485
-0.46238231745781017,-0.46238231745781017
-0.4845971916354337,-0.4845971916354337
-0.5162106664266672,-0.5162106664266672
-0.5401343770794925,-0.5401343770794925
-0.5495329776931025,-0.5495329776931025
-0.5401343770794925,-0.5401343770794925
-0.5367167041290889,-0.5367167041290889
-0.5401343770794925,-0.5401343770794925
-0.5469697229802998,-0.5469697229802998
-0.5401343770794925,-0.5401343770794925
-0.5350078676538871,-0.5350078676538871
-0.5401343770794925,-0.5401343770794925
-0.5520962324059052,-0.5520962324059052
-0.5401343770794925,-0.5401343770794925
-0.50937532052586,-0.50937532052586
-0.4845971916354337,-0.4845971916354337
-0.4863060281106355,-0.4863060281106355
-0.4845971916354337,-0.4845971916354337
-0.46152789922020926,-0.46152789922020926
-0.42906000619137485,-0.42906000619137485
-0.42307907852816856,-0.42307907852816856
-0.42906000619137485,-0.42906000619137485
-0.418806987340164,-0.418806987340164
-0.3743772389849169,-0.3743772389849169
-0.3316563271048717,-0.3316563271048717
-0.3188400535408581,-0.3188400535408581
-0.34447260066888524,-0.34447260066888524
-0.3743772389849169,-0.3743772389849169
-0.38804793078653144,-0.38804793078653144
-0.3743772389849169,-0.3743772389849169
-0.34789027361928887,-0.34789027361928887
-0.3188400535408581,-0.3188400535408581
-0.3094414529272482,-0.3094414529272482
-0.3188400535408581,-0.3188400535408581
-0.3333651635800735,-0.3333651635800735
-0.3188400535408581,-0.3188400535408581
-0.28551774227442284,-0.28551774227442284
-0.26415728633440017,-0.26415728633440017
-0.28466332403682193,-0.28466332403682193
-0.3188400535408581,-0.3188400535408581
-0.3333651635800735,-0.3333651635800735
-0.3188400535408581,-0.3188400535408581
-0.31115028940245,-0.31115028940245
-0.3188400535408581,-0.3188400535408581
-0.3316563271048717,-0.3316563271048717
-0.3188400535408581,-0.3188400535408581
-0.2906442517000282,-0.2906442517000282
-0.26415728633440017,-0.26415728633440017
-0.25988519514639563,-0.25988519514639563
-0.26415728633440017,-0.26415728633440017
-0.2667205410472029,-0.2667205410472029
-0.26415728633440017,-0.26415728633440017
-0.26501170457200107,-0.26501170457200107
-0.26415728633440017,-0.26415728633440017
-0.26415728633440017,-0.26415728633440017
-0.26415728633440017,-0.26415728633440017
-0.2675749592848038,-0.2675749592848038
-0.26415728633440017,-0.26415728633440017
-0.25988519514639563,-0.25988519514639563
-0.26415728633440017,-0.26415728633440017
-0.27526472342321195,-0.27526472342321195
-0.26415728633440017,-0.26415728633440017
-0.2316893933055658,-0.2316893933055658
-0.20862010089034136,-0.20862010089034136
-0.22912613859276307,-0.22912613859276307
-0.26415728633440017,-0.26415728633440017
-0.2786823963736156,-0.2786823963736156
-0.26415728633440017,-0.26415728633440017
-0.25561310395839115,-0.25561310395839115
-0.26415728633440017,-0.26415728633440017
-0.27697355989841377,-0.27697355989841377
-0.26415728633440017,-0.26415728633440017
-0.23510706625596942,-0.23510706625596942
-0.20862010089034136,-0.20862010089034136
-0.20520242793993773,-0.20520242793993773
-0.20862010089034136,-0.20862010089034136
-0.21203777384074496,-0.21203777384074496
-0.20862010089034136,-0.20862010089034136
-0.21032893736554317,-0.21032893736554317
-0.20862010089034136,-0.20862010089034136
-0.20862010089034136,-0.20862010089034136
-0.20862010089034136,-0.20862010089034136
-0.21374661031594677,-0.21374661031594677
-0.20862010089034136,-0.20862010089034136
-0.20349359146473592,-0.20349359146473592
-0.20862010089034136,-0.20862010089034136
-0.22399962916715765,-0.22399962916715765
-0.20862010089034136,-0.20862010089034136
-0.15735500663428703,-0.15735500663428703
-0.09840014823982458,-0.09840014823982458
-0.06849550992379291,-0.06849550992379291
-0.042862962795765756,-0.042862962795765756
0.0024212037970822147,0.0024212037970822147
0.067356989854751,0.067356989854751
0.11093231997239716,0.11093231997239716
0.12203975706120893,0.12203975706120893
0.10409697407158992,0.10409697407158992
0.067356989854751,0.067356989854751
0.010965386173091266,0.010965386173091266
-0.042862962795765756,-0.042862962795765756
-0.08045736525020558,-0.08045736525020558
-0.09840014823982458,-0.09840014823982458
-0.12061502241744812,-0.12061502241744812
-0.15393733368388343,-0.15393733368388343
-0.19067731790072234,-0.19067731790072234
-0.20862010089034136,-0.20862010089034136
-0.21289219207834587,-0.21289219207834587
-0.20862010089034136,-0.20862010089034136
-0.21203777384074496,-0.21203777384074496
-0.20862010089034136,-0.20862010089034136
-0.19067731790072234,-0.19067731790072234
-0.15393733368388343,-0.15393733368388343
-0.13684896893186532,-0.13684896893186532
-0.15393733368388343,-0.15393733368388343
-0.19409499085112597,-0.19409499085112597
-0.20862010089034136,-0.20862010089034136
-0.20349359146473592,-0.20349359146473592
-0.20862010089034136,-0.20862010089034136
-0.24279683039437755,-0.24279683039437755
-0.26415728633440017,-0.26415728633440017
-0.24450566686957936,-0.24450566686957936
-0.20862010089034136,-0.20862010089034136
-0.19836708203913048,-0.19836708203913048
-0.20862010089034136,-0.20862010089034136
-0.202639173227135,-0.202639173227135
-0.15393733368388343,-0.15393733368388343
-0.05311598164697662,-0.05311598164697662
0.12203975706120893,0.12203975706120893
0.4039977754695076,0.4039977754695076
0.7842138912019104,0.7842138912019104
1.193480227012744,1.193480227012744
1.5566079779931286,1.5566079779931286
1.832585068738221,1.832585068738221
1.9983422068327965,1.9983422068327965
1.9658743138039623,1.9658743138039623
1.6121451634371875,1.6121451634371875
0.8807631520508127,0.8807631520508127
-0.09840014823982458,-0.09840014823982458
-1.086107630906471,-1.086107630906471
-1.8636282271232945,-1.8636282271232945
-2.3523554590310125,-2.3523554590310125
-2.5813395467080547,-2.5813395467080547
-2.6471297510033245,-2.6471297510033245
-2.6368767321521136,-2.6368767321521136
-2.6035544208856782,-2.6035544208856782
-2.525802361263996,-2.525802361263996
-2.348937786080609,-2.348937786080609
-2.02938536521787,-2.02938536521787
-1.616701356456633,-1.616701356456633
-1.202308511220194,-1.202308511220194
-0.8622500526550337,-0.8622500526550337
-0.5948171442859504,-0.5948171442859504
-0.3957376949249396,-0.3957376949249396
-0.26415728633440017,-0.26415728633440017
-0.2017847549895341,-0.2017847549895341
-0.15393733368388343,-0.15393733368388343
-0.09669131176462278,-0.09669131176462278
-0.042862962795765756,-0.042862962795765756
-0.03517319865735761,-0.03517319865735761
-0.042862962795765756,-0.042862962795765756
-0.03004668923175218,-0.03004668923175218
0.011819804410692171,0.011819804410692171
0.049414206865131996,0.049414206865131996
0.067356989854751,0.067356989854751
0.06992024456755372,0.06992024456755372
0.067356989854751,0.067356989854751
0.060521643953943764,0.060521643953943764
0.067356989854751,0.067356989854751
0.09128070050757635,0.09128070050757635
0.12203975706120893,0.12203975706120893
0.1314383576748189,0.1314383576748189
0.12203975706120893,0.12203975706120893
0.10922348349719535,0.10922348349719535
0.12203975706120893,0.12203975706120893
0.16476066894125418,0.16476066894125418
0.2322597097117257,0.2322597097117257
0.2801071310173764,0.2801071310173764
0.28779689515578455,0.28779689515578455
0.2698541121661655,0.2698541121661655
0.28779689515578455,0.28779689515578455
0.3424796623622425,0.3424796623622425
0.3980168478063013,0.3980168478063013
0.4193773037463239,0.4193773037463239
0.45355403325036014,0.45355403325036014
0.5244707469712352,0.5244707469712352
0.6193111713449357,0.6193111713449357
0.6816837026898018,0.6816837026898018
0.7295311239954525,0.7295311239954525
0.7919036553403186,0.7919036553403186
0.8944338438524272,0.8944338438524272
1.0055082147405447,1.0055082147405447
1.1157281673910615,1.1157281673910615
1.219967192378372,1.219967192378372
1.336168072692095,1.336168072692095
1.4489512800554145,1.4489512800554145
1.5566079779931286,1.5566079779931286
1.659992584742838,1.659992584742838
1.777902301531763,1.777902301531763
1.894957600083087,1.894957600083087
1.9983422068327965,1.9983422068327965
2.0795119394048824,2.0795119394048824
2.164099344927372,2.164099344927372
2.240142568073853,2.240142568073853
2.2743192975778888,2.2743192975778888
2.2350160586482475,2.2350160586482475
2.164099344927372,2.164099344927372
2.100872395344905,2.100872395344905
2.0538793922768552,2.0538793922768552
1.983817096793581,1.983817096793581
1.8881222541822797,1.8881222541822797
1.777047883294162,1.777047883294162
1.6668279306436453,1.6668279306436453
1.5395196132411104,1.5395196132411104
1.391705258136154,1.391705258136154
1.2233848653287756,1.2233848653287756
1.0601909819470028,1.0601909819470028
0.8969970985652299,0.8969970985652299
0.7295311239954525,0.7295311239954525
0.5381414387728497,0.5381414387728497
0.3433340805998434,0.3433340805998434
0.15877974127804786,0.15877974127804786
0.011819804410692171,0.011819804410692171
-0.10950758532863636,-0.10950758532863636
-0.20862010089034136,-0.20862010089034136
-0.3008972705512391,-0.3008972705512391
-0.3743772389849169,-0.3743772389849169
-0.4376041885673839,-0.4376041885673839
-0.4845971916354337,-0.4845971916354337
-0.5239004305650753,-0.5239004305650753
-0.5401343770794925,-0.5401343770794925
-0.5444064682674971,-0.5444064682674971
-0.5401343770794925,-0.5401343770794925
-0.5426976317922952,-0.5426976317922952
-0.5401343770794925,-0.5401343770794925
-0.5384255406042907,-0.5384255406042907
-0.5401343770794925,-0.5401343770794925
-0.563203669494717,-0.563203669494717
-0.5948171442859504,-0.5948171442859504
-0.6289938737899866,-0.6289938737899866
-0.6503543297300093,-0.6503543297300093
-0.6606073485812202,-0.6606073485812202
-0.6503543297300093,-0.6503543297300093
-0.6255762008395831,-0.6255762008395831
-0.5948171442859504,-0.5948171442859504
-0.5845641254347396,-0.5845641254347396
-0.5948171442859504,-0.5948171442859504
-0.608487836087565,-0.608487836087565
-0.5948171442859504,-0.5948171442859504
-0.5657669242075197,-0.5657669242075197
-0.5401343770794925,-0.5401343770794925
-0.5230460123274744,-0.5230460123274744
-0.4845971916354337,-0.4845971916354337
-0.4239334967657694,-0.4239334967657694
-0.3743772389849169,-0.3743772389849169
-0.3658330566089079,-0.3658330566089079
-0.3743772389849169,-0.3743772389849169
-0.37523165722251783,-0.37523165722251783
-0.3743772389849169,-0.3743772389849169
-0.39830094963774226,-0.39830094963774226
-0.42906000619137485,-0.42906000619137485
-0.44102186151778755,-0.44102186151778755
-0.42906000619137485,-0.42906000619137485
-0.42307907852816856,-0.42307907852816856
-0.42906000619137485,-0.42906000619137485
-0.4376041885673839,-0.4376041885673839
-0.42906000619137485,-0.42906000619137485
-0.40684513201375133,-0.40684513201375133
-0.3743772389849169,-0.3743772389849169
-0.34276376419368343,-0.34276376419368343
-0.3188400535408581,-0.3188400535408581
-0.31371354411525265,-0.31371354411525265
-0.3188400535408581,-0.3188400535408581
-0.32567539944166535,-0.32567539944166535
-0.3188400535408581,-0.3188400535408581
-0.3128591258776518,-0.3128591258776518
-0.3188400535408581,-0.3188400535408581
-0.34703585538168796,-0.34703585538168796
-0.3743772389849169,-0.3743772389849169
-0.3846302578361278,-0.3846302578361278
-0.3743772389849169,-0.3743772389849169
-0.3675418930841097,-0.3675418930841097
-0.3743772389849169,-0.3743772389849169
-0.3837758395985269,-0.3837758395985269
-0.3743772389849169,-0.3743772389849169
-0.3624153836585043,-0.3624153836585043
-0.3743772389849169,-0.3743772389849169
-0.4119716414393568,-0.4119716414393568
-0.42906000619137485,-0.42906000619137485
-0.40855396848895315,-0.40855396848895315
-0.3743772389849169,-0.3743772389849169
-0.3675418930841097,-0.3675418930841097
-0.3743772389849169,-0.3743772389849169
-0.37694049369771965,-0.37694049369771965
-0.3743772389849169,-0.3743772389849169
-0.37950374841052237,-0.37950374841052237
-0.3743772389849169,-0.3743772389849169
-0.3495991100944907,-0.3495991100944907
-0.3188400535408581,-0.3188400535408581
-0.3128591258776518,-0.3128591258776518
-0.3188400535408581,-0.3188400535408581
-0.3231121447288626,-0.3231121447288626
-0.3188400535408581,-0.3188400535408581
-0.3205488900160599,-0.3205488900160599
-0.3188400535408581,-0.3188400535408581
-0.31627679882805537,-0.31627679882805537
-0.3188400535408581,-0.3188400535408581
-0.329093072392069,-0.329093072392069
-0.3188400535408581,-0.3188400535408581
-0.2872265787496246,-0.2872265787496246
-0.26415728633440017,-0.26415728633440017
-0.2829544875616201,-0.2829544875616201
-0.3188400535408581,-0.3188400535408581
-0.33592841829287623,-0.33592841829287623
-0.3188400535408581,-0.3188400535408581
-0.29235308817523004,-0.29235308817523004
-0.26415728633440017,-0.26415728633440017
-0.23767032096877214,-0.23767032096877214
-0.20862010089034136,-0.20862010089034136
-0.1821331355247133,-0.1821331355247133
-0.15393733368388343,-0.15393733368388343
-0.14026664188226895,-0.14026664188226895
-0.15393733368388343,-0.15393733368388343
-0.18982289966312144,-0.18982289966312144
-0.20862010089034136,-0.20862010089034136
-0.20605684617753864,-0.20605684617753864
-0.20862010089034136,-0.20862010089034136
-0.23852473920637302,-0.23852473920637302
-0.26415728633440017,-0.26415728633440017
-0.2667205410472029,-0.2667205410472029
-0.26415728633440017,-0.26415728633440017
-0.2889354152248264,-0.2889354152248264
-0.3188400535408581,-0.3188400535408581
-0.3299474906296699,-0.3299474906296699
-0.3188400535408581,-0.3188400535408581
-0.3188400535408581,-0.3188400535408581
-0.3188400535408581,-0.3188400535408581
-0.30516936173924364,-0.30516936173924364
-0.26415728633440017,-0.26415728633440017
-0.22912613859276307,-0.22912613859276307
-0.20862010089034136,-0.20862010089034136
-0.20947451912794227,-0.20947451912794227
-0.20862010089034136,-0.20862010089034136
-0.20947451912794227,-0.20947451912794227
-0.20862010089034136,-0.20862010089034136
-0.21032893736554317,-0.21032893736554317
-0.20862010089034136,-0.20862010089034136
-0.20605684617753864,-0.20605684617753864
-0.20862010089034136,-0.20862010089034136
-0.2171642832663504,-0.2171642832663504
-0.20862010089034136,-0.20862010089034136
-0.15735500663428703,-0.15735500663428703
-0.042862962795765756,-0.042862962795765756
0.14083695828842885,0.14083695828842885
0.3980168478063013,0.3980168478063013
0.7132971774810353,0.7132971774810353
1.0601909819470028,1.0601909819470028
1.4053759499377685,1.4053759499377685
1.7223651160877043,1.7223651160877043
1.9385329302007333,1.9385329302007333
1.9428050213887378,1.9428050213887378
1.6189805093379948,1.6189805093379948
0.949971029296486,0.949971029296486
0.03488909682591661,0.03488909682591661
-0.9263314204751016,-0.9263314204751016
-1.7311934002951543,-1.7311934002951543
-2.2506796887565046,-2.2506796887565046
-2.499315395898368,-2.499315395898368
-2.5813395467080547,-2.5813395467080547
-2.6035544208856782,-2.6035544208856782
-2.5813395467080547,-2.5813395467080547
-2.4762461034831436,-2.4762461034831436
-2.2506796887565046,-2.2506796887565046
-1.9388170320321743,-1.9388170320321743
-1.5885055546158031,-1.5885055546158031
-1.2322131495362256,-1.2322131495362256
-0.8707942350310428,-0.8707942350310428
-0.5486785594555016,-0.5486785594555016
-0.3188400535408581,-0.3188400535408581
-0.20947451912794227,-0.20947451912794227
-0.15393733368388343,-0.15393733368388343
-0.10267223942782912,-0.10267223942782912
-0.042862962795765756,-0.042862962795765756
-0.010395069766931362,-0.010395069766931362
0.011819804410692171,0.011819804410692171
0.03830676977632023,0.03830676977632023
0.067356989854751,0.067356989854751
0.07333791751795735,0.07333791751795735
0.067356989854751,0.067356989854751
0.08017326341876459,0.08017326341876459
0.12203975706120893,0.12203975706120893
0.16305183246605237,0.16305183246605237
0.17757694250526776,0.17757694250526776
0.17159601484206144,0.17159601484206144
0.17757694250526776,0.17757694250526776
0.202355071395694,0.202355071395694
0.2322597097117257,0.2322597097117257
0.23994947385013385,0.23994947385013385
0.2322597097117257,0.2322597097117257
0.22200669086051483,0.22200669086051483
0.2322597097117257,0.2322597097117257
0.25447458388934924,0.25447458388934924
0.28779689515578455,0.28779689515578455
0.3159926969966144,0.3159926969966144
0.3433340805998434,0.3433340805998434
0.3629857000646642,0.3629857000646642
0.3980168478063013,0.3980168478063013
0.4450098508743511,0.4450098508743511
0.5082368004568181,0.5082368004568181
0.5637739859008769,0.5637739859008769
0.6193111713449357,0.6193111713449357
0.6680130108881873,0.6680130108881873
0.7295311239954525,0.7295311239954525
0.7995934194787266,0.7995934194787266
0.8944338438524272,0.8944338438524272
0.9986728688397376,0.9986728688397376
1.1157281673910615,1.1157281673910615
1.2404732300807937,1.2404732300807937
1.391705258136154,1.391705258136154
1.5412284497163122,1.5412284497163122
1.6668279306436453,1.6668279306436453
1.751415336166135,1.751415336166135
1.832585068738221,1.832585068738221
1.9334064207751278,1.9334064207751278
2.0538793922768552,2.0538793922768552
2.1512830713633586,2.1512830713633586
2.2187821121338303,2.2187821121338303
2.270047206389884,2.270047206389884
2.329002064784347,2.329002064784347
2.374286231377195,2.374286231377195
2.3845392502284057,2.3845392502284057
2.3571978666251767,2.3571978666251767
2.329002064784347,2.329002064784347
2.2931164988051087,2.2931164988051087
2.2187821121338303,2.2187821121338303
2.0872017035432906,2.0872017035432906
1.9428050213887378,1.9428050213887378
1.8086613580853956,1.8086613580853956
1.6668279306436453,1.6668279306436453
1.481419173084249,1.481419173084249
1.2806308872480363,1.2806308872480363
1.1003486391142452,1.1003486391142452
0.949971029296486,0.949971029296486
0.7910492371027177,0.7910492371027177
0.6193111713449357,0.6193111713449357
0.44244659616154836,0.44244659616154836
0.28779689515578455,0.28779689515578455
0.14254579476363066,0.14254579476363066
0.011819804410692171,0.011819804410692171
-0.10950758532863636,-0.10950758532863636
-0.20862010089034136,-0.20862010089034136
-0.2983340158384364,-0.2983340158384364
-0.3743772389849169,-0.3743772389849169
-0.44273069799298936,-0.44273069799298936
-0.4845971916354337,-0.4845971916354337
-0.5153562481890663,-0.5153562481890663
-0.5401343770794925,-0.5401343770794925
-0.5743111065835287,-0.5743111065835287
-0.5948171442859504,-0.5948171442859504
-0.6007980719491568,-0.6007980719491568
-0.5948171442859504,-0.5948171442859504
-0.5973803989987532,-0.5973803989987532
-0.5948171442859504,-0.5948171442859504
-0.5939627260483495,-0.5939627260483495
-0.5948171442859504,-0.5948171442859504
-0.6050701631371613,-0.6050701631371613
-0.5948171442859504,-0.5948171442859504
-0.5666213424451206,-0.5666213424451206
-0.5401343770794925,-0.5401343770794925
-0.5392799588418916,-0.5392799588418916
-0.5401343770794925,-0.5401343770794925
-0.5196283393770708,-0.5196283393770708
-0.4845971916354337,-0.4845971916354337
-0.47348975454662195,-0.47348975454662195
-0.4845971916354337,-0.4845971916354337
-0.4965590469618464,-0.4965590469618464
-0.4845971916354337,-0.4845971916354337
-0.45811022626980563,-0.45811022626980563
-0.42906000619137485,-0.42906000619137485
-0.4051362955385495,-0.4051362955385495
-0.3743772389849169,-0.3743772389849169
-0.34276376419368343,-0.34276376419368343
-0.3188400535408581,-0.3188400535408581
-0.31456796235285356,-0.31456796235285356
-0.3188400535408581,-0.3188400535408581
-0.3231121447288626,-0.3231121447288626
-0.3188400535408581,-0.3188400535408581
-0.3179856353032572,-0.3179856353032572
-0.3188400535408581,-0.3188400535408581
-0.3222577264912617,-0.3222577264912617
-0.3188400535408581,-0.3188400535408581
-0.3179856353032572,-0.3179856353032572
-0.3188400535408581,-0.3188400535408581
-0.3222577264912617,-0.3222577264912617
-0.3188400535408581,-0.3188400535408581
-0.3171312170656563,-0.3171312170656563
-0.3188400535408581,-0.3188400535408581
-0.32652981767926625,-0.32652981767926625
-0.3188400535408581,-0.3188400535408581
-0.29491634288803276,-0.29491634288803276
-0.26415728633440017,-0.26415728633440017
-0.25475868572079025,-0.25475868572079025
-0.26415728633440017,-0.26415728633440017
-0.27441030518561105,-0.27441030518561105
-0.26415728633440017,-0.26415728633440017
-0.25304984924558843,-0.25304984924558843
-0.26415728633440017,-0.26415728633440017
-0.2983340158384364,-0.2983340158384364
-0.3188400535408581,-0.3188400535408581
-0.3205488900160599,-0.3205488900160599
-0.3188400535408581,-0.3188400535408581
-0.32823865415446807,-0.32823865415446807
-0.3188400535408581,-0.3188400535408581
-0.2863721605120237,-0.2863721605120237
-0.26415728633440017,-0.26415728633440017
-0.28551774227442284,-0.28551774227442284
-0.3188400535408581,-0.3188400535408581
-0.3299474906296699,-0.3299474906296699
-0.3188400535408581,-0.3188400535408581
-0.3171312170656563,-0.3171312170656563
-0.3188400535408581,-0.3188400535408581
-0.3188400535408581,-0.3188400535408581
-0.3188400535408581,-0.3188400535408581
-0.32823865415446807,-0.32823865415446807
-0.3188400535408581,-0.3188400535408581
-0.2897898334624273,-0.2897898334624273
-0.26415728633440017,-0.26415728633440017
-0.26415728633440017,-0.26415728633440017
-0.26415728633440017,-0.26415728633440017
-0.25646752219599206,-0.25646752219599206
-0.26415728633440017,-0.26415728633440017
-0.3000428523136382,-0.3000428523136382
-0.3188400535408581,-0.3188400535408581
-0.2974795976008355,-0.2974795976008355
-0.26415728633440017,-0.26415728633440017
-0.26244844985919835,-0.26244844985919835
-0.26415728633440017,-0.26415728633440017
-0.24108799391917574,-0.24108799391917574
-0.20862010089034136,-0.20862010089034136
-0.2188731197415522,-0.2188731197415522
-0.26415728633440017,-0.26415728633440017
-0.30773261645204636,-0.30773261645204636
-0.3188400535408581,-0.3188400535408581
-0.3034605252640418,-0.3034605252640418
-0.26415728633440017,-0.26415728633440017
-0.22485404740475853,-0.22485404740475853
-0.20862010089034136,-0.20862010089034136
-0.2188731197415522,-0.2188731197415522
-0.20862010089034136,-0.20862010089034136
-0.16162709782229157,-0.16162709782229157
-0.09840014823982458,-0.09840014823982458
-0.047135053983770284,-0.047135053983770284
0.011819804410692171,0.011819804410692171
0.07846442694356277,0.07846442694356277
0.12203975706120893,0.12203975706120893
0.10836906525959444,0.10836906525959444
0.067356989854751,0.067356989854751
0.03488909682591661,0.03488909682591661
0.011819804410692171,0.011819804410692171
-0.03431878041975671,-0.03431878041975671
-0.09840014823982458,-0.09840014823982458
-0.16162709782229157,-0.16162709782229157
-0.20862010089034136,-0.20862010089034136
-0.24706892158238208,-0.24706892158238208
-0.26415728633440017,-0.26415728633440017
-0.265866122809602,-0.265866122809602
-0.26415728633440017,-0.26415728633440017
-0.2718470504728083,-0.2718470504728083
-0.26415728633440017,-0.26415728633440017
-0.23767032096877214,-0.23767032096877214
-0.20862010089034136,-0.20862010089034136
-0.20605684617753864,-0.20605684617753864
-0.20862010089034136,-0.20862010089034136
-0.20947451912794227,-0.20947451912794227
-0.20862010089034136,-0.20862010089034136
-0.2333982297807676,-0.2333982297807676
-0.26415728633440017,-0.26415728633440017
-0.29491634288803276,-0.29491634288803276
-0.3188400535408581,-0.3188400535408581
-0.3342195818176744,-0.3342195818176744
-0.3188400535408581,-0.3188400535408581
-0.2829544875616201,-0.2829544875616201
-0.26415728633440017,-0.26415728633440017
-0.2718470504728083,-0.2718470504728083
-0.26415728633440017,-0.26415728633440017
-0.20349359146473592,-0.20349359146473592
-0.09840014823982458,-0.09840014823982458
0.0502686251027329,0.0502686251027329
0.28779689515578455,0.28779689515578455
0.6398172090473574,0.6398172090473574
1.0601909819470028,1.0601909819470028
1.4703117359954372,1.4703117359954372
1.832585068738221,1.832585068738221
2.101726813582506,2.101726813582506
2.164099344927372,2.164099344927372
1.8547999429158446,1.8547999429158446
1.1157281673910615,1.1157281673910615
0.06223048042914557,0.06223048042914557
-1.0365513731256184,-1.0365513731256184
-1.9251463402305597,-1.9251463402305597
-2.471119594057538,-2.471119594057538
-2.723172974149805,-2.723172974149805
-2.801779452009088,-2.801779452009088
-2.8060515431970927,-2.8060515431970927
-2.7470966848026306,-2.7470966848026306
-2.6180795309248936,-2.6180795309248936
-2.415582408613479,-2.415582408613479
-2.1498583367195976,-2.1498583367195976
-1.8089454599168366,-1.8089454599168366
-1.420185161808425,-1.420185161808425
-1.0365513731256184,-1.0365513731256184
-0.7229798799260863,-0.7229798799260863
-0.4845971916354337,-0.4845971916354337
-0.3171312170656563,-0.3171312170656563
-0.20862010089034136,-0.20862010089034136
-0.1676080254854979,-0.1676080254854979
-0.15393733368388343,-0.15393733368388343
-0.13855780540706714,-0.13855780540706714
-0.09840014823982458,-0.09840014823982458
-0.04628063574616938,-0.04628063574616938
0.011819804410692171,0.011819804410692171
0.05539513452833833,0.05539513452833833
0.067356989854751,0.067356989854751
0.05881280747874195,0.05881280747874195
0.067356989854751,0.067356989854751
0.0989704646459845,0.0989704646459845
0.12203975706120893,0.12203975706120893
0.11947650234840622,0.11947650234840622
0.12203975706120893,0.12203975706120893
0.14852672242683698,0.14852672242683698
0.17757694250526776,0.17757694250526776
0.17757694250526776,0.17757694250526776
0.17757694250526776,0.17757694250526776
0.1980829802076895,0.1980829802076895
0.2322597097117257,0.2322597097117257
0.23824063737493203,0.23824063737493203
0.2322597097117257,0.2322597097117257
0.24251272856293654,0.24251272856293654
0.28779689515578455,0.28779689515578455
0.32539129761022434,0.32539129761022434
0.3433340805998434,0.3433340805998434
0.3510238447382515,0.3510238447382515
0.3980168478063013,0.3980168478063013
0.4766233256655846,0.4766233256655846
0.5637739859008769,0.5637739859008769
0.6218744260577385,0.6218744260577385
0.6739939385513937,0.6739939385513937
0.7397841428466634,0.7397841428466634
0.8397510766459693,0.8397510766459693
0.9474077745836833,0.9474077745836833
1.0601909819470028,1.0601909819470028
1.166993261647116,1.166993261647116
1.2806308872480363,1.2806308872480363
1.3882875851857504,1.3882875851857504
1.5019252107866707,1.5019252107866707
1.6275246917140038,1.6275246917140038
1.777902301531763,1.777902301531763
1.9111915465975042,1.9111915465975042
1.9983422068327965,1.9983422068327965
2.0444807916632453,2.0444807916632453
2.1085621594833133,2.1085621594833133
2.1982760744314085,2.1982760744314085
2.2743192975778888,2.2743192975778888
2.3033695176563196,2.3033695176563196
2.329002064784347,2.329002064784347
2.3691597219515894,2.3691597219515894
2.3845392502284057,2.3845392502284057
2.3238755553587414,2.3238755553587414
2.2187821121338303,2.2187821121338303
2.110270995958515,2.110270995958515
1.9983422068327965,1.9983422068327965
1.8445469240646337,1.8445469240646337
1.6668279306436453,1.6668279306436453
1.4933810284106617,1.4933810284106617
1.336168072692095,1.336168072692095
1.1704109345975195,1.1704109345975195
1.0055082147405447,1.0055082147405447
0.8406054948835702,0.8406054948835702
0.6739939385513937,0.6739939385513937
0.48174983509118996,0.48174983509118996
0.28779689515578455,0.28779689515578455
0.12203975706120893,0.12203975706120893
0.011819804410692171,0.011819804410692171
-0.07191318287419653,-0.07191318287419653
-0.15393733368388343,-0.15393733368388343
-0.24621450334478118,-0.24621450334478118
-0.3188400535408581,-0.3188400535408581
-0.37694049369771965,-0.37694049369771965
-0.42906000619137485,-0.42906000619137485
-0.49314137401144276,-0.49314137401144276
-0.5401343770794925,-0.5401343770794925
-0.5700390153955243,-0.5700390153955243
-0.5948171442859504,-0.5948171442859504
-0.634120383215592,-0.634120383215592
-0.6503543297300093,-0.6503543297300093
-0.6315571285027893,-0.6315571285027893
-0.5948171442859504,-0.5948171442859504
-0.5862729619099414,-0.5862729619099414
-0.5948171442859504,-0.5948171442859504
-0.6025069084243586,-0.6025069084243586
-0.5948171442859504,-0.5948171442859504
-0.5939627260483495,-0.5939627260483495
-0.5948171442859504,-0.5948171442859504
-0.5973803989987532,-0.5973803989987532
-0.5948171442859504,-0.5948171442859504
-0.5982348172363541,-0.5982348172363541
-0.5948171442859504,-0.5948171442859504
-0.5768743612963314,-0.5768743612963314
-0.5401343770794925,-0.5401343770794925
-0.5059576475754564,-0.5059576475754564
-0.4845971916354337,-0.4845971916354337
-0.48203393692263097,-0.48203393692263097
-0.4845971916354337,-0.4845971916354337
-0.4880148645858373,-0.4880148645858373
-0.4845971916354337,-0.4845971916354337
-0.4837427733978328,-0.4837427733978328
-0.4845971916354337,-0.4845971916354337
-0.48972370106103913,-0.48972370106103913
-0.4845971916354337,-0.4845971916354337
-0.4649455721706129,-0.4649455721706129
-0.42906000619137485,-0.42906000619137485
-0.3957376949249396,-0.3957376949249396
-0.3743772389849169,-0.3743772389849169
-0.3718139842721142,-0.3718139842721142
-0.3743772389849169,-0.3743772389849169
-0.37694049369771965,-0.37694049369771965
-0.3743772389849169,-0.3743772389849169
-0.3743772389849169,-0.3743772389849169
-0.3743772389849169,-0.3743772389849169
-0.37523165722251783,-0.37523165722251783
-0.3743772389849169,-0.3743772389849169
-0.37608607546011874,-0.37608607546011874
-0.3743772389849169,-0.3743772389849169
-0.3726684025097151,-0.3726684025097151
-0.3743772389849169,-0.3743772389849169
-0.3940288584497378,-0.3940288584497378
-0.42906000619137485,-0.42906000619137485
-0.4675088268834156,-0.4675088268834156
-0.4845971916354337,-0.4845971916354337
-0.4863060281106355,-0.4863060281106355
-0.4845971916354337,-0.4845971916354337
-0.49057811929864004,-0.49057811929864004
-0.4845971916354337,-0.4845971916354337
-0.46152789922020926,-0.46152789922020926
-0.42906000619137485,-0.42906000619137485
-0.418806987340164,-0.418806987340164
-0.42906000619137485,-0.42906000619137485
-0.44187627975538846,-0.44187627975538846
-0.42906000619137485,-0.42906000619137485
-0.4000097861129441,-0.4000097861129441
-0.3743772389849169,-0.3743772389849169
-0.3701051477969124,-0.3701051477969124
-0.3743772389849169,-0.3743772389849169
-0.37779491193532055,-0.37779491193532055
-0.3743772389849169,-0.3743772389849169
-0.3743772389849169,-0.3743772389849169
-0.3743772389849169,-0.3743772389849169
-0.37523165722251783,-0.37523165722251783
-0.3743772389849169,-0.3743772389849169
-0.37694049369771965,-0.37694049369771965
-0.3743772389849169,-0.3743772389849169
-0.3726684025097151,-0.3726684025097151
-0.3743772389849169,-0.3743772389849169
-0.382921421360926,-0.382921421360926
-0.3743772389849169,-0.3743772389849169
-0.34789027361928887,-0.34789027361928887
-0.3188400535408581,-0.3188400535408581
-0.3128591258776518,-0.3128591258776518
-0.3188400535408581,-0.3188400535408581
-0.32396656296646353,-0.32396656296646353
-0.3188400535408581,-0.3188400535408581
-0.3188400535408581,-0.3188400535408581
-0.3188400535408581,-0.3188400535408581
-0.3222577264912617,-0.3222577264912617
-0.3188400535408581,-0.3188400535408581
-0.30516936173924364,-0.30516936173924364
-0.26415728633440017,-0.26415728633440017
-0.20605684617753864,-0.20605684617753864
-0.15393733368388343,-0.15393733368388343
-0.12403269536785175,-0.12403269536785175
-0.09840014823982458,-0.09840014823982458
-0.067641091686192,-0.067641091686192
-0.042862962795765756,-0.042862962795765756
-0.05653365459738024,-0.05653365459738024
-0.09840014823982458,-0.09840014823982458
-0.13855780540706714,-0.13855780540706714
-0.15393733368388343,-0.15393733368388343
-0.16846244372309882,-0.16846244372309882
-0.20862010089034136,-0.20862010089034136
-0.27355588694801014,-0.27355588694801014
-0.3188400535408581,-0.3188400535408581
-0.329093072392069,-0.329093072392069
-0.3188400535408581,-0.3188400535408581
-0.3188400535408581,-0.3188400535408581
-0.3188400535408581,-0.3188400535408581
-0.31627679882805537,-0.31627679882805537
-0.3188400535408581,-0.3188400535408581
-0.34703585538168796,-0.34703585538168796
-0.3743772389849169,-0.3743772389849169
-0.3854846760737287,-0.3854846760737287
-0.3743772389849169,-0.3743772389849169
-0.3726684025097151,-0.3726684025097151
-0.3743772389849169,-0.3743772389849169
-0.37779491193532055,-0.37779491193532055
-0.3743772389849169,-0.3743772389849169
-0.373522820747316,-0.373522820747316
-0.3743772389849169,-0.3743772389849169
-0.373522820747316,-0.373522820747316
-0.3743772389849169,-0.3743772389849169
-0.37694049369771965,-0.37694049369771965
-0.3743772389849169,-0.3743772389849169
-0.35899771070810066,-0.35899771070810066
-0.3188400535408581,-0.3188400535408581
-0.22656288387996035,-0.22656288387996035
-0.042862962795765756,-0.042862962795765756
0.2331141279493266,0.2331141279493266
0.5637739859008769,0.5637739859008769
0.8995603532780326,0.8995603532780326
1.2259481200415783,1.2259481200415783
1.5215768302514916,1.5215768302514916
1.7223651160877043,1.7223651160877043
1.696732568959677,1.696732568959677
1.336168072692095,1.336168072692095
0.6210200078201376,0.6210200078201376
-0.3188400535408581,-0.3188400535408581
-1.2715163884658673,-1.2715163884658673
-2.02938536521787,-2.02938536521787
-2.509568414749579,-2.509568414749579
-2.7470966848026306,-2.7470966848026306
-2.8436459456515326,-2.8436459456515326
-2.857316637453147,-2.857316637453147
-2.7975073608210836,-2.7975073608210836
-2.6368767321521136,-2.6368767321521136
-2.3754247514462365,-2.3754247514462365
-2.02938536521787,-2.02938536521787
-1.6448971582974627,-1.6448971582974627
-1.256991278426652,-1.256991278426652
-0.9169328198614917,-0.9169328198614917
-0.6503543297300093,-0.6503543297300093
-0.4777618457346265,-0.4777618457346265
-0.3743772389849169,-0.3743772389849169
-0.31627679882805537,-0.31627679882805537
-0.26415728633440017,-0.26415728633440017
-0.21203777384074496,-0.21203777384074496
-0.15393733368388343,-0.15393733368388343
-0.11292525827903997,-0.11292525827903997
-0.09840014823982458,-0.09840014823982458
-0.10352665766543002,-0.10352665766543002
-0.09840014823982458,-0.09840014823982458
-0.07191318287419653,-0.07191318287419653
-0.042862962795765756,-0.042862962795765756
-0.03517319865735761,-0.03517319865735761
-0.042862962795765756,-0.042862962795765756
-0.049698308696573,-0.049698308696573
-0.042862962795765756,-0.042862962795765756
-0.024065761568545844,-0.024065761568545844
0.011819804410692171,0.011819804410692171
0.04855978862753109,0.04855978862753109
0.067356989854751,0.067356989854751
0.06137606219154467,0.06137606219154467
0.067356989854751,0.067356989854751
0.09213511874517726,0.09213511874517726
0.12203975706120893,0.12203975706120893
0.12460301177401165,0.12460301177401165
0.12203975706120893,0.12203975706120893
0.1357104488628234,0.1357104488628234
0.17757694250526776,0.17757694250526776
0.22627878204851937,0.22627878204851937
0.28779689515578455,0.28779689515578455
0.34589733531264605,0.34589733531264605
0.3980168478063013,0.3980168478063013
0.44073775968634654,0.44073775968634654
0.5082368004568181,0.5082368004568181
0.5945330424545094,0.5945330424545094
0.6739939385513937,0.6739939385513937
0.7226957780946452,0.7226957780946452
0.7842138912019104,0.7842138912019104
0.8816175702884136,0.8816175702884136
1.0055082147405447,1.0055082147405447
1.1148737491534606,1.1148737491534606
1.2259481200415783,1.2259481200415783
1.354110855681714,1.354110855681714
1.5019252107866707,1.5019252107866707
1.625815855238802,1.625815855238802
1.7223651160877043,1.7223651160877043
1.8026804304221893,1.8026804304221893
1.8881222541822797,1.8881222541822797
1.9573301314279532,1.9573301314279532
1.9983422068327965,1.9983422068327965
2.0179938262976176,2.0179938262976176
2.0538793922768552,2.0538793922768552
2.0948914676816988,2.0948914676816988
2.1085621594833133,2.1085621594833133
2.066695665840869,2.066695665840869
1.9983422068327965,1.9983422068327965
1.923153401923917,1.923153401923917
1.832585068738221,1.832585068738221
1.7044223330980852,1.7044223330980852
1.5566079779931286,1.5566079779931286
1.3993950222745621,1.3993950222745621
1.2259481200415783,1.2259481200415783
1.0251598342053656,1.0251598342053656
0.8397510766459693,0.8397510766459693
0.6902278850658108,0.6902278850658108
0.5637739859008769,0.5637739859008769
0.40826986665751214,0.40826986665751214
0.2322597097117257,0.2322597097117257
0.07162908104275553,0.07162908104275553
-0.042862962795765756,-0.042862962795765756
-0.14710198778307618,-0.14710198778307618
-0.26415728633440017,-0.26415728633440017
-0.3931744402121369,-0.3931744402121369
-0.4845971916354337,-0.4845971916354337
-0.5273181035154789,-0.5273181035154789
-0.5401343770794925,-0.5401343770794925
-0.5640580877323179,-0.5640580877323179
-0.5948171442859504,-0.5948171442859504
-0.626430619077184,-0.626430619077184
-0.6503543297300093,-0.6503543297300093
-0.6811133862836419,-0.6811133862836419
-0.7050370969364672,-0.7050370969364672
-0.7152901157876781,-0.7152901157876781
-0.7050370969364672,-0.7050370969364672
-0.7016194239860636,-0.7016194239860636
-0.7050370969364672,-0.7050370969364672
-0.7144356975500772,-0.7144356975500772
-0.7050370969364672,-0.7050370969364672
-0.6828222227588437,-0.6828222227588437
-0.6503543297300093,-0.6503543297300093
-0.6204496914139777,-0.6204496914139777
-0.5948171442859504,-0.5948171442859504
-0.5871273801475423,-0.5871273801475423
-0.5948171442859504,-0.5948171442859504
-0.607633417849964,-0.607633417849964
-0.5948171442859504,-0.5948171442859504
-0.563203669494717,-0.563203669494717
-0.5401343770794925,-0.5401343770794925
-0.5426976317922952,-0.5426976317922952
-0.5401343770794925,-0.5401343770794925
-0.5153562481890663,-0.5153562481890663
-0.4845971916354337,-0.4845971916354337
-0.47947068220982825,-0.47947068220982825
-0.4845971916354337,-0.4845971916354337
-0.47092649983381923,-0.47092649983381923
-0.42906000619137485,-0.42906000619137485
-0.39146560373693506,-0.39146560373693506
-0.3743772389849169,-0.3743772389849169
-0.37523165722251783,-0.37523165722251783
-0.3743772389849169,-0.3743772389849169
-0.373522820747316,-0.373522820747316
-0.3743772389849169,-0.3743772389849169
-0.37779491193532055,-0.37779491193532055
-0.3743772389849169,-0.3743772389849169
-0.3709595660345133,-0.3709595660345133
-0.3743772389849169,-0.3743772389849169
-0.3837758395985269,-0.3837758395985269
-0.3743772389849169,-0.3743772389849169
-0.34618143714408706,-0.34618143714408706
-0.3188400535408581,-0.3188400535408581
-0.31627679882805537,-0.31627679882805537
-0.3188400535408581,-0.3188400535408581
-0.3171312170656563,-0.3171312170656563
-0.3188400535408581,-0.3188400535408581
-0.34447260066888524,-0.34447260066888524
-0.3743772389849169,-0.3743772389849169
-0.3854846760737287,-0.3854846760737287
-0.3743772389849169,-0.3743772389849169
-0.3692507295593115,-0.3692507295593115
-0.3743772389849169,-0.3743772389849169
-0.3803581666481233,-0.3803581666481233
-0.3743772389849169,-0.3743772389849169
-0.36839631132171063,-0.36839631132171063
-0.3743772389849169,-0.3743772389849169
-0.4000097861129441,-0.4000097861129441
-0.42906000619137485,-0.42906000619137485
-0.4452939527057921,-0.4452939527057921
-0.42906000619137485,-0.42906000619137485
-0.39915536787534317,-0.39915536787534317
-0.3743772389849169,-0.3743772389849169
-0.3709595660345133,-0.3709595660345133
-0.3743772389849169,-0.3743772389849169
-0.37694049369771965,-0.37694049369771965
-0.3743772389849169,-0.3743772389849169
-0.37694049369771965,-0.37694049369771965
-0.3743772389849169,-0.3743772389849169
-0.3726684025097151,-0.3726684025097151
-0.3743772389849169,-0.3743772389849169
-0.3820670031233251,-0.3820670031233251
-0.3743772389849169,-0.3743772389849169
-0.3487446918568898,-0.3487446918568898
-0.3188400535408581,-0.3188400535408581
-0.3128591258776518,-0.3128591258776518
-0.3188400535408581,-0.3188400535408581
-0.32396656296646353,-0.32396656296646353
-0.3188400535408581,-0.3188400535408581
-0.3179856353032572,-0.3179856353032572
-0.3188400535408581,-0.3188400535408581
-0.3231121447288626,-0.3231121447288626
-0.3188400535408581,-0.3188400535408581
-0.3034605252640418,-0.3034605252640418
-0.26415728633440017,-0.26415728633440017
-0.20862010089034136,-0.20862010089034136
-0.15393733368388343,-0.15393733368388343
-0.11976060417984721,-0.11976060417984721
-0.09840014823982458,-0.09840014823982458
-0.07618527406220106,-0.07618527406220106
-0.042862962795765756,-0.042862962795765756
-0.025774598043747654,-0.025774598043747654
-0.042862962795765756,-0.042862962795765756
-0.09754573000222369,-0.09754573000222369
-0.15393733368388343,-0.15393733368388343
-0.19067731790072234,-0.19067731790072234
-0.20862010089034136,-0.20862010089034136
-0.2325438115431667,-0.2325438115431667
-0.26415728633440017,-0.26415728633440017
-0.2991884340760373,-0.2991884340760373
-0.3188400535408581,-0.3188400535408581
-0.32567539944166535,-0.32567539944166535
-0.3188400535408581,-0.3188400535408581
-0.31627679882805537,-0.31627679882805537
-0.3188400535408581,-0.3188400535408581
-0.32823865415446807,-0.32823865415446807
-0.3188400535408581,-0.3188400535408581
-0.29491634288803276,-0.29491634288803276
-0.26415728633440017,-0.26415728633440017
-0.25646752219599206,-0.25646752219599206
-0.26415728633440017,-0.26415728633440017
-0.2897898334624273,-0.2897898334624273
-0.3188400535408581,-0.3188400535408581
-0.3530167830448943,-0.3530167830448943
-0.3743772389849169,-0.3743772389849169
-0.37864933017292146,-0.37864933017292146
-0.3743772389849169,-0.3743772389849169
-0.373522820747316,-0.373522820747316
-0.3743772389849169,-0.3743772389849169
-0.35985212894570157,-0.35985212894570157
-0.3188400535408581,-0.3188400535408581
-0.25304984924558843,-0.25304984924558843
-0.15393733368388343,-0.15393733368388343
0.013528640885893981,0.013528640885893981
0.28779689515578455,0.28779689515578455
0.6560511555617746,0.6560511555617746
1.0601909819470028,1.0601909819470028
1.4412615159170064,1.4412615159170064
1.777902301531763,1.777902301531763
2.0205570810104203,2.0205570810104203
2.0538793922768552,2.0538793922768552
1.714675351949296,1.714675351949296
0.949971029296486,0.949971029296486
-0.11377967651664088,-0.11377967651664088
-1.202308511220194,-1.202308511220194
-2.0789416229987228,-2.0789416229987228
-2.6368767321521136,-2.6368767321521136
-2.9068728952339997,-2.9068728952339997
-2.967536590103664,-2.967536590103664
-2.911999404659605,-2.911999404659605
-2.801779452009088,-2.801779452009088
-2.6667813704681453,-2.6667813704681453
-2.471119594057538,-2.471119594057538
-2.184035066223634,-2.184035066223634
-1.8089454599168366,-1.8089454599168366
-1.4090777247196131,-1.4090777247196131
-1.0365513731256184,-1.0365513731256184
-0.7272519711140908,-0.7272519711140908
-0.4845971916354337,-0.4845971916354337
-0.3179856353032572,-0.3179856353032572
-0.20862010089034136,-0.20862010089034136
-0.14624756954547527,-0.14624756954547527
-0.09840014823982458,-0.09840014823982458
-0.06507783697338929,-0.06507783697338929
-0.042862962795765756,-0.042862962795765756
-0.04200854455816485,-0.04200854455816485
-0.042862962795765756,-0.042862962795765756
-0.027483434518949464,-0.027483434518949464
0.011819804410692171,0.011819804410692171
0.05112304334033381,0.05112304334033381
0.067356989854751,0.067356989854751
0.06308489866674648,0.06308489866674648
0.067356989854751,0.067356989854751
0.09213511874517726,0.09213511874517726
0.12203975706120893,0.12203975706120893
0.1297295211996171,0.1297295211996171
0.12203975706120893,0.12203975706120893
0.12887510296201618,0.12887510296201618
0.17757694250526776,0.17757694250526776
0.24080389208773476,0.24080389208773476
0.28779689515578455,0.28779689515578455
0.29377782281899084,0.29377782281899084
0.28779689515578455,0.28779689515578455
0.2809615492549773,0.2809615492549773
0.28779689515578455,0.28779689515578455
0.2997587504821972,0.2997587504821972
0.3433340805998434,0.3433340805998434
0.4159596307959203,0.4159596307959203
0.5082368004568181,0.5082368004568181
0.5748814229896887,0.5748814229896887
0.6193111713449357,0.6193111713449357
0.6577599920369764,0.6577599920369764
0.7295311239954525,0.7295311239954525
0.8124096930427402,0.8124096930427402
0.8944338438524272,0.8944338438524272
0.9644961393357013,0.9644961393357013
1.0601909819470028,1.0601909819470028
1.1866448811119368,1.1866448811119368
1.336168072692095,1.336168072692095
1.4745838271834417,1.4745838271834417
1.6121451634371875,1.6121451634371875
1.7488520814533324,1.7488520814533324
1.8881222541822797,1.8881222541822797
2.005177552733604,2.005177552733604
2.1085621594833133,2.1085621594833133
2.1965672379562067,2.1965672379562067
2.2743192975778888,2.2743192975778888
2.3324197377347504,2.3324197377347504
2.3845392502284057,2.3845392502284057
2.4238424891580475,2.4238424891580475
2.4400764356724647,2.4400764356724647
2.419570397970043,2.419570397970043
2.3845392502284057,2.3845392502284057
2.3384006653979568,2.3384006653979568
2.2743192975778888,2.2743192975778888
2.1726435273033813,2.1726435273033813
2.0538793922768552,2.0538793922768552
1.923153401923917,1.923153401923917
1.777902301531763,1.777902301531763
1.5942023804475685,1.5942023804475685
1.391705258136154,1.391705258136154
1.1900625540623404,1.1900625540623404
1.0055082147405447,1.0055082147405447
0.8141185295179421,0.8141185295179421
0.6193111713449357,0.6193111713449357
0.4321935773103375,0.4321935773103375
0.28779689515578455,0.28779689515578455
0.17159601484206144,0.17159601484206144
0.067356989854751,0.067356989854751
-0.04884389045897209,-0.04884389045897209
-0.15393733368388343,-0.15393733368388343
-0.24365124863197846,-0.24365124863197846
-0.3188400535408581,-0.3188400535408581
-0.4059907137761504,-0.4059907137761504
-0.4845971916354337,-0.4845971916354337
-0.535862285891488,-0.535862285891488
-0.5401343770794925,-0.5401343770794925
-0.5332990311786853,-0.5332990311786853
-0.5401343770794925,-0.5401343770794925
-0.5717478518707261,-0.5717478518707261
-0.5948171442859504,-0.5948171442859504
-0.6016524901867577,-0.6016524901867577
-0.5948171442859504,-0.5948171442859504
-0.5956715625235514,-0.5956715625235514
-0.5948171442859504,-0.5948171442859504
-0.5948171442859504,-0.5948171442859504
-0.5948171442859504,-0.5948171442859504
-0.6025069084243586,-0.6025069084243586
-0.5948171442859504,-0.5948171442859504
-0.5700390153955243,-0.5700390153955243
-0.5401343770794925,-0.5401343770794925
-0.5332990311786853,-0.5332990311786853
-0.5401343770794925,-0.5401343770794925
-0.545260886505098,-0.545260886505098
-0.5401343770794925,-0.5401343770794925
-0.5401343770794925,-0.5401343770794925
-0.5401343770794925,-0.5401343770794925
-0.5256092670402771,-0.5256092670402771
-0.4845971916354337,-0.4845971916354337
-0.4444395344681912,-0.4444395344681912
-0.42906000619137485,-0.42906000619137485
-0.436749770329783,-0.436749770329783
-0.42906000619137485,-0.42906000619137485
-0.400864204350545,-0.400864204350545
-0.3743772389849169,-0.3743772389849169
-0.3743772389849169,-0.3743772389849169
-0.3743772389849169,-0.3743772389849169
-0.3521623648072934,-0.3521623648072934
-0.3188400535408581,-0.3188400535408581
-0.3094414529272482,-0.3094414529272482
-0.3188400535408581,-0.3188400535408581
-0.32652981767926625,-0.32652981767926625
-0.3188400535408581,-0.3188400535408581
-0.31627679882805537,-0.31627679882805537
-0.3188400535408581,-0.3188400535408581
-0.32396656296646353,-0.32396656296646353
-0.3188400535408581,-0.3188400535408581
-0.31542238059045447,-0.31542238059045447
-0.3188400535408581,-0.3188400535408581
-0.34276376419368343,-0.34276376419368343
-0.3743772389849169,-0.3743772389849169
-0.3940288584497378,-0.3940288584497378
-0.3743772389849169,-0.3743772389849169
-0.33763725476807804,-0.33763725476807804
-0.3188400535408581,-0.3188400535408581
-0.32738423591686716,-0.32738423591686716
-0.3188400535408581,-0.3188400535408581
-0.2863721605120237,-0.2863721605120237
-0.26415728633440017,-0.26415728633440017
-0.2863721605120237,-0.2863721605120237
-0.3188400535408581,-0.3188400535408581
-0.329093072392069,-0.329093072392069
-0.3188400535408581,-0.3188400535408581
-0.3188400535408581,-0.3188400535408581
-0.3188400535408581,-0.3188400535408581
-0.3171312170656563,-0.3171312170656563
-0.3188400535408581,-0.3188400535408581
-0.3308019088672708,-0.3308019088672708
-0.3188400535408581,-0.3188400535408581
-0.2829544875616201,-0.2829544875616201
-0.26415728633440017,-0.26415728633440017
-0.29149866993762913,-0.29149866993762913
-0.3188400535408581,-0.3188400535408581
-0.30431494350164273,-0.30431494350164273
-0.26415728633440017,-0.26415728633440017
-0.2521954310079875,-0.2521954310079875
-0.26415728633440017,-0.26415728633440017
-0.27270146871040923,-0.27270146871040923
-0.26415728633440017,-0.26415728633440017
-0.26159403162159744,-0.26159403162159744
-0.26415728633440017,-0.26415728633440017
-0.2667205410472029,-0.2667205410472029
-0.26415728633440017,-0.26415728633440017
-0.265866122809602,-0.265866122809602
-0.26415728633440017,-0.26415728633440017
-0.26244844985919835,-0.26244844985919835
-0.26415728633440017,-0.26415728633440017
-0.2718470504728083,-0.2718470504728083
-0.26415728633440017,-0.26415728633440017
-0.23767032096877214,-0.23767032096877214
-0.20862010089034136,-0.20862010089034136
-0.202639173227135,-0.202639173227135
-0.20862010089034136,-0.20862010089034136
-0.21374661031594677,-0.21374661031594677
-0.20862010089034136,-0.20862010089034136
-0.20862010089034136,-0.20862010089034136
-0.20862010089034136,-0.20862010089034136
-0.21032893736554317,-0.21032893736554317
-0.20862010089034136,-0.20862010089034136
-0.21203777384074496,-0.21203777384074496
-0.20862010089034136,-0.20862010089034136
-0.19238615437592416,-0.19238615437592416
-0.15393733368388343,-0.15393733368388343
-0.10352665766543002,-0.10352665766543002
-0.042862962795765756,-0.042862962795765756
0.014383059123494886,0.014383059123494886
0.067356989854751,0.067356989854751
0.10409697407158992,0.10409697407158992
0.12203975706120893,0.12203975706120893
0.10922348349719535,0.10922348349719535
0.067356989854751,0.067356989854751
0.00669329498508674,0.00669329498508674
-0.042862962795765756,-0.042862962795765756
-0.07618527406220106,-0.07618527406220106
-0.09840014823982458,-0.09840014823982458
-0.12830478655585628,-0.12830478655585628
-0.15393733368388343,-0.15393733368388343
-0.16419035253509429,-0.16419035253509429
-0.15393733368388343,-0.15393733368388343
-0.14710198778307618,-0.14710198778307618
-0.15393733368388343,-0.15393733368388343
-0.1658991890102961,-0.1658991890102961
-0.15393733368388343,-0.15393733368388343
-0.12317827713025084,-0.12317827713025084
-0.09840014823982458,-0.09840014823982458
-0.11463409475424179,-0.11463409475424179
-0.15393733368388343,-0.15393733368388343
-0.19494940908872688,-0.19494940908872688
-0.20862010089034136,-0.20862010089034136
-0.21203777384074496,-0.21203777384074496
-0.20862010089034136,-0.20862010089034136
-0.20947451912794227,-0.20947451912794227
-0.20862010089034136,-0.20862010089034136
-0.20947451912794227,-0.20947451912794227
-0.20862010089034136,-0.20862010089034136
-0.20862010089034136,-0.20862010089034136
-0.20862010089034136,-0.20862010089034136
-0.19751266380152957,-0.19751266380152957
-0.15393733368388343,-0.15393733368388343
-0.06849550992379291,-0.06849550992379291
0.067356989854751,0.067356989854751
0.28608805868058274,0.28608805868058274
0.6193111713449357,0.6193111713449357
1.0157612335917556,1.0157612335917556
1.391705258136154,1.391705258136154
1.725782789038108,1.725782789038108
2.0538793922768552,2.0538793922768552
2.264066278726678,2.264066278726678
2.1085621594833133,2.1085621594833133
1.4463880253426118,1.4463880253426118
0.45355403325036014,0.45355403325036014
-0.5674757606827215,-0.5674757606827215
-1.4227484165212276,-1.4227484165212276
-2.068688604147512,-2.068688604147512
-2.471119594057538,-2.471119594057538
-2.6308958044889073,-2.6308958044889073
-2.6368767321521136,-2.6368767321521136
-2.615516276212091,-2.615516276212091
-2.5813395467080547,-2.5813395467080547
-2.4600121569687263,-2.4600121569687263
-2.1951425033124456,-2.1951425033124456
-1.8268882429064557,-1.8268882429064557
-1.4227484165212276,-1.4227484165212276
-1.0416778825512238,-1.0416778825512238
-0.7050370969364672,-0.7050370969364672
-0.4444395344681912,-0.4444395344681912
-0.26415728633440017,-0.26415728633440017
-0.16419035253509429,-0.16419035253509429
-0.09840014823982458,-0.09840014823982458
-0.04542621750856847,-0.04542621750856847
0.011819804410692171,0.011819804410692171
0.049414206865131996,0.049414206865131996
0.067356989854751,0.067356989854751
0.0682114080923519,0.0682114080923519
0.067356989854751,0.067356989854751
0.06393931690434738,0.06393931690434738
0.067356989854751,0.067356989854751
0.08529977284437001,0.08529977284437001
0.12203975706120893,0.12203975706120893
0.15963415951564874,0.15963415951564874
0.17757694250526776,0.17757694250526776
0.17586810603006595,0.17586810603006595
0.17757694250526776,0.17757694250526776
0.1818490336932723,0.1818490336932723
0.17757694250526776,0.17757694250526776
0.16219741422845146,0.16219741422845146
0.17757694250526776,0.17757694250526776
0.22884203676132206,0.22884203676132206
0.28779689515578455,0.28779689515578455
0.3023220051949999,0.3023220051949999
0.28779689515578455,0.28779689515578455
0.27412620335417004,0.27412620335417004
0.28779689515578455,0.28779689515578455
0.30915735109580716,0.30915735109580716
0.3433340805998434,0.3433340805998434
0.3860549924798886,0.3860549924798886
0.45355403325036014,0.45355403325036014
0.5295972563968406,0.5295972563968406
0.6193111713449357,0.6193111713449357
0.7030441586298244,0.7030441586298244
0.7842138912019104,0.7842138912019104
0.8585482778731891,0.8585482778731891
0.949971029296486,0.949971029296486
1.0388305260069801,1.0388305260069801
1.1157281673910615,1.1157281673910615
1.1798095352111295,1.1798095352111295
1.2806308872480363,1.2806308872480363
1.4173378052641812,1.4173378052641812
1.5566079779931286,1.5566079779931286
1.6642646759308426,1.6642646759308426
1.777902301531763,1.777902301531763
1.9154636377855088,1.9154636377855088
2.0538793922768552,2.0538793922768552
2.1324858701361387,2.1324858701361387
2.164099344927372,2.164099344927372
2.182896546154592,2.182896546154592
2.2187821121338303,2.2187821121338303
2.252958841637866,2.252958841637866
2.2743192975778888,2.2743192975778888
2.263211860489077,2.263211860489077
2.2187821121338303,2.2187821121338303
2.138466797799345,2.138466797799345
2.0538793922768552,2.0538793922768552
1.9718552414671686,1.9718552414671686
1.8881222541822797,1.8881222541822797
1.767649282680552,1.767649282680552
1.6121451634371875,1.6121451634371875
1.4241731511649884,1.4241731511649884
1.2259481200415783,1.2259481200415783
1.0234509977301638,1.0234509977301638
0.8397510766459693,0.8397510766459693
0.6671585926505864,0.6671585926505864
0.5082368004568181,0.5082368004568181
0.35615035416385693,0.35615035416385693
0.2322597097117257,0.2322597097117257
0.12289417529880983,0.12289417529880983
0.011819804410692171,0.011819804410692171
-0.11207084004143907,-0.11207084004143907
-0.20862010089034136,-0.20862010089034136
-0.2709926322352074,-0.2709926322352074
-0.3188400535408581,-0.3188400535408581
-0.39744653140014136,-0.39744653140014136
-0.4845971916354337,-0.4845971916354337
-0.5580771600691116,-0.5580771600691116
-0.5948171442859504,-0.5948171442859504
-0.6101966725627668,-0.6101966725627668
-0.5948171442859504,-0.5948171442859504
-0.5657669242075197,-0.5657669242075197
-0.5401343770794925,-0.5401343770794925
-0.5392799588418916,-0.5392799588418916
-0.5401343770794925,-0.5401343770794925
-0.5367167041290889,-0.5367167041290889
-0.5401343770794925,-0.5401343770794925
-0.5683301789203224,-0.5683301789203224
-0.5948171442859504,-0.5948171442859504
-0.6033613266619595,-0.6033613266619595
-0.5948171442859504,-0.5948171442859504
-0.5956715625235514,-0.5956715625235514
-0.5948171442859504,-0.5948171442859504
-0.5777287795339323,-0.5777287795339323
-0.5401343770794925,-0.5401343770794925
-0.5059576475754564,-0.5059576475754564
-0.4845971916354337,-0.4845971916354337
-0.48117951868503006,-0.48117951868503006
-0.4845971916354337,-0.4845971916354337
-0.49228695577384185,-0.49228695577384185
-0.4845971916354337,-0.4845971916354337
-0.46152789922020926,-0.46152789922020926
-0.42906000619137485,-0.42906000619137485
-0.4025730408257468,-0.4025730408257468
-0.3743772389849169,-0.3743772389849169
-0.34532701890648615,-0.34532701890648615
-0.3188400535408581,-0.3188400535408581
-0.31115028940245,-0.31115028940245
-0.3188400535408581,-0.3188400535408581
-0.34447260066888524,-0.34447260066888524
-0.3743772389849169,-0.3743772389849169
-0.39232002197453597,-0.39232002197453597
-0.3743772389849169,-0.3743772389849169
-0.33934609124327986,-0.33934609124327986
-0.3188400535408581,-0.3188400535408581
-0.32567539944166535,-0.32567539944166535
-0.3188400535408581,-0.3188400535408581
-0.2880809969872255,-0.2880809969872255
-0.26415728633440017,-0.26415728633440017
-0.283808905799221,-0.283808905799221
-0.3188400535408581,-0.3188400535408581
-0.3325107453424726,-0.3325107453424726
-0.3188400535408581,-0.3188400535408581
-0.31371354411525265,-0.31371354411525265
-0.3188400535408581,-0.3188400535408581
-0.32482098120406444,-0.32482098120406444
-0.3188400535408581,-0.3188400535408581
-0.3179856353032572,-0.3179856353032572
-0.3188400535408581,-0.3188400535408581
-0.3222577264912617,-0.3222577264912617
-0.3188400535408581,-0.3188400535408581
-0.319694471778459,-0.319694471778459
-0.3188400535408581,-0.3188400535408581
-0.3205488900160599,-0.3205488900160599
-0.3188400535408581,-0.3188400535408581
-0.3214033082536608,-0.3214033082536608
-0.3188400535408581,-0.3188400535408581
-0.3188400535408581,-0.3188400535408581
-0.3188400535408581,-0.3188400535408581
-0.3222577264912617,-0.3222577264912617
-0.3188400535408581,-0.3188400535408581
-0.3171312170656563,-0.3171312170656563
-0.3188400535408581,-0.3188400535408581
-0.32738423591686716,-0.32738423591686716
-0.3188400535408581,-0.3188400535408581
-0.29406192465043185,-0.29406192465043185
-0.26415728633440017,-0.26415728633440017
-0.25646752219599206,-0.25646752219599206
-0.26415728633440017,-0.26415728633440017
-0.2709926322352074,-0.2709926322352074
-0.26415728633440017,-0.26415728633440017
-0.25988519514639563,-0.25988519514639563
-0.26415728633440017,-0.26415728633440017
-0.27270146871040923,-0.27270146871040923
-0.26415728633440017,-0.26415728633440017
-0.23937915744397392,-0.23937915744397392
-0.20862010089034136,-0.20862010089034136
-0.184696390237516,-0.184696390237516
-0.15393733368388343,-0.15393733368388343
-0.12232385889264993,-0.12232385889264993
-0.09840014823982458,-0.09840014823982458
-0.0821662017254074,-0.0821662017254074
-0.042862962795765756,-0.042862962795765756
0.0169463138362976,0.0169463138362976
0.067356989854751,0.067356989854751
0.07675559046836096,0.07675559046836096
0.067356989854751,0.067356989854751
0.0502686251027329,0.0502686251027329
0.011819804410692171,0.011819804410692171
-0.06849550992379291,-0.06849550992379291
-0.15393733368388343,-0.15393733368388343
-0.202639173227135,-0.202639173227135
-0.20862010089034136,-0.20862010089034136
-0.20691126441513955,-0.20691126441513955
-0.20862010089034136,-0.20862010089034136
-0.21203777384074496,-0.21203777384074496
-0.20862010089034136,-0.20862010089034136
-0.20947451912794227,-0.20947451912794227
-0.20862010089034136,-0.20862010089034136
-0.21032893736554317,-0.21032893736554317
-0.20862010089034136,-0.20862010089034136
-0.21203777384074496,-0.21203777384074496
-0.20862010089034136,-0.20862010089034136
-0.20862010089034136,-0.20862010089034136
-0.20862010089034136,-0.20862010089034136
-0.2163098650287495,-0.2163098650287495
-0.20862010089034136,-0.20862010089034136
-0.2017847549895341,-0.2017847549895341
-0.20862010089034136,-0.20862010089034136
-0.23852473920637302,-0.23852473920637302
-0.26415728633440017,-0.26415728633440017
-0.2701382139976065,-0.2701382139976065
-0.26415728633440017,-0.26415728633440017
-0.26415728633440017,-0.26415728633440017
-0.26415728633440017,-0.26415728633440017
-0.2333982297807676,-0.2333982297807676
-0.15393733368388343,-0.15393733368388343
-0.03517319865735761,-0.03517319865735761
0.12203975706120893,0.12203975706120893
0.3672577912526687,0.3672577912526687
0.7295311239954525,0.7295311239954525
1.1123104944406579,1.1123104944406579
1.391705258136154,1.391705258136154
1.588221452784362,1.588221452784362
1.832585068738221,1.832585068738221
2.0419175369504425,2.0419175369504425
1.8881222541822797,1.8881222541822797
1.156740242795905,1.156740242795905
0.067356989854751,0.067356989854751
-0.9750332600183532,-0.9750332600183532
-1.7534082744727777,-1.7534082744727777
-2.2968182735869536,-2.2968182735869536
-2.6368767321521136,-2.6368767321521136
-2.772729231930658,-2.772729231930658
-2.7470966848026306,-2.7470966848026306
-2.6565283516169345,-2.6565283516169345
-2.525802361263996,-2.525802361263996
-2.3258684936653844,-2.3258684936653844
-2.02938536521787,-2.02938536521787
-1.6645487777622836,-1.6645487777622836
-1.256991278426652,-1.256991278426652
-0.8639588891302356,-0.8639588891302356
-0.5401343770794925,-0.5401343770794925
-0.3299474906296699,-0.3299474906296699
-0.20862010089034136,-0.20862010089034136
-0.14368431483267255,-0.14368431483267255
-0.09840014823982458,-0.09840014823982458
-0.07362201934939834,-0.07362201934939834
-0.042862962795765756,-0.042862962795765756
0.0015667855594813096,0.0015667855594813096
0.067356989854751,0.067356989854751
0.11520441116040168,0.11520441116040168
0.12203975706120893,0.12203975706120893
0.10836906525959444,0.10836906525959444
0.12203975706120893,0.12203975706120893
0.16219741422845146,0.16219741422845146
0.17757694250526776,0.17757694250526776
0.14681788595163517,0.14681788595163517
0.12203975706120893,0.12203975706120893
0.14083695828842885,0.14083695828842885
0.17757694250526776,0.17757694250526776
0.1835578701684741,0.1835578701684741
0.17757694250526776,0.17757694250526776
0.19210205254448315,0.19210205254448315
0.2322597097117257,0.2322597097117257
0.26301876626535825,0.26301876626535825
0.28779689515578455,0.28779689515578455
0.3117206058086099,0.3117206058086099
0.3433340805998434,0.3433340805998434
0.3638401183022651,0.3638401183022651
0.3980168478063013,0.3980168478063013
0.4484275238247547,0.4484275238247547
0.5082368004568181,0.5082368004568181
0.5415591117232533,0.5415591117232533
0.5637739859008769,0.5637739859008769
0.5979507154049131,0.5979507154049131
0.6739939385513937,0.6739939385513937
0.7594357623114841,0.7594357623114841
0.8397510766459693,0.8397510766459693
0.9089589538916425,0.9089589538916425
1.0055082147405447,1.0055082147405447
1.1165825856286624,1.1165825856286624
1.2259481200415783,1.2259481200415783
1.3207885444152787,1.3207885444152787
1.4463880253426118,1.4463880253426118
1.6095819087243848,1.6095819087243848
1.777902301531763,1.777902301531763
1.9000841095086924,1.9000841095086924
1.9983422068327965,1.9983422068327965
2.103435650057708,2.103435650057708
2.2187821121338303,2.2187821121338303
2.2965341717555123,2.2965341717555123
2.329002064784347,2.329002064784347
2.344381593061163,2.344381593061163
2.3845392502284057,2.3845392502284057
2.428968998583653,2.428968998583653
2.4400764356724647,2.4400764356724647
2.3956466873172175,2.3956466873172175
2.329002064784347,2.329002064784347
2.255522096350669,2.255522096350669
2.164099344927372,2.164099344927372
2.0333733545744335,2.0333733545744335
1.8881222541822797,1.8881222541822797
1.7317637167013142,1.7317637167013142
1.5566079779931286,1.5566079779931286
1.355819692156916,1.355819692156916
1.1704109345975195,1.1704109345975195
1.0072170512157466,1.0072170512157466
0.8397510766459693,0.8397510766459693
0.6389627908097565,0.6389627908097565
0.45355403325036014,0.45355403325036014
0.30573967814540354,0.30573967814540354
0.17757694250526776,0.17757694250526776
0.02976258740031118,0.02976258740031118
-0.09840014823982458,-0.09840014823982458
-0.18896848142552053,-0.18896848142552053
-0.26415728633440017,-0.26415728633440017
-0.3743772389849169,-0.3743772389849169
-0.4845971916354337,-0.4845971916354337
-0.545260886505098,-0.545260886505098
-0.5401343770794925,-0.5401343770794925
-0.5281725217530798,-0.5281725217530798
-0.5401343770794925,-0.5401343770794925
-0.5743111065835287,-0.5743111065835287
-0.5948171442859504,-0.5948171442859504
-0.6016524901867577,-0.6016524901867577
-0.5948171442859504,-0.5948171442859504
-0.5948171442859504,-0.5948171442859504
-0.5948171442859504,-0.5948171442859504
-0.5982348172363541,-0.5982348172363541
-0.5948171442859504,-0.5948171442859504
-0.5973803989987532,-0.5973803989987532
-0.5948171442859504,-0.5948171442859504
-0.580292034246735,-0.580292034246735
-0.5401343770794925,-0.5401343770794925
-0.49997671991225,-0.49997671991225
-0.4845971916354337,-0.4845971916354337
-0.49485021048664457,-0.49485021048664457
-0.4845971916354337,-0.4845971916354337
-0.4376041885673839,-0.4376041885673839
-0.3743772389849169,-0.3743772389849169
-0.3350740000552753,-0.3350740000552753
-0.3188400535408581,-0.3188400535408581
-0.3171312170656563,-0.3171312170656563
-0.3188400535408581,-0.3188400535408581
-0.32652981767926625,-0.32652981767926625
-0.3188400535408581,-0.3188400535408581
-0.29320750641283094,-0.29320750641283094
-0.26415728633440017,-0.26415728633440017
-0.2581763586711939,-0.2581763586711939
-0.26415728633440017,-0.26415728633440017
-0.2675749592848038,-0.2675749592848038
-0.26415728633440017,-0.26415728633440017
-0.26501170457200107,-0.26501170457200107
-0.26415728633440017,-0.26415728633440017
-0.26244844985919835,-0.26244844985919835
-0.26415728633440017,-0.26415728633440017
-0.2718470504728083,-0.2718470504728083
-0.26415728633440017,-0.26415728633440017
-0.23767032096877214,-0.23767032096877214
-0.20862010089034136,-0.20862010089034136
-0.20349359146473592,-0.20349359146473592
-0.20862010089034136,-0.20862010089034136
-0.21203777384074496,-0.21203777384074496
-0.20862010089034136,-0.20862010089034136
-0.21032893736554317,-0.21032893736554317
-0.20862010089034136,-0.20862010089034136
-0.20605684617753864,-0.20605684617753864
-0.20862010089034136,-0.20862010089034136
-0.2342526480183685,-0.2342526480183685
-0.26415728633440017,-0.26415728633440017
-0.27697355989841377,-0.27697355989841377
-0.26415728633440017,-0.26415728633440017
-0.25390426748318934,-0.25390426748318934
-0.26415728633440017,-0.26415728633440017
-0.29491634288803276,-0.29491634288803276
-0.3188400535408581,-0.3188400535408581
-0.32652981767926625,-0.32652981767926625
-0.3188400535408581,-0.3188400535408581
-0.3188400535408581,-0.3188400535408581
-0.3188400535408581,-0.3188400535408581
-0.30602377997684455,-0.30602377997684455
-0.26415728633440017,-0.26415728633440017
-0.22058195621675403,-0.22058195621675403
-0.20862010089034136,-0.20862010089034136
-0.23681590273117123,-0.23681590273117123
-0.26415728633440017,-0.26415728633440017
-0.2709926322352074,-0.2709926322352074
-0.26415728633440017,-0.26415728633440017
-0.2667205410472029,-0.2667205410472029
-0.26415728633440017,-0.26415728633440017
-0.24279683039437755,-0.24279683039437755
-0.20862010089034136,-0.20862010089034136
-0.19580382732632778,-0.19580382732632778
-0.20862010089034136,-0.20862010089034136
-0.23937915744397392,-0.23937915744397392
-0.26415728633440017,-0.26415728633440017
-0.27611914166081286,-0.27611914166081286
-0.26415728633440017,-0.26415728633440017
-0.23681590273117123,-0.23681590273117123
-0.20862010089034136,-0.20862010089034136
-0.2017847549895341,-0.2017847549895341
-0.20862010089034136,-0.20862010089034136
-0.2163098650287495,-0.2163098650287495
-0.20862010089034136,-0.20862010089034136
-0.20349359146473592,-0.20349359146473592
-0.20862010089034136,-0.20862010089034136
-0.22143637445435493,-0.22143637445435493
-0.20862010089034136,-0.20862010089034136
-0.16333593429749338,-0.16333593429749338
-0.09840014823982458,-0.09840014823982458
-0.04200854455816485,-0.04200854455816485
0.011819804410692171,0.011819804410692171
0.067356989854751,0.067356989854751
0.12203975706120893,0.12203975706120893
0.14510904947643338,0.14510904947643338
0.12203975706120893,0.12203975706120893
0.049414206865131996,0.049414206865131996
-0.042862962795765756,-0.042862962795765756
-0.12232385889264993,-0.12232385889264993
-0.15393733368388343,-0.15393733368388343
-0.15308291544628252,-0.15308291544628252
-0.15393733368388343,-0.15393733368388343
-0.1812787172871124,-0.1812787172871124
-0.20862010089034136,-0.20862010089034136
-0.2171642832663504,-0.2171642832663504
-0.20862010089034136,-0.20862010089034136
-0.20776568265274045,-0.20776568265274045
-0.20862010089034136,-0.20862010089034136
-0.21118335560314405,-0.21118335560314405
-0.20862010089034136,-0.20862010089034136
-0.21374661031594677,-0.21374661031594677
-0.20862010089034136,-0.20862010089034136
-0.20434800970233682,-0.20434800970233682
-0.20862010089034136,-0.20862010089034136
-0.23937915744397392,-0.23937915744397392
-0.26415728633440017,-0.26415728633440017
-0.2709926322352074,-0.2709926322352074
-0.26415728633440017,-0.26415728633440017
-0.26330286809679926,-0.26330286809679926
-0.26415728633440017,-0.26415728633440017
-0.26073961338399654,-0.26073961338399654
-0.26415728633440017,-0.26415728633440017
-0.27355588694801014,-0.27355588694801014
-0.26415728633440017,-0.26415728633440017
-0.20605684617753864,-0.20605684617753864
-0.09840014823982458,-0.09840014823982458
0.05881280747874195,0.05881280747874195
0.28779689515578455,0.28779689515578455
0.607349316018523,0.607349316018523
1.0055082147405447,1.0055082147405447
1.4301540788281946,1.4301540788281946
1.832585068738221,1.832585068738221
2.1316314518985378,2.1316314518985378
2.2187821121338303,2.2187821121338303
1.9701464049919668,1.9701464049919668
1.336168072692095,1.336168072692095
0.38007406481668227,0.38007406481668227
-0.7050370969364672,-0.7050370969364672
-1.6833459789895036,-1.6833459789895036
-2.360899641407021,-2.360899641407021
-2.7035213546849843,-2.7035213546849843
-2.801779452009088,-2.801779452009088
-2.795798524345882,-2.795798524345882
-2.7470966848026306,-2.7470966848026306
-2.651401842191329,-2.651401842191329
-2.471119594057538,-2.471119594057538
-2.201977849213253,-2.201977849213253
-1.8636282271232945,-1.8636282271232945
-1.5030637308557127,-1.5030637308557127
-1.1467713257761352,-1.1467713257761352
-0.824655650200594,-0.824655650200594
-0.5401343770794925,-0.5401343770794925
-0.31456796235285356,-0.31456796235285356
-0.15393733368388343,-0.15393733368388343
-0.07447643758699925,-0.07447643758699925
-0.042862962795765756,-0.042862962795765756
-0.027483434518949464,-0.027483434518949464
0.011819804410692171,0.011819804410692171
0.052831879815535616,0.052831879815535616
0.067356989854751,0.067356989854751
0.05624955276593924,0.05624955276593924
0.067356989854751,0.067356989854751
0.11947650234840622,0.11947650234840622
0.17757694250526776,0.17757694250526776
0.19381088901968496,0.19381088901968496
0.17757694250526776,0.17757694250526776
0.1673239236540569,0.1673239236540569
0.17757694250526776,0.17757694250526776
0.1835578701684741,0.1835578701684741
0.17757694250526776,0.17757694250526776
0.1673239236540569,0.1673239236540569
0.17757694250526776,0.17757694250526776
0.2006462349204922,0.2006462349204922
0.2322597097117257,0.2322597097117257
0.25789225683975286,0.25789225683975286
0.28779689515578455,0.28779689515578455
0.3142838605214126,0.3142838605214126
0.3433340805998434,0.3433340805998434
0.3638401183022651,0.3638401183022651
0.3980168478063013,0.3980168478063013
0.44415543263675017,0.44415543263675017
0.5082368004568181,0.5082368004568181
0.5654828223760787,0.5654828223760787
0.6193111713449357,0.6193111713449357
0.6654497561753846,0.6654497561753846
0.7295311239954525,0.7295311239954525
0.8021566741915294,0.8021566741915294
0.8944338438524272,0.8944338438524272
0.995255195889334,0.995255195889334
1.1157281673910615,1.1157281673910615
1.2447453212687982,1.2447453212687982
1.391705258136154,1.391705258136154
1.5326842673403034,1.5326842673403034
1.6668279306436453,1.6668279306436453
1.7796111380069648,1.7796111380069648
1.8881222541822797,1.8881222541822797
1.993215697407191,1.993215697407191
2.1085621594833133,2.1085621594833133
2.222199785084234,2.222199785084234
2.329002064784347,2.329002064784347
2.402482033218025,2.402482033218025
2.4400764356724647,2.4400764356724647
2.456310382186882,2.456310382186882
2.4947592028789223,2.4947592028789223
2.5408977877093712,2.5408977877093712
2.5502963883229812,2.5502963883229812
2.486215020502913,2.486215020502913
2.3845392502284057,2.3845392502284057
2.2760281340530906,2.2760281340530906
2.164099344927372,2.164099344927372
2.0282468451488285,2.0282468451488285
1.8881222541822797,1.8881222541822797
1.7368902261269197,1.7368902261269197
1.5566079779931286,1.5566079779931286
1.3318959815040905,1.3318959815040905
1.1157281673910615,1.1157281673910615
0.9363003374948715,0.9363003374948715
0.7842138912019104,0.7842138912019104
0.6176023348697339,0.6176023348697339
0.45355403325036014,0.45355403325036014
0.30659409638300444,0.30659409638300444
0.17757694250526776,0.17757694250526776
0.03488909682591661,0.03488909682591661
-0.09840014823982458,-0.09840014823982458
-0.20349359146473592,-0.20349359146473592
-0.26415728633440017,-0.26415728633440017
-0.3034605252640418,-0.3034605252640418
-0.3188400535408581,-0.3188400535408581
-0.33763725476807804,-0.33763725476807804
-0.3743772389849169,-0.3743772389849169
-0.43845860680498483,-0.43845860680498483
-0.4845971916354337,-0.4845971916354337
-0.4965590469618464,-0.4965590469618464
-0.4845971916354337,-0.4845971916354337
-0.4845971916354337,-0.4845971916354337
-0.4845971916354337,-0.4845971916354337
-0.4828883551602319,-0.4828883551602319
-0.4845971916354337,-0.4845971916354337
-0.5110841570010618,-0.5110841570010618
-0.5401343770794925,-0.5401343770794925
-0.5512418141683043,-0.5512418141683043
-0.5401343770794925,-0.5401343770794925
-0.5350078676538871,-0.5350078676538871
-0.5401343770794925,-0.5401343770794925
-0.5478241412179007,-0.5478241412179007
-0.5401343770794925,-0.5401343770794925
-0.51877392113947,-0.51877392113947
-0.4845971916354337,-0.4845971916354337
-0.4521292986065993,-0.4521292986065993
-0.42906000619137485,-0.42906000619137485
-0.4256423332409712,-0.4256423332409712
-0.42906000619137485,-0.42906000619137485
-0.4350409338545812,-0.4350409338545812
-0.42906000619137485,-0.42906000619137485
-0.41026280496415496,-0.41026280496415496
-0.3743772389849169,-0.3743772389849169
-0.33934609124327986,-0.33934609124327986
-0.3188400535408581,-0.3188400535408581
-0.3205488900160599,-0.3205488900160599
-0.3188400535408581,-0.3188400535408581
-0.2983340158384364,-0.2983340158384364
-0.26415728633440017,-0.26415728633440017
-0.2487777580575839,-0.2487777580575839
-0.26415728633440017,-0.26415728633440017
-0.2983340158384364,-0.2983340158384364
-0.3188400535408581,-0.3188400535408581
-0.3222577264912617,-0.3222577264912617
-0.3188400535408581,-0.3188400535408581
-0.3231121447288626,-0.3231121447288626
-0.3188400535408581,-0.3188400535408581
-0.2974795976008355,-0.2974795976008355
-0.26415728633440017,-0.26415728633440017
-0.2496321762951848,-0.2496321762951848
-0.26415728633440017,-0.26415728633440017
-0.29662517936323457,-0.29662517936323457
-0.3188400535408581,-0.3188400535408581
-0.32482098120406444,-0.32482098120406444
-0.3188400535408581,-0.3188400535408581
-0.3179856353032572,-0.3179856353032572
-0.3188400535408581,-0.3188400535408581
-0.3214033082536608,-0.3214033082536608
-0.3188400535408581,-0.3188400535408581
-0.319694471778459,-0.319694471778459
-0.3188400535408581,-0.3188400535408581
-0.3205488900160599,-0.3205488900160599
-0.3188400535408581,-0.3188400535408581
-0.319694471778459,-0.319694471778459
-0.3188400535408581,-0.3188400535408581
-0.3205488900160599,-0.3205488900160599
-0.3188400535408581,-0.3188400535408581
-0.3205488900160599,-0.3205488900160599
-0.3188400535408581,-0.3188400535408581
-0.319694471778459,-0.319694471778459
-0.3188400535408581,-0.3188400535408581
-0.3214033082536608,-0.3214033082536608
-0.3188400535408581,-0.3188400535408581
-0.3188400535408581,-0.3188400535408581
-0.3188400535408581,-0.3188400535408581
-0.3231121447288626,-0.3231121447288626
-0.3188400535408581,-0.3188400535408581
-0.31627679882805537,-0.31627679882805537
-0.3188400535408581,-0.3188400535408581
-0.32823865415446807,-0.32823865415446807
-0.3188400535408581,-0.3188400535408581
-0.29235308817523004,-0.29235308817523004
-0.26415728633440017,-0.26415728633440017
-0.2581763586711939,-0.2581763586711939
-0.26415728633440017,-0.26415728633440017
-0.2684293775224047,-0.2684293775224047
-0.26415728633440017,-0.26415728633440017
-0.26330286809679926,-0.26330286809679926
-0.26415728633440017,-0.26415728633440017
-0.265866122809602,-0.265866122809602
-0.26415728633440017,-0.26415728633440017
-0.265866122809602,-0.265866122809602
-0.26415728633440017,-0.26415728633440017
-0.2496321762951848,-0.2496321762951848
-0.20862010089034136,-0.20862010089034136
-0.15564617015908525,-0.15564617015908525
-0.09840014823982458,-0.09840014823982458
-0.04542621750856847,-0.04542621750856847
0.011819804410692171,0.011819804410692171
0.057103971003540144,0.057103971003540144
0.067356989854751,0.067356989854751
0.02463607797470575,0.02463607797470575
-0.042862962795765756,-0.042862962795765756
-0.10865316709103545,-0.10865316709103545
-0.15393733368388343,-0.15393733368388343
-0.18811406318791962,-0.18811406318791962
-0.20862010089034136,-0.20862010089034136
-0.21545544679114859,-0.21545544679114859
-0.20862010089034136,-0.20862010089034136
-0.20691126441513955,-0.20691126441513955
-0.20862010089034136,-0.20862010089034136
-0.21289219207834587,-0.21289219207834587
-0.20862010089034136,-0.20862010089034136
-0.20605684617753864,-0.20605684617753864
-0.20862010089034136,-0.20862010089034136
-0.2316893933055658,-0.2316893933055658
-0.26415728633440017,-0.26415728633440017
-0.3008972705512391,-0.3008972705512391
-0.3188400535408581,-0.3188400535408581
-0.32482098120406444,-0.32482098120406444
-0.3188400535408581,-0.3188400535408581
-0.319694471778459,-0.319694471778459
-0.3188400535408581,-0.3188400535408581
-0.319694471778459,-0.319694471778459
-0.3188400535408581,-0.3188400535408581
-0.3214033082536608,-0.3214033082536608
-0.3188400535408581,-0.3188400535408581
-0.30175168878884,-0.30175168878884
-0.26415728633440017,-0.26415728633440017
-0.21460102855354768,-0.21460102855354768
-0.15393733368388343,-0.15393733368388343
-0.05567923635977933,-0.05567923635977933
0.12203975706120893,0.12203975706120893
0.3937447566182968,0.3937447566182968
0.7295311239954525,0.7295311239954525
1.0721528372734155,1.0721528372734155
1.391705258136154,1.391705258136154
1.660847002980439,1.660847002980439
1.832585068738221,1.832585068738221
1.7975539209965838,1.7975539209965838
1.4463880253426118,1.4463880253426118
0.7406385610842643,0.7406385610842643
-0.20862010089034136,-0.20862010089034136
-1.1886378194185796,-1.1886378194185796
-1.9747025980114121,-1.9747025980114121
-2.4651386663943318,-2.4651386663943318
-2.6915594993585716,-2.6915594993585716
-2.761621794841846,-2.761621794841846
-2.7470966848026306,-2.7470966848026306
-2.6744711346065535,-2.6744711346065535
-2.525802361263996,-2.525802361263996
-2.294255018874151,-2.294255018874151
-1.9747025980114121,-1.9747025980114121
-1.5970497369918122,-1.5970497369918122
-1.202308511220194,-1.202308511220194
-0.8417440149526121,-0.8417440149526121
-0.5401343770794925,-0.5401343770794925
-0.32823865415446807,-0.32823865415446807
-0.20862010089034136,-0.20862010089034136
-0.1701712801983006,-0.1701712801983006
-0.15393733368388343,-0.15393733368388343
-0.1325768777438608,-0.1325768777438608
-0.09840014823982458,-0.09840014823982458
-0.07191318287419653,-0.07191318287419653
-0.042862962795765756,-0.042862962795765756
-0.012103906242133172,-0.012103906242133172
0.011819804410692171,0.011819804410692171
0.0160918955986967,0.0160918955986967
0.011819804410692171,0.011819804410692171
0.010965386173091266,0.010965386173091266
0.011819804410692171,0.011819804410692171
0.00840213146028855,0.00840213146028855
0.011819804410692171,0.011819804410692171
0.032325842113113894,0.032325842113113894
0.067356989854751,0.067356989854751
0.09640720993318178,0.09640720993318178
0.12203975706120893,0.12203975706120893
0.14681788595163517,0.14681788595163517
0.17757694250526776,0.17757694250526776
0.18782996135647861,0.18782996135647861
0.17757694250526776,0.17757694250526776
0.15963415951564874,0.15963415951564874
0.17757694250526776,0.17757694250526776
0.22798761852372115,0.22798761852372115
0.28779689515578455,0.28779689515578455
0.3185559517094171,0.3185559517094171
0.3433340805998434,0.3433340805998434
0.3809284830542832,0.3809284830542832
0.45355403325036014,0.45355403325036014
0.5347237658224461,0.5347237658224461
0.6193111713449357,0.6193111713449357
0.6825381209274027,0.6825381209274027
0.7295311239954525,0.7295311239954525
0.7662711082122914,0.7662711082122914
0.8397510766459693,0.8397510766459693
0.9439901016332797,0.9439901016332797
1.0601909819470028,1.0601909819470028
1.1618667522215105,1.1618667522215105
1.2806308872480363,1.2806308872480363
1.419046641739383,1.419046641739383
1.5566079779931286,1.5566079779931286
1.6659735124060444,1.6659735124060444
1.777902301531763,1.777902301531763
1.8975208547958897,1.8975208547958897
1.9983422068327965,1.9983422068327965
2.03935428223764,2.03935428223764
2.0538793922768552,2.0538793922768552
2.075239848216878,2.075239848216878
2.1085621594833133,2.1085621594833133
2.1179607600969232,2.1179607600969232
2.1085621594833133,2.1085621594833133
2.0880561217808915,2.0880561217808915
2.0538793922768552,2.0538793922768552
1.9821082603183793,1.9821082603183793
1.8881222541822797,1.8881222541822797
1.7830288109573684,1.7830288109573684
1.6668279306436453,1.6668279306436453
1.5164503208258862,1.5164503208258862
1.336168072692095,1.336168072692095
1.138797459806286,1.138797459806286
0.949971029296486,0.949971029296486
0.7722520358754977,0.7722520358754977
0.6193111713449357,0.6193111713449357
0.4766233256655846,0.4766233256655846
0.3433340805998434,0.3433340805998434
0.2015006531580931,0.2015006531580931
0.067356989854751,0.067356989854751
-0.053970399884577525,-0.053970399884577525
-0.15393733368388343,-0.15393733368388343
-0.25988519514639563,-0.25988519514639563
-0.3743772389849169,-0.3743772389849169
-0.4837427733978328,-0.4837427733978328
-0.5401343770794925,-0.5401343770794925
-0.5478241412179007,-0.5478241412179007
-0.5401343770794925,-0.5401343770794925
-0.5614948330195152,-0.5614948330195152
-0.5948171442859504,-0.5948171442859504
-0.6127599272755695,-0.6127599272755695
-0.5948171442859504,-0.5948171442859504
-0.5820008707219368,-0.5820008707219368
-0.5948171442859504,-0.5948171442859504
-0.6307027102651884,-0.6307027102651884
-0.6503543297300093,-0.6503543297300093
-0.6520631662052111,-0.6520631662052111
-0.6503543297300093,-0.6503543297300093
-0.6588985121060184,-0.6588985121060184
-0.6503543297300093,-0.6503543297300093
-0.6221585278891795,-0.6221585278891795
-0.5948171442859504,-0.5948171442859504
-0.5948171442859504,-0.5948171442859504
-0.5948171442859504,-0.5948171442859504
-0.5751655248211296,-0.5751655248211296
-0.5401343770794925,-0.5401343770794925
-0.5127929934762636,-0.5127929934762636
-0.4845971916354337,-0.4845971916354337
-0.4512748803689984,-0.4512748803689984
-0.42906000619137485,-0.42906000619137485
-0.4478572074185948,-0.4478572074185948
-0.4845971916354337,-0.4845971916354337
-0.5025399746250527,-0.5025399746250527
-0.4845971916354337,-0.4845971916354337
-0.4555469715570029,-0.4555469715570029
-0.42906000619137485,-0.42906000619137485
-0.4059907137761504,-0.4059907137761504
-0.3743772389849169,-0.3743772389849169
-0.34276376419368343,-0.34276376419368343
-0.3188400535408581,-0.3188400535408581
-0.31456796235285356,-0.31456796235285356
-0.3188400535408581,-0.3188400535408581
-0.32396656296646353,-0.32396656296646353
-0.3188400535408581,-0.3188400535408581
-0.31627679882805537,-0.31627679882805537
-0.3188400535408581,-0.3188400535408581
-0.32482098120406444,-0.32482098120406444
-0.3188400535408581,-0.3188400535408581
-0.3120047076400509,-0.3120047076400509
-0.3188400535408581,-0.3188400535408581
-0.3487446918568898,-0.3487446918568898
-0.3743772389849169,-0.3743772389849169
-0.3820670031233251,-0.3820670031233251
-0.3743772389849169,-0.3743772389849169
-0.3718139842721142,-0.3718139842721142
-0.3743772389849169,-0.3743772389849169
-0.37694049369771965,-0.37694049369771965
-0.3743772389849169,-0.3743772389849169
-0.37523165722251783,-0.37523165722251783
-0.3743772389849169,-0.3743772389849169
-0.37523165722251783,-0.37523165722251783
-0.3743772389849169,-0.3743772389849169
-0.37694049369771965,-0.37694049369771965
-0.3743772389849169,-0.3743772389849169
-0.3726684025097151,-0.3726684025097151
-0.3743772389849169,-0.3743772389849169
-0.3820670031233251,-0.3820670031233251
-0.3743772389849169,-0.3743772389849169
-0.3495991100944907,-0.3495991100944907
-0.3188400535408581,-0.3188400535408581
-0.31115028940245,-0.31115028940245
-0.3188400535408581,-0.3188400535408581
-0.32738423591686716,-0.32738423591686716
-0.3188400535408581,-0.3188400535408581
-0.31371354411525265,-0.31371354411525265
-0.3188400535408581,-0.3188400535408581
-0.3308019088672708,-0.3308019088672708
-0.3188400535408581,-0.3188400535408581
-0.2880809969872255,-0.2880809969872255
-0.26415728633440017,-0.26415728633440017
-0.2803912328488174,-0.2803912328488174
-0.3188400535408581,-0.3188400535408581
-0.3419093459560825,-0.3419093459560825
-0.3188400535408581,-0.3188400535408581
-0.2821000693240192,-0.2821000693240192
-0.26415728633440017,-0.26415728633440017
-0.2709926322352074,-0.2709926322352074
-0.26415728633440017,-0.26415728633440017
-0.23596148449357032,-0.23596148449357032
-0.20862010089034136,-0.20862010089034136
-0.20947451912794227,-0.20947451912794227
-0.20862010089034136,-0.20862010089034136
-0.17358895314870423,-0.17358895314870423
-0.09840014823982458,-0.09840014823982458
-0.02833785275655037,-0.02833785275655037
0.011819804410692171,0.011819804410692171
0.018655150311499412,0.018655150311499412
0.011819804410692171,0.011819804410692171
-0.008686233291729552,-0.008686233291729552
-0.042862962795765756,-0.042862962795765756
-0.09754573000222369,-0.09754573000222369
-0.15393733368388343,-0.15393733368388343
-0.19580382732632778,-0.19580382732632778
-0.20862010089034136,-0.20862010089034136
-0.20691126441513955,-0.20691126441513955
-0.20862010089034136,-0.20862010089034136
-0.2333982297807676,-0.2333982297807676
-0.26415728633440017,-0.26415728633440017
-0.2803912328488174,-0.2803912328488174
-0.26415728633440017,-0.26415728633440017
-0.2333982297807676,-0.2333982297807676
-0.20862010089034136,-0.20862010089034136
-0.20776568265274045,-0.20776568265274045
-0.20862010089034136,-0.20862010089034136
-0.20947451912794227,-0.20947451912794227
-0.20862010089034136,-0.20862010089034136
-0.23083497506796488,-0.23083497506796488
-0.26415728633440017,-0.26415728633440017
-0.3000428523136382,-0.3000428523136382
-0.3188400535408581,-0.3188400535408581
-0.32396656296646353,-0.32396656296646353
-0.3188400535408581,-0.3188400535408581
-0.31542238059045447,-0.31542238059045447
-0.3188400535408581,-0.3188400535408581
-0.32482098120406444,-0.32482098120406444
-0.3188400535408581,-0.3188400535408581
-0.28466332403682193,-0.28466332403682193
-0.20862010089034136,-0.20862010089034136
-0.07960294701260467,-0.07960294701260467
0.12203975706120893,0.12203975706120893
0.41168753960791576,0.41168753960791576
0.7842138912019104,0.7842138912019104
1.1866448811119368,1.1866448811119368
1.5566079779931286,1.5566079779931286
1.842838087589432,1.842838087589432
1.9983422068327965,1.9983422068327965
1.9094827101223024,1.9094827101223024
1.4463880253426118,1.4463880253426118
0.5714637500392851,0.5714637500392851
-0.5401343770794925,-0.5401343770794925
-1.5961953187542113,-1.5961953187542113
-2.360899641407021,-2.360899641407021
