ECG,PPG
-0.42063426823705286,-0.42063426823705286
-0.0928311440446517,-0.0928311440446517
-0.36052367089125803,-0.36052367089125803
-0.4991787821022247,-0.4991787821022247
-0.36052367089125803,-0.36052367089125803
-0.30522192133312676,-0.30522192133312676
-0.42063426823705286,-0.42063426823705286
-0.4807448655828477,-0.4807448655828477
-0.42063426823705286,-0.42063426823705286
-0.3925826561423486,-0.3925826561423486
-0.42063426823705286,-0.42063426823705286
-0.42464164139343913,-0.42464164139343913
-0.42063426823705286,-0.42063426823705286
-0.49677435820839294,-0.49677435820839294
-0.6017675349057146,-0.6017675349057146
-0.6346279947880824,-0.6346279947880824
-0.6017675349057146,-0.6017675349057146
-0.6049734334308237,-0.6049734334308237
-0.6618781322515094,-0.6618781322515094
-0.7011503891840953,-0.7011503891840953
-0.6618781322515094,-0.6618781322515094
-0.6033704841682691,-0.6033704841682691
-0.6017675349057146,-0.6017675349057146
-0.6586722337264004,-0.6586722337264004
-0.6618781322515094,-0.6618781322515094
-0.5793262452299511,-0.5793262452299511
-0.4807448655828477,-0.4807448655828477
-0.4462814564379253,-0.4462814564379253
-0.42063426823705286,-0.42063426823705286
-0.3637295694163671,-0.3637295694163671
-0.3004130735454632,-0.3004130735454632
-0.2795747331322543,-0.2795747331322543
-0.24030247619966835,-0.24030247619966835
-0.15053731749661475,-0.15053731749661475
-0.0591692095310066,-0.0591692095310066
-0.028713173542470556,-0.028713173542470556
0.0009413878147882254,0.0009413878147882254
0.06746378221080117,0.06746378221080117
0.12196405713765515,0.12196405713765515
0.09631686893678268,0.09631686893678268
0.06105198516058305,0.06105198516058305
0.07868442704868286,0.07868442704868286
0.12196405713765515,0.12196405713765515
0.12276553176893241,0.12276553176893241
0.12196405713765515,0.12196405713765515
0.15161861849491393,0.15161861849491393
0.18207465448344998,0.18207465448344998
0.15562599165130026,0.15562599165130026
0.12196405713765515,0.12196405713765515
0.11795668398126882,0.11795668398126882
0.12196405713765515,0.12196405713765515
0.08509622409890098,0.08509622409890098
0.06105198516058305,0.06105198516058305
0.08349327483634646,0.08349327483634646
0.12196405713765515,0.12196405713765515
0.11955963324382335,0.11955963324382335
0.12196405713765515,0.12196405713765515
0.15161861849491393,0.15161861849491393
0.18207465448344998,0.18207465448344998
0.1564274662825775,0.1564274662825775
0.12196405713765515,0.12196405713765515
0.1115448869310507,0.1115448869310507
0.12196405713765515,0.12196405713765515
0.11074341229977344,0.11074341229977344
0.12196405713765515,0.12196405713765515
0.17566285743323184,0.17566285743323184
0.2421852518292448,0.2421852518292448
0.23817787867285847,0.23817787867285847
0.18207465448344998,0.18207465448344998
0.1436038721821413,0.1436038721821413
0.18207465448344998,0.18207465448344998
0.2357734547790267,0.2357734547790267
0.2421852518292448,0.2421852518292448
0.19569972321516346,0.19569972321516346
0.18207465448344998,0.18207465448344998
0.21333216510326328,0.21333216510326328
0.2421852518292448,0.2421852518292448
0.21413363973454055,0.21413363973454055
0.18207465448344998,0.18207465448344998
0.17806728132706365,0.17806728132706365
0.18207465448344998,0.18207465448344998
0.14680977070725035,0.14680977070725035
0.12196405713765515,0.12196405713765515
0.14039797365703222,0.14039797365703222
0.18207465448344998,0.18207465448344998
0.18688350227111356,0.18688350227111356
0.18207465448344998,0.18207465448344998
0.18287612911472723,0.18287612911472723
0.18207465448344998,0.18207465448344998
0.16203778870151836,0.16203778870151836
0.18207465448344998,0.18207465448344998
0.23016313236008584,0.23016313236008584
0.2421852518292448,0.2421852518292448
0.1900894007962226,0.1900894007962226
0.18207465448344998,0.18207465448344998
0.2485970488794629,0.2485970488794629
0.30229584917503965,0.30229584917503965
0.251802947404572,0.251802947404572
0.18207465448344998,0.18207465448344998
0.16925106038301374,0.16925106038301374
0.18207465448344998,0.18207465448344998
0.14520682144469582,0.14520682144469582
0.12196405713765515,0.12196405713765515
0.1660451618579047,0.1660451618579047
0.2421852518292448,0.2421852518292448
0.23657492941030395,0.23657492941030395
0.18207465448344998,0.18207465448344998
0.1500156692323594,0.1500156692323594
0.18207465448344998,0.18207465448344998
0.20050857100282704,0.20050857100282704
0.18207465448344998,0.18207465448344998
0.1564274662825775,0.1564274662825775
0.18207465448344998,0.18207465448344998
0.20772184268432242,0.20772184268432242
0.18207465448344998,0.18207465448344998
0.12196405713765515,0.12196405713765515
0.12196405713765515,0.12196405713765515
0.13959649902575497,0.13959649902575497
0.06105198516058305,0.06105198516058305
-0.08161049920677,-0.08161049920677
0.0009413878147882254,0.0009413878147882254
0.5154881010947919,0.5154881010947919
1.3874924999244556,1.3874924999244556
2.3660930247139955,2.3660930247139955
3.255729865431759,3.255729865431759
3.791114919124972,3.791114919124972
3.6781069961148773,3.6781069961148773
2.8734264663125035,2.8734264663125035
1.8090681559762967,1.8090681559762967
0.9819463364981598,0.9819463364981598
0.5435397131894962,0.5435397131894962
0.3030973238063169,0.3030973238063169
0.12196405713765515,0.12196405713765515
-0.02390432575480697,-0.02390432575480697
-0.11927980687680143,-0.11927980687680143
-0.19782432074197334,-0.19782432074197334
-0.24030247619966835,-0.24030247619966835
-0.2459127986186092,-0.2459127986186092
-0.24030247619966835,-0.24030247619966835
-0.26915556292564985,-0.26915556292564985
-0.3004130735454632,-0.3004130735454632
-0.31003076912079036,-0.31003076912079036
-0.3004130735454632,-0.3004130735454632
-0.30602339596440403,-0.30602339596440403
-0.3004130735454632,-0.3004130735454632
-0.2779717838696998,-0.2779717838696998
-0.24030247619966835,-0.24030247619966835
-0.2346921537807275,-0.2346921537807275
-0.24030247619966835,-0.24030247619966835
-0.24911869714371826,-0.24911869714371826
-0.24030247619966835,-0.24030247619966835
-0.23789805230583655,-0.23789805230583655
-0.24030247619966835,-0.24030247619966835
-0.24671427324988646,-0.24671427324988646
-0.24030247619966835,-0.24030247619966835
-0.23789805230583655,-0.23789805230583655
-0.24030247619966835,-0.24030247619966835
-0.24911869714371826,-0.24911869714371826
-0.24030247619966835,-0.24030247619966835
-0.23308920451817297,-0.23308920451817297
-0.24030247619966835,-0.24030247619966835
-0.2595378673503227,-0.2595378673503227
-0.24030247619966835,-0.24030247619966835
-0.19622137147941882,-0.19622137147941882
-0.17939040422259625,-0.17939040422259625
-0.2186626611551822,-0.2186626611551822
-0.24030247619966835,-0.24030247619966835
-0.21385381336751863,-0.21385381336751863
-0.17939040422259625,-0.17939040422259625
-0.2010302192670824,-0.2010302192670824
-0.24030247619966835,-0.24030247619966835
-0.26915556292564985,-0.26915556292564985
-0.3004130735454632,-0.3004130735454632
-0.35250892457848537,-0.35250892457848537
-0.36052367089125803,-0.36052367089125803
-0.3204499393273948,-0.3204499393273948
-0.3004130735454632,-0.3004130735454632
-0.3444941782657127,-0.3444941782657127
-0.36052367089125803,-0.36052367089125803
-0.3020160228080177,-0.3020160228080177
-0.24030247619966835,-0.24030247619966835
-0.26274376587543175,-0.26274376587543175
-0.3004130735454632,-0.3004130735454632
-0.2843835809199179,-0.2843835809199179
-0.24030247619966835,-0.24030247619966835
-0.2411039508309456,-0.2411039508309456
-0.24030247619966835,-0.24030247619966835
-0.18900809979792343,-0.18900809979792343
-0.11927980687680143,-0.11927980687680143
-0.10886063667019699,-0.10886063667019699
-0.11927980687680143,-0.11927980687680143
-0.10084589035742435,-0.10084589035742435
-0.0591692095310066,-0.0591692095310066
-0.051955937849511226,-0.051955937849511226
-0.0591692095310066,-0.0591692095310066
-0.061573633424838396,-0.061573633424838396
-0.0591692095310066,-0.0591692095310066
-0.0727942782627201,-0.0727942782627201
-0.0591692095310066,-0.0591692095310066
-0.01989695259842065,-0.01989695259842065
0.0009413878147882254,0.0009413878147882254
-0.03352202133013414,-0.03352202133013414
-0.0591692095310066,-0.0591692095310066
-0.03752939448652046,-0.03752939448652046
0.0009413878147882254,0.0009413878147882254
-0.015088104810757062,-0.015088104810757062
-0.0591692095310066,-0.0591692095310066
-0.08080902457549274,-0.08080902457549274
-0.0591692095310066,-0.0591692095310066
-0.04875003932440217,-0.04875003932440217
-0.0591692095310066,-0.0591692095310066
-0.07199280363144284,-0.07199280363144284
-0.0591692095310066,-0.0591692095310066
-0.06798543047505651,-0.06798543047505651
-0.11927980687680143,-0.11927980687680143
-0.18419925201025986,-0.18419925201025986
-0.17939040422259625,-0.17939040422259625
-0.13050045171468314,-0.13050045171468314
-0.11927980687680143,-0.11927980687680143
-0.18900809979792343,-0.18900809979792343
-0.24030247619966835,-0.24030247619966835
-0.21946413578645949,-0.21946413578645949
-0.17939040422259625,-0.17939040422259625
-0.20583906705474597,-0.20583906705474597
-0.24030247619966835,-0.24030247619966835
-0.20904496557985505,-0.20904496557985505
-0.11927980687680143,-0.11927980687680143
-0.08481639773187906,-0.08481639773187906
-0.11927980687680143,-0.11927980687680143
-0.1946184222168643,-0.1946184222168643
-0.24030247619966835,-0.24030247619966835
-0.24270690009350016,-0.24270690009350016
-0.17939040422259625,-0.17939040422259625
-0.10004441572614708,-0.10004441572614708
-0.0591692095310066,-0.0591692095310066
-0.0727942782627201,-0.0727942782627201
-0.0591692095310066,-0.0591692095310066
-0.008676307760538947,-0.008676307760538947
0.0009413878147882254,0.0009413878147882254
-0.10084589035742435,-0.10084589035742435
-0.24030247619966835,-0.24030247619966835
-0.31644256617100847,-0.31644256617100847
-0.24030247619966835,-0.24030247619966835
0.09872129283061448,0.09872129283061448
0.8448941745497476,0.8448941745497476
1.91646575656745,1.91646575656745
2.9543754040715076,2.9543754040715076
3.548268105847961,3.548268105847961
3.5570843267920105,3.5570843267920105
3.0545597329811653,3.0545597329811653
2.2314452866594148,2.2314452866594148
1.3506246668857014,1.3506246668857014
0.7246729798581579,0.7246729798581579
0.43694358722962007,0.43694358722962007
0.30229584917503965,0.30229584917503965
0.1027286659870008,0.1027286659870008
-0.11927980687680143,-0.11927980687680143
-0.23629510304328202,-0.23629510304328202
-0.24030247619966835,-0.24030247619966835
-0.2531260703001046,-0.2531260703001046
-0.3004130735454632,-0.3004130735454632
-0.3428912290031582,-0.3428912290031582
-0.36052367089125803,-0.36052367089125803
-0.3941856054049031,-0.3941856054049031
-0.42063426823705286,-0.42063426823705286
-0.3949870800361804,-0.3949870800361804
-0.3004130735454632,-0.3004130735454632
-0.22908183136178664,-0.22908183136178664
-0.24030247619966835,-0.24030247619966835
-0.3380823812154946,-0.3380823812154946
-0.42063426823705286,-0.42063426823705286
-0.4462814564379253,-0.4462814564379253
-0.42063426823705286,-0.42063426823705286
-0.4126195219242802,-0.4126195219242802
-0.42063426823705286,-0.42063426823705286
-0.4310534384436573,-0.4310534384436573
-0.42063426823705286,-0.42063426823705286
-0.415023945818112,-0.415023945818112
-0.42063426823705286,-0.42063426823705286
-0.46711979685113414,-0.46711979685113414
-0.5416569375599197,-0.5416569375599197
-0.5953557378554964,-0.5953557378554964
-0.5416569375599197,-0.5416569375599197
-0.4062077248740621,-0.4062077248740621
-0.3004130735454632,-0.3004130735454632
-0.3068248705956813,-0.3068248705956813
-0.36052367089125803,-0.36052367089125803
-0.3989944531925667,-0.3989944531925667
-0.42063426823705286,-0.42063426823705286
-0.4486858803317571,-0.4486858803317571
-0.42063426823705286,-0.42063426823705286
-0.3276632110088902,-0.3276632110088902
-0.24030247619966835,-0.24030247619966835
-0.23068478062434117,-0.23068478062434117
-0.24030247619966835,-0.24030247619966835
-0.22908183136178664,-0.22908183136178664
-0.24030247619966835,-0.24030247619966835
-0.3148396169084539,-0.3148396169084539
-0.36052367089125803,-0.36052367089125803
-0.318045515433563,-0.318045515433563
-0.24030247619966835,-0.24030247619966835
-0.20824349094857778,-0.20824349094857778
-0.17939040422259625,-0.17939040422259625
-0.13130192634596038,-0.13130192634596038
-0.11927980687680143,-0.11927980687680143
-0.18980957442920068,-0.18980957442920068
-0.24030247619966835,-0.24030247619966835
-0.19622137147941882,-0.19622137147941882
-0.11927980687680143,-0.11927980687680143
-0.1264930785582968,-0.1264930785582968
-0.17939040422259625,-0.17939040422259625
-0.18179482811642805,-0.18179482811642805
-0.11927980687680143,-0.11927980687680143
-0.1064562127763652,-0.1064562127763652
-0.17939040422259625,-0.17939040422259625
-0.26114081661287725,-0.26114081661287725
-0.24030247619966835,-0.24030247619966835
-0.15614763991555558,-0.15614763991555558
-0.11927980687680143,-0.11927980687680143
-0.178588929591319,-0.178588929591319
-0.24030247619966835,-0.24030247619966835
-0.24831722251244098,-0.24831722251244098
-0.24030247619966835,-0.24030247619966835
-0.275567359975868,-0.275567359975868
-0.3004130735454632,-0.3004130735454632
-0.27636883460714523,-0.27636883460714523
-0.24030247619966835,-0.24030247619966835
-0.2643467151379863,-0.2643467151379863
-0.3004130735454632,-0.3004130735454632
-0.2899939033388587,-0.2899939033388587
-0.24030247619966835,-0.24030247619966835
-0.2258759328366776,-0.2258759328366776
-0.24030247619966835,-0.24030247619966835
-0.2499201717749955,-0.2499201717749955
-0.24030247619966835,-0.24030247619966835
-0.2411039508309456,-0.2411039508309456
-0.24030247619966835,-0.24030247619966835
-0.24190542546222288,-0.24190542546222288
-0.24030247619966835,-0.24030247619966835
-0.2547290195626591,-0.2547290195626591
-0.24030247619966835,-0.24030247619966835
-0.20664054168602325,-0.20664054168602325
-0.17939040422259625,-0.17939040422259625
-0.20423611779219145,-0.20423611779219145
-0.24030247619966835,-0.24030247619966835
-0.23950100156839108,-0.23950100156839108
-0.17939040422259625,-0.17939040422259625
-0.12328718003318775,-0.12328718003318775
-0.11927980687680143,-0.11927980687680143
-0.17538303106620995,-0.17538303106620995
-0.24030247619966835,-0.24030247619966835
-0.32525878711505835,-0.32525878711505835
-0.42063426823705286,-0.42063426823705286
-0.40300182634895304,-0.40300182634895304
-0.0591692095310066,-0.0591692095310066
0.634106346523827,0.634106346523827
1.5077136946160452,1.5077136946160452
2.3941446368087,2.3941446368087
3.195619268085964,3.195619268085964
3.6123860763501416,3.6123860763501416
3.255729865431759,3.255729865431759
2.1545037220567975,2.1545037220567975
0.9651153692413372,0.9651153692413372
0.29668552675609877,0.29668552675609877
0.12196405713765515,0.12196405713765515
-0.0006615614477663034,-0.0006615614477663034
-0.24030247619966835,-0.24030247619966835
-0.4262445906559937,-0.4262445906559937
-0.42063426823705286,-0.42063426823705286
-0.3509059753159308,-0.3509059753159308
-0.36052367089125803,-0.36052367089125803
-0.45910505053836154,-0.45910505053836154
-0.5416569375599197,-0.5416569375599197
-0.5632967526044059,-0.5632967526044059
-0.5416569375599197,-0.5416569375599197
-0.5328407166158698,-0.5328407166158698
-0.5416569375599197,-0.5416569375599197
-0.5520761077665242,-0.5520761077665242
-0.5416569375599197,-0.5416569375599197
-0.5552820062916333,-0.5552820062916333
-0.6017675349057146,-0.6017675349057146
-0.6610766576202322,-0.6610766576202322
-0.6618781322515094,-0.6618781322515094
-0.6266132484753097,-0.6266132484753097
-0.6017675349057146,-0.6017675349057146
-0.612186705112319,-0.612186705112319
-0.6017675349057146,-0.6017675349057146
-0.5640982272356831,-0.5640982272356831
-0.5416569375599197,-0.5416569375599197
-0.5737159228110104,-0.5737159228110104
-0.6017675349057146,-0.6017675349057146
-0.584936567648892,-0.584936567648892
-0.5416569375599197,-0.5416569375599197
-0.5168112239903245,-0.5168112239903245
-0.4807448655828477,-0.4807448655828477
-0.43345786233748906,-0.43345786233748906
-0.42063426823705286,-0.42063426823705286
-0.48395076410795673,-0.48395076410795673
-0.5416569375599197,-0.5416569375599197
-0.5160097493590473,-0.5160097493590473
-0.42063426823705286,-0.42063426823705286
-0.3589207216287035,-0.3589207216287035
-0.36052367089125803,-0.36052367089125803
-0.39739150393001216,-0.39739150393001216
-0.42063426823705286,-0.42063426823705286
-0.4310534384436573,-0.4310534384436573
-0.42063426823705286,-0.42063426823705286
-0.39739150393001216,-0.39739150393001216
-0.36052367089125803,-0.36052367089125803
-0.33086910953399923,-0.33086910953399923
-0.3004130735454632,-0.3004130735454632
-0.2723614614507589,-0.2723614614507589
-0.24030247619966835,-0.24030247619966835
-0.22988330599306392,-0.22988330599306392
-0.24030247619966835,-0.24030247619966835
-0.2587363927190454,-0.2587363927190454
-0.24030247619966835,-0.24030247619966835
-0.1850007266415371,-0.1850007266415371
-0.11927980687680143,-0.11927980687680143
-0.09603704256976077,-0.09603704256976077
-0.11927980687680143,-0.11927980687680143
-0.17939040422259625,-0.17939040422259625
-0.24030247619966835,-0.24030247619966835
-0.2891924287075815,-0.2891924287075815
-0.3004130735454632,-0.3004130735454632
-0.27877325850097706,-0.27877325850097706
-0.24030247619966835,-0.24030247619966835
-0.22747888209923212,-0.22747888209923212
-0.24030247619966835,-0.24030247619966835
-0.25793491808776814,-0.25793491808776814
-0.24030247619966835,-0.24030247619966835
-0.20423611779219145,-0.20423611779219145
-0.17939040422259625,-0.17939040422259625
-0.2010302192670824,-0.2010302192670824
-0.24030247619966835,-0.24030247619966835
-0.27636883460714523,-0.27636883460714523
-0.3004130735454632,-0.3004130735454632
-0.3509059753159308,-0.3509059753159308
-0.42063426823705286,-0.42063426823705286
-0.4679212714824114,-0.4679212714824114
-0.42063426823705286,-0.42063426823705286
-0.33728090658421733,-0.33728090658421733
-0.3004130735454632,-0.3004130735454632
-0.34128827974060366,-0.34128827974060366
-0.36052367089125803,-0.36052367089125803
-0.34369270363443544,-0.34369270363443544
-0.36052367089125803,-0.36052367089125803
-0.4310534384436573,-0.4310534384436573
-0.42063426823705286,-0.42063426823705286
-0.3068248705956813,-0.3068248705956813
-0.24030247619966835,-0.24030247619966835
-0.3244573124837811,-0.3244573124837811
-0.42063426823705286,-0.42063426823705286
-0.43345786233748906,-0.43345786233748906
-0.42063426823705286,-0.42063426823705286
-0.3637295694163671,-0.3637295694163671
0.0009413878147882254,0.0009413878147882254
0.782379153310121,0.782379153310121
1.7489575586305017,1.7489575586305017
2.6297781784042153,2.6297781784042153
3.376752534754626,3.376752534754626
3.799129665437744,3.799129665437744
3.496973729446216,3.496973729446216
2.401357908490195,2.401357908490195
1.146248635909999,1.146248635909999
0.3992742795595886,0.3992742795595886
0.18207465448344998,0.18207465448344998
0.0666623075795239,0.0666623075795239
-0.11927980687680143,-0.11927980687680143
-0.26194229124415447,-0.26194229124415447
-0.3004130735454632,-0.3004130735454632
-0.3444941782657127,-0.3444941782657127
-0.42063426823705286,-0.42063426823705286
-0.4751345431639068,-0.4751345431639068
-0.4807448655828477,-0.4807448655828477
-0.4863551880017885,-0.4863551880017885
-0.4807448655828477,-0.4807448655828477
-0.45269325348814343,-0.45269325348814343
-0.42063426823705286,-0.42063426823705286
-0.4550976773819752,-0.4550976773819752
-0.5416569375599197,-0.5416569375599197
-0.6193999767938144,-0.6193999767938144
-0.6017675349057146,-0.6017675349057146
-0.5168112239903245,-0.5168112239903245
-0.42063426823705286,-0.42063426823705286
-0.375751688885526,-0.375751688885526
-0.36052367089125803,-0.36052367089125803
-0.3901782322485168,-0.3901782322485168
-0.4807448655828477,-0.4807448655828477
-0.6057749080621009,-0.6057749080621009
-0.6618781322515094,-0.6618781322515094
-0.6506574874136277,-0.6506574874136277
-0.6618781322515094,-0.6618781322515094
-0.7308049505413542,-0.7308049505413542
-0.7219887295973042,-0.7219887295973042
-0.5745173974422876,-0.5745173974422876
-0.42063426823705286,-0.42063426823705286
-0.44547998180664805,-0.44547998180664805
-0.6017675349057146,-0.6017675349057146
-0.7099666101281452,-0.7099666101281452
-0.6618781322515094,-0.6618781322515094
-0.5320392419845926,-0.5320392419845926
-0.42063426823705286,-0.42063426823705286
-0.40460477561150754,-0.40460477561150754
-0.4807448655828477,-0.4807448655828477
-0.6009660602744373,-0.6009660602744373
-0.6618781322515094,-0.6618781322515094
-0.6442456903634096,-0.6442456903634096
-0.6017675349057146,-0.6017675349057146
-0.5993631110118828,-0.5993631110118828
-0.6017675349057146,-0.6017675349057146
-0.5801277198612285,-0.5801277198612285
-0.5416569375599197,-0.5416569375599197
-0.5200171225154336,-0.5200171225154336
-0.4807448655828477,-0.4807448655828477
-0.40460477561150754,-0.40460477561150754
-0.3004130735454632,-0.3004130735454632
-0.2074420163173005,-0.2074420163173005
-0.11927980687680143,-0.11927980687680143
-0.057566260268452074,-0.057566260268452074
-0.0591692095310066,-0.0591692095310066
-0.14813289360278295,-0.14813289360278295
-0.24030247619966835,-0.24030247619966835
-0.2531260703001046,-0.2531260703001046
-0.17939040422259625,-0.17939040422259625
-0.11607390835169237,-0.11607390835169237
-0.11927980687680143,-0.11927980687680143
-0.18339777737898258,-0.18339777737898258
-0.24030247619966835,-0.24030247619966835
-0.275567359975868,-0.275567359975868
-0.3004130735454632,-0.3004130735454632
-0.3388838558467719,-0.3388838558467719
-0.36052367089125803,-0.36052367089125803
-0.3509059753159308,-0.3509059753159308
-0.3004130735454632,-0.3004130735454632
-0.2234715089428458,-0.2234715089428458
-0.11927980687680143,-0.11927980687680143
-0.047147090061847634,-0.047147090061847634
-0.0591692095310066,-0.0591692095310066
-0.14091962192128757,-0.14091962192128757
-0.17939040422259625,-0.17939040422259625
-0.14652994434022842,-0.14652994434022842
-0.11927980687680143,-0.11927980687680143
-0.1761845056974872,-0.1761845056974872
-0.24030247619966835,-0.24030247619966835
-0.23389067914945025,-0.23389067914945025
-0.17939040422259625,-0.17939040422259625
-0.18099335348515078,-0.18099335348515078
-0.24030247619966835,-0.24030247619966835
-0.31243519301462214,-0.31243519301462214
-0.36052367089125803,-0.36052367089125803
-0.3869723337234077,-0.3869723337234077
-0.36052367089125803,-0.36052367089125803
-0.2948027511265223,-0.2948027511265223
-0.24030247619966835,-0.24030247619966835
-0.2531260703001046,-0.2531260703001046
-0.3004130735454632,-0.3004130735454632
-0.3629280947850898,-0.3629280947850898
-0.42063426823705286,-0.42063426823705286
-0.4687227461136887,-0.4687227461136887
-0.42063426823705286,-0.42063426823705286
-0.2771703092384225,-0.2771703092384225
-0.11927980687680143,-0.11927980687680143
-0.05596331100589755,-0.05596331100589755
-0.0591692095310066,-0.0591692095310066
-0.06558100658122472,-0.06558100658122472
-0.0591692095310066,-0.0591692095310066
-0.11447095908913785,-0.11447095908913785
-0.24030247619966835,-0.24030247619966835
-0.37334726499169424,-0.37334726499169424
-0.42063426823705286,-0.42063426823705286
-0.387773808354685,-0.387773808354685
-0.3004130735454632,-0.3004130735454632
-0.12408865466446502,-0.12408865466446502
0.30229584917503965,0.30229584917503965
1.0813291907765405,1.0813291907765405
2.110422617336548,2.110422617336548
3.03853024035562,3.03853024035562
3.496973729446216,3.496973729446216
3.3022153940458407,3.3022153940458407
2.5929103453654614,2.5929103453654614
1.700869080753866,1.700869080753866
0.9651153692413372,0.9651153692413372
0.5034659816256329,0.5034659816256329
0.2421852518292448,0.2421852518292448
0.04502249253503777,0.04502249253503777
-0.11927980687680143,-0.11927980687680143
-0.2547290195626591,-0.2547290195626591
-0.36052367089125803,-0.36052367089125803
-0.4494873549630343,-0.4494873549630343
-0.4807448655828477,-0.4807448655828477
-0.45830357590708426,-0.45830357590708426
-0.42063426823705286,-0.42063426823705286
-0.41582542044938925,-0.41582542044938925
-0.42063426823705286,-0.42063426823705286
-0.45349472811942065,-0.45349472811942065
-0.5416569375599197,-0.5416569375599197
-0.6570692844638458,-0.6570692844638458
-0.6618781322515094,-0.6618781322515094
-0.5408554629286425,-0.5408554629286425
-0.42063426823705286,-0.42063426823705286
-0.44547998180664805,-0.44547998180664805
-0.5416569375599197,-0.5416569375599197
-0.5993631110118828,-0.5993631110118828
-0.6017675349057146,-0.6017675349057146
-0.6258117738440325,-0.6258117738440325
-0.6618781322515094,-0.6618781322515094
-0.6771061502457775,-0.6771061502457775
-0.6618781322515094,-0.6618781322515094
-0.648253063519796,-0.648253063519796
-0.6017675349057146,-0.6017675349057146
-0.5112009015713838,-0.5112009015713838
-0.42063426823705286,-0.42063426823705286
-0.4142224711868347,-0.4142224711868347
-0.4807448655828477,-0.4807448655828477
-0.5632967526044059,-0.5632967526044059
-0.6017675349057146,-0.6017675349057146
-0.6113852304810418,-0.6113852304810418
-0.6017675349057146,-0.6017675349057146
-0.5833336183863375,-0.5833336183863375
-0.5416569375599197,-0.5416569375599197
-0.5031861552586111,-0.5031861552586111
-0.4807448655828477,-0.4807448655828477
-0.47032569537624325,-0.47032569537624325
-0.42063426823705286,-0.42063426823705286
-0.34850155142209904,-0.34850155142209904
-0.3004130735454632,-0.3004130735454632
-0.3044204467018495,-0.3044204467018495
-0.3004130735454632,-0.3004130735454632
-0.26835408829437263,-0.26835408829437263
-0.24030247619966835,-0.24030247619966835
-0.2507216464062728,-0.2507216464062728
-0.24030247619966835,-0.24030247619966835
-0.18179482811642805,-0.18179482811642805
-0.11927980687680143,-0.11927980687680143
-0.11447095908913785,-0.11447095908913785
-0.11927980687680143,-0.11927980687680143
-0.09443409330720623,-0.09443409330720623
-0.0591692095310066,-0.0591692095310066
-0.06237510805611566,-0.06237510805611566
-0.0591692095310066,-0.0591692095310066
-0.026308749648638764,-0.026308749648638764
0.0009413878147882254,0.0009413878147882254
-0.027911698911193293,-0.027911698911193293
-0.0591692095310066,-0.0591692095310066
-0.06077215879356113,-0.06077215879356113
-0.0591692095310066,-0.0591692095310066
-0.09683851720103803,-0.09683851720103803
-0.11927980687680143,-0.11927980687680143
-0.11206653519530604,-0.11206653519530604
-0.11927980687680143,-0.11927980687680143
-0.17057418327854634,-0.17057418327854634
-0.17939040422259625,-0.17939040422259625
-0.1337063502397922,-0.1337063502397922
-0.11927980687680143,-0.11927980687680143
-0.1946184222168643,-0.1946184222168643
-0.24030247619966835,-0.24030247619966835
-0.18660367590409163,-0.18660367590409163
-0.11927980687680143,-0.11927980687680143
-0.1609564877032192,-0.1609564877032192
-0.24030247619966835,-0.24030247619966835
-0.24671427324988646,-0.24671427324988646
-0.17939040422259625,-0.17939040422259625
-0.13931667265873304,-0.13931667265873304
-0.11927980687680143,-0.11927980687680143
-0.09363261867592897,-0.09363261867592897
-0.0591692095310066,-0.0591692095310066
-0.08000754994421548,-0.08000754994421548
-0.11927980687680143,-0.11927980687680143
-0.13931667265873304,-0.13931667265873304
-0.11927980687680143,-0.11927980687680143
-0.11206653519530604,-0.11206653519530604
-0.11927980687680143,-0.11927980687680143
-0.11447095908913785,-0.11447095908913785
-0.0591692095310066,-0.0591692095310066
-0.0030659853415980964,-0.0030659853415980964
0.0009413878147882254,0.0009413878147882254
-0.057566260268452074,-0.057566260268452074
-0.11927980687680143,-0.11927980687680143
-0.18980957442920068,-0.18980957442920068
-0.24030247619966835,-0.24030247619966835
-0.08641934699443359,-0.08641934699443359
0.5435397131894962,0.5435397131894962
1.6078980235257032,1.6078980235257032
2.713131540057051,2.713131540057051
3.4817457114519477,3.4817457114519477
3.858438788152262,3.858438788152262
3.837600447739053,3.837600447739053
3.315840462777554,3.315840462777554
2.3356369887254593,2.3356369887254593
1.3273819025786608,1.3273819025786608
0.6942169438696218,0.6942169438696218
0.4233185184979065,0.4233185184979065
0.2237513353098677,0.2237513353098677
0.0009413878147882254,0.0009413878147882254
-0.1673682847534373,-0.1673682847534373
-0.24030247619966835,-0.24030247619966835
-0.2835821062886406,-0.2835821062886406
-0.3004130735454632,-0.3004130735454632
-0.29159685260141327,-0.29159685260141327
-0.3004130735454632,-0.3004130735454632
-0.3693398918353079,-0.3693398918353079
-0.42063426823705286,-0.42063426823705286
-0.40380330098023026,-0.40380330098023026
-0.36052367089125803,-0.36052367089125803
-0.37895758741063507,-0.37895758741063507
-0.42063426823705286,-0.42063426823705286
-0.43986965938770717,-0.43986965938770717
-0.42063426823705286,-0.42063426823705286
-0.42063426823705286,-0.42063426823705286
-0.42063426823705286,-0.42063426823705286
-0.418229844343221,-0.418229844343221
-0.42063426823705286,-0.42063426823705286
-0.472730119270075,-0.472730119270075
-0.5416569375599197,-0.5416569375599197
-0.5737159228110104,-0.5737159228110104
-0.5416569375599197,-0.5416569375599197
-0.51520827472777,-0.51520827472777
-0.5416569375599197,-0.5416569375599197
-0.5993631110118828,-0.5993631110118828
-0.6017675349057146,-0.6017675349057146
-0.5592893794480196,-0.5592893794480196
-0.5416569375599197,-0.5416569375599197
-0.584936567648892,-0.584936567648892
-0.6017675349057146,-0.6017675349057146
-0.5496716838726924,-0.5496716838726924
-0.4807448655828477,-0.4807448655828477
-0.4743330685326295,-0.4743330685326295
-0.4807448655828477,-0.4807448655828477
-0.4550976773819752,-0.4550976773819752
-0.42063426823705286,-0.42063426823705286
-0.4446785071753708,-0.4446785071753708
-0.4807448655828477,-0.4807448655828477
-0.4735315939013523,-0.4735315939013523
-0.42063426823705286,-0.42063426823705286
-0.3853693844608532,-0.3853693844608532
-0.36052367089125803,-0.36052367089125803
-0.333273533427831,-0.333273533427831
-0.3004130735454632,-0.3004130735454632
-0.2819791570260861,-0.2819791570260861
-0.24030247619966835,-0.24030247619966835
-0.1737800818036554,-0.1737800818036554
-0.11927980687680143,-0.11927980687680143
-0.11687538298296964,-0.11687538298296964
-0.11927980687680143,-0.11927980687680143
-0.09523556793848349,-0.09523556793848349
-0.0591692095310066,-0.0591692095310066
-0.05596331100589755,-0.05596331100589755
-0.0591692095310066,-0.0591692095310066
-0.05836773489972934,-0.05836773489972934
-0.0591692095310066,-0.0591692095310066
-0.07600017678782915,-0.07600017678782915
-0.0591692095310066,-0.0591692095310066
-0.01669105407331159,-0.01669105407331159
0.0009413878147882254,0.0009413878147882254
-0.039132343749074996,-0.039132343749074996
-0.0591692095310066,-0.0591692095310066
-0.028713173542470556,-0.028713173542470556
0.0009413878147882254,0.0009413878147882254
-0.03111759743630235,-0.03111759743630235
-0.0591692095310066,-0.0591692095310066
-0.0367279198552432,-0.0367279198552432
0.0009413878147882254,0.0009413878147882254
-0.020698427229697912,-0.020698427229697912
-0.0591692095310066,-0.0591692095310066
-0.06878690510633377,-0.06878690510633377
-0.0591692095310066,-0.0591692095310066
-0.08802229625698813,-0.08802229625698813
-0.11927980687680143,-0.11927980687680143
-0.10886063667019699,-0.10886063667019699
-0.0591692095310066,-0.0591692095310066
-0.041536767642906786,-0.041536767642906786
-0.0591692095310066,-0.0591692095310066
-0.07760312605038368,-0.07760312605038368
-0.0591692095310066,-0.0591692095310066
-0.04394119153673858,-0.04394119153673858
-0.0591692095310066,-0.0591692095310066
-0.10405178888253341,-0.10405178888253341
-0.11927980687680143,-0.11927980687680143
-0.0976399918323153,-0.0976399918323153
-0.0591692095310066,-0.0591692095310066
-0.051955937849511226,-0.051955937849511226
-0.0591692095310066,-0.0591692095310066
-0.06558100658122472,-0.06558100658122472
-0.0591692095310066,-0.0591692095310066
-0.061573633424838396,-0.061573633424838396
-0.0591692095310066,-0.0591692095310066
-0.0591692095310066,-0.0591692095310066
-0.0591692095310066,-0.0591692095310066
-0.0703898543688883,-0.0703898543688883
-0.0591692095310066,-0.0591692095310066
-0.028713173542470556,-0.028713173542470556
0.0009413878147882254,0.0009413878147882254
0.00013991318351096104,0.00013991318351096104
0.0009413878147882254,0.0009413878147882254
0.002544337077342754,0.002544337077342754
0.0009413878147882254,0.0009413878147882254
-0.035124970592688674,-0.035124970592688674
-0.0591692095310066,-0.0591692095310066
-0.06397805731867019,-0.06397805731867019
-0.0591692095310066,-0.0591692095310066
-0.08882377088826539,-0.08882377088826539
-0.11927980687680143,-0.11927980687680143
-0.11527243372041511,-0.11527243372041511
-0.0591692095310066,-0.0591692095310066
-0.009477782391816212,-0.009477782391816212
0.0009413878147882254,0.0009413878147882254
-0.04394119153673858,-0.04394119153673858
-0.11927980687680143,-0.11927980687680143
-0.21064791484240958,-0.21064791484240958
-0.24030247619966835,-0.24030247619966835
-0.07920607531293822,-0.07920607531293822
0.4233185184979065,0.4233185184979065
1.2720801530205295,1.2720801530205295
2.2915558840052097,2.2915558840052097
3.1635602828348732,3.1635602828348732
3.6171949241378054,3.6171949241378054
3.5089958489153745,3.5089958489153745
2.8942648067257126,2.8942648067257126
1.979782252438354,1.979782252438354
1.086138038564204,1.086138038564204
0.4625907754304925,0.4625907754304925
0.18207465448344998,0.18207465448344998
0.08910359725528731,0.08910359725528731
0.0009413878147882254,0.0009413878147882254
-0.15694911454683286,-0.15694911454683286
-0.3004130735454632,-0.3004130735454632
-0.3629280947850898,-0.3629280947850898
-0.36052367089125803,-0.36052367089125803
-0.3941856054049031,-0.3941856054049031
-0.4807448655828477,-0.4807448655828477
-0.5560834809229105,-0.5560834809229105
-0.5416569375599197,-0.5416569375599197
-0.4887596118956203,-0.4887596118956203
-0.4807448655828477,-0.4807448655828477
-0.5328407166158698,-0.5328407166158698
-0.5416569375599197,-0.5416569375599197
-0.5015832059960565,-0.5015832059960565
-0.4807448655828477,-0.4807448655828477
-0.5312377673533153,-0.5312377673533153
-0.5416569375599197,-0.5416569375599197
-0.4759360177951841,-0.4759360177951841
-0.42063426823705286,-0.42063426823705286
-0.4735315939013523,-0.4735315939013523
-0.5416569375599197,-0.5416569375599197
-0.51520827472777,-0.51520827472777
-0.42063426823705286,-0.42063426823705286
-0.3869723337234077,-0.3869723337234077
-0.42063426823705286,-0.42063426823705286
-0.46471537295730236,-0.46471537295730236
-0.4807448655828477,-0.4807448655828477
-0.4927669850520066,-0.4927669850520066
-0.4807448655828477,-0.4807448655828477
-0.4478844057004798,-0.4478844057004798
-0.42063426823705286,-0.42063426823705286
-0.42704606528727096,-0.42704606528727096
-0.42063426823705286,-0.42063426823705286
-0.40300182634895304,-0.40300182634895304
-0.42063426823705286,-0.42063426823705286
-0.4983773074709475,-0.4983773074709475
-0.5416569375599197,-0.5416569375599197
-0.4983773074709475,-0.4983773074709475
-0.42063426823705286,-0.42063426823705286
-0.40220035171767576,-0.40220035171767576
-0.42063426823705286,-0.42063426823705286
-0.44708293106920255,-0.44708293106920255
-0.4807448655828477,-0.4807448655828477
-0.536046615140979,-0.536046615140979
-0.5416569375599197,-0.5416569375599197
-0.4823478148454022,-0.4823478148454022
-0.42063426823705286,-0.42063426823705286
-0.4214357428683301,-0.4214357428683301
-0.42063426823705286,-0.42063426823705286
-0.3693398918353079,-0.3693398918353079
-0.3004130735454632,-0.3004130735454632
-0.2891924287075815,-0.2891924287075815
-0.3004130735454632,-0.3004130735454632
-0.2835821062886406,-0.2835821062886406
-0.24030247619966835,-0.24030247619966835
-0.23148625525561844,-0.23148625525561844
-0.24030247619966835,-0.24030247619966835
-0.21064791484240958,-0.21064791484240958
-0.11927980687680143,-0.11927980687680143
-0.05035298858695669,-0.05035298858695669
-0.0591692095310066,-0.0591692095310066
-0.11847833224552416,-0.11847833224552416
-0.11927980687680143,-0.11927980687680143
-0.05596331100589755,-0.05596331100589755
0.0009413878147882254,0.0009413878147882254
-0.002264510710320832,-0.002264510710320832
0.0009413878147882254,0.0009413878147882254
0.03861069548481965,0.03861069548481965
0.06105198516058305,0.06105198516058305
0.022581202859274365,0.022581202859274365
0.0009413878147882254,0.0009413878147882254
0.033801847697156065,0.033801847697156065
0.06105198516058305,0.06105198516058305
0.023382677490551628,0.023382677490551628
0.0009413878147882254,0.0009413878147882254
0.037007746222265124,0.037007746222265124
0.06105198516058305,0.06105198516058305
-0.0014630360790435677,-0.0014630360790435677
-0.0591692095310066,-0.0591692095310066
-0.04073529301162952,-0.04073529301162952
0.0009413878147882254,0.0009413878147882254
-0.025507275017361497,-0.025507275017361497
-0.0591692095310066,-0.0591692095310066
-0.03752939448652046,-0.03752939448652046
0.0009413878147882254,0.0009413878147882254
-0.02390432575480697,-0.02390432575480697
-0.0591692095310066,-0.0591692095310066
-0.06077215879356113,-0.06077215879356113
-0.0591692095310066,-0.0591692095310066
-0.10485326351381068,-0.10485326351381068
-0.11927980687680143,-0.11927980687680143
-0.06237510805611566,-0.06237510805611566
0.0009413878147882254,0.0009413878147882254
-0.017492528704588856,-0.017492528704588856
-0.0591692095310066,-0.0591692095310066
-0.06638248121250198,-0.06638248121250198
-0.0591692095310066,-0.0591692095310066
-0.09523556793848349,-0.09523556793848349
-0.11927980687680143,-0.11927980687680143
-0.09443409330720623,-0.09443409330720623
-0.0591692095310066,-0.0591692095310066
-0.08561787236315632,-0.08561787236315632
-0.11927980687680143,-0.11927980687680143
-0.10485326351381068,-0.10485326351381068
-0.0591692095310066,-0.0591692095310066
-0.06878690510633377,-0.06878690510633377
-0.11927980687680143,-0.11927980687680143
-0.15053731749661475,-0.15053731749661475
-0.11927980687680143,-0.11927980687680143
-0.07760312605038368,-0.07760312605038368
-0.0591692095310066,-0.0591692095310066
-0.06638248121250198,-0.06638248121250198
-0.0591692095310066,-0.0591692095310066
-0.051955937849511226,-0.051955937849511226
-0.0591692095310066,-0.0591692095310066
-0.07920607531293822,-0.07920607531293822
-0.0591692095310066,-0.0591692095310066
-0.015889579442034327,-0.015889579442034327
0.0009413878147882254,0.0009413878147882254
-0.038330869117797726,-0.038330869117797726
-0.0591692095310066,-0.0591692095310066
-0.03111759743630235,-0.03111759743630235
0.0009413878147882254,0.0009413878147882254
-0.026308749648638764,-0.026308749648638764
-0.0591692095310066,-0.0591692095310066
-0.04554414079929311,-0.04554414079929311
0.0009413878147882254,0.0009413878147882254
0.012162032652669926,0.012162032652669926
0.0009413878147882254,0.0009413878147882254
-0.00547040923542989,-0.00547040923542989
0.0009413878147882254,0.0009413878147882254
-0.006271883866707154,-0.006271883866707154
0.0009413878147882254,0.0009413878147882254
0.012963507283947191,0.012963507283947191
0.0009413878147882254,0.0009413878147882254
-0.047948564693124904,-0.047948564693124904
-0.0591692095310066,-0.0591692095310066
-0.023102851123529704,-0.023102851123529704
0.0009413878147882254,0.0009413878147882254
-0.0367279198552432,-0.0367279198552432
-0.0591692095310066,-0.0591692095310066
-0.02951464817374782,-0.02951464817374782
0.0009413878147882254,0.0009413878147882254
-0.03111759743630235,-0.03111759743630235
-0.0591692095310066,-0.0591692095310066
-0.035124970592688674,-0.035124970592688674
0.0009413878147882254,0.0009413878147882254
-0.024705800386084234,-0.024705800386084234
-0.0591692095310066,-0.0591692095310066
-0.044742666168015845,-0.044742666168015845
0.0009413878147882254,0.0009413878147882254
-0.009477782391816212,-0.009477782391816212
-0.0591692095310066,-0.0591692095310066
-0.08722082162571086,-0.08722082162571086
-0.0591692095310066,-0.0591692095310066
-0.03993381838035226,-0.03993381838035226
-0.0591692095310066,-0.0591692095310066
-0.10565473814508794,-0.10565473814508794
-0.11927980687680143,-0.11927980687680143
-0.0976399918323153,-0.0976399918323153
-0.0591692095310066,-0.0591692095310066
-0.05035298858695669,-0.05035298858695669
-0.0591692095310066,-0.0591692095310066
-0.07199280363144284,-0.07199280363144284
-0.0591692095310066,-0.0591692095310066
-0.034323495961411404,-0.034323495961411404
0.0009413878147882254,0.0009413878147882254
0.014566456546501719,0.014566456546501719
0.0009413878147882254,0.0009413878147882254
-0.039132343749074996,-0.039132343749074996
-0.0591692095310066,-0.0591692095310066
-0.06077215879356113,-0.06077215879356113
-0.0591692095310066,-0.0591692095310066
-0.0727942782627201,-0.0727942782627201
-0.0591692095310066,-0.0591692095310066
-0.024705800386084234,-0.024705800386084234
0.0009413878147882254,0.0009413878147882254
-0.010279257023093475,-0.010279257023093475
0.0009413878147882254,0.0009413878147882254
0.03620627159098786,0.03620627159098786
0.06105198516058305,0.06105198516058305
0.02578710138438342,0.02578710138438342
0.0009413878147882254,0.0009413878147882254
0.02017677896544257,0.02017677896544257
0.06105198516058305,0.06105198516058305
0.06345640905441485,0.06345640905441485
0.06105198516058305,0.06105198516058305
0.08589769873017825,0.08589769873017825
0.12196405713765515,0.12196405713765515
0.10593456451210986,0.10593456451210986
0.06105198516058305,0.06105198516058305
0.02418415212182889,0.02418415212182889
0.0009413878147882254,0.0009413878147882254
-0.051955937849511226,-0.051955937849511226
-0.0591692095310066,-0.0591692095310066
0.17646433206450912,0.17646433206450912
0.8448941745497476,0.8448941745497476
1.8611640070093187,1.8611640070093187
2.8942648067257126,2.8942648067257126
3.573113819417556,3.573113819417556
3.7382175934606723,3.7382175934606723
3.393583502011449,3.393583502011449
2.653020942711256,2.653020942711256
1.7048764539102523,1.7048764539102523
0.8448941745497476,0.8448941745497476
0.29107520433715794,0.29107520433715794
0.06105198516058305,0.06105198516058305
-0.027110224279916027,-0.027110224279916027
-0.11927980687680143,-0.11927980687680143
-0.25152312103755003,-0.25152312103755003
-0.36052367089125803,-0.36052367089125803
-0.41582542044938925,-0.41582542044938925
-0.42063426823705286,-0.42063426823705286
-0.43586228623132084,-0.43586228623132084
-0.4807448655828477,-0.4807448655828477
-0.5368480897722562,-0.5368480897722562
-0.5416569375599197,-0.5416569375599197
-0.5063920537837201,-0.5063920537837201
-0.4807448655828477,-0.4807448655828477
-0.5087964776775519,-0.5087964776775519
-0.5416569375599197,-0.5416569375599197
-0.5705100242859013,-0.5705100242859013
-0.6017675349057146,-0.6017675349057146
-0.6554663352012913,-0.6554663352012913
-0.6618781322515094,-0.6618781322515094
-0.60898080658721,-0.60898080658721
-0.5416569375599197,-0.5416569375599197
-0.5288333434594835,-0.5288333434594835
-0.5416569375599197,-0.5416569375599197
-0.5456643107163061,-0.5456643107163061
-0.5416569375599197,-0.5416569375599197
-0.5512746331352469,-0.5512746331352469
-0.5416569375599197,-0.5416569375599197
-0.5224215464092654,-0.5224215464092654
-0.5416569375599197,-0.5416569375599197
-0.6033704841682691,-0.6033704841682691
-0.6017675349057146,-0.6017675349057146
-0.5071935284149974,-0.5071935284149974
-0.42063426823705286,-0.42063426823705286
-0.45269325348814343,-0.45269325348814343
-0.5416569375599197,-0.5416569375599197
-0.5961572124867738,-0.5961572124867738
-0.6017675349057146,-0.6017675349057146
-0.5945542632242192,-0.5945542632242192
-0.5416569375599197,-0.5416569375599197
-0.45429620275069793,-0.45429620275069793
-0.42063426823705286,-0.42063426823705286
-0.5200171225154336,-0.5200171225154336
-0.6618781322515094,-0.6618781322515094
-0.736415272960295,-0.736415272960295
-0.7219887295973042,-0.7219887295973042
-0.6923341682400455,-0.6923341682400455
-0.6618781322515094,-0.6618781322515094
-0.6442456903634096,-0.6442456903634096
-0.6618781322515094,-0.6618781322515094
-0.7340108490664632,-0.7340108490664632
-0.782099326943099,-0.782099326943099
-0.7524447655858403,-0.7524447655858403
-0.6618781322515094,-0.6618781322515094
-0.5897454154365556,-0.5897454154365556
-0.5416569375599197,-0.5416569375599197
-0.4927669850520066,-0.4927669850520066
-0.42063426823705286,-0.42063426823705286
-0.3573177723661489,-0.3573177723661489
-0.3004130735454632,-0.3004130735454632
-0.2459127986186092,-0.2459127986186092
-0.17939040422259625,-0.17939040422259625
-0.13450782487106946,-0.13450782487106946
-0.11927980687680143,-0.11927980687680143
-0.13050045171468314,-0.13050045171468314
-0.11927980687680143,-0.11927980687680143
-0.08882377088826539,-0.08882377088826539
-0.0591692095310066,-0.0591692095310066
-0.05836773489972934,-0.05836773489972934
-0.0591692095310066,-0.0591692095310066
-0.057566260268452074,-0.057566260268452074
-0.0591692095310066,-0.0591692095310066
-0.07439722752527463,-0.07439722752527463
-0.0591692095310066,-0.0591692095310066
-0.02149990186097518,-0.02149990186097518
0.0009413878147882254,0.0009413878147882254
-0.011882206285648005,-0.011882206285648005
0.0009413878147882254,0.0009413878147882254
0.0442210179037605,0.0442210179037605
0.06105198516058305,0.06105198516058305
0.016169405809056247,0.016169405809056247
0.0009413878147882254,0.0009413878147882254
0.059449035898028524,0.059449035898028524
0.12196405713765515,0.12196405713765515
0.08589769873017825,0.08589769873017825
0.0009413878147882254,0.0009413878147882254
-0.05355888711206575,-0.05355888711206575
-0.0591692095310066,-0.0591692095310066
-0.07119132900016557,-0.07119132900016557
-0.0591692095310066,-0.0591692095310066
-0.027110224279916027,-0.027110224279916027
0.0009413878147882254,0.0009413878147882254
-0.009477782391816212,-0.009477782391816212
0.0009413878147882254,0.0009413878147882254
0.023382677490551628,0.023382677490551628
0.0009413878147882254,0.0009413878147882254
-0.0703898543688883,-0.0703898543688883
-0.0591692095310066,-0.0591692095310066
0.03620627159098786,0.03620627159098786
0.06105198516058305,0.06105198516058305
-0.08161049920677,-0.08161049920677
-0.24030247619966835,-0.24030247619966835
-0.28598653018247244,-0.28598653018247244
-0.24030247619966835,-0.24030247619966835
-0.08561787236315632,-0.08561787236315632
0.4233185184979065,0.4233185184979065
1.4083308403376644,1.4083308403376644
2.5929103453654614,2.5929103453654614
3.4649147441951254,3.4649147441951254
3.7382175934606723,3.7382175934606723
3.3927820273801714,3.3927820273801714
2.5929103453654614,2.5929103453654614
1.616714244469753,1.616714244469753
0.8448941745497476,0.8448941745497476
0.45217160522388805,0.45217160522388805
0.30229584917503965,0.30229584917503965
0.14440534681341854,0.14440534681341854
-0.0591692095310066,-0.0591692095310066
-0.22026561041773673,-0.22026561041773673
-0.3004130735454632,-0.3004130735454632
-0.3645310440476443,-0.3645310440476443
-0.42063426823705286,-0.42063426823705286
-0.4430755579128162,-0.4430755579128162
-0.42063426823705286,-0.42063426823705286
-0.40941362339917114,-0.40941362339917114
-0.42063426823705286,-0.42063426823705286
-0.43826671012515267,-0.43826671012515267
-0.42063426823705286,-0.42063426823705286
-0.39097970687979405,-0.39097970687979405
-0.36052367089125803,-0.36052367089125803
-0.3444941782657127,-0.3444941782657127
-0.3004130735454632,-0.3004130735454632
-0.25633196882521364,-0.25633196882521364
-0.24030247619966835,-0.24030247619966835
-0.27476588534459073,-0.27476588534459073
-0.3004130735454632,-0.3004130735454632
-0.29881012428290865,-0.29881012428290865
-0.3004130735454632,-0.3004130735454632
-0.3557148231035944,-0.3557148231035944
-0.42063426823705286,-0.42063426823705286
-0.44708293106920255,-0.44708293106920255
-0.42063426823705286,-0.42063426823705286
-0.39097970687979405,-0.39097970687979405
-0.36052367089125803,-0.36052367089125803
-0.33086910953399923,-0.33086910953399923
-0.3004130735454632,-0.3004130735454632
-0.2956042257577996,-0.2956042257577996
-0.3004130735454632,-0.3004130735454632
-0.30522192133312676,-0.30522192133312676
-0.3004130735454632,-0.3004130735454632
-0.3044204467018495,-0.3044204467018495
-0.3004130735454632,-0.3004130735454632
-0.2835821062886406,-0.2835821062886406
-0.24030247619966835,-0.24030247619966835
-0.18419925201025986,-0.18419925201025986
-0.11927980687680143,-0.11927980687680143
-0.09042672015081991,-0.09042672015081991
-0.11927980687680143,-0.11927980687680143
-0.19541989684814154,-0.19541989684814154
-0.24030247619966835,-0.24030247619966835
-0.22747888209923212,-0.22747888209923212
-0.17939040422259625,-0.17939040422259625
-0.14652994434022842,-0.14652994434022842
-0.11927980687680143,-0.11927980687680143
-0.10485326351381068,-0.10485326351381068
-0.11927980687680143,-0.11927980687680143
-0.18339777737898258,-0.18339777737898258
-0.24030247619966835,-0.24030247619966835
-0.25553049419393636,-0.25553049419393636
-0.24030247619966835,-0.24030247619966835
-0.2571334434564909,-0.2571334434564909
-0.3004130735454632,-0.3004130735454632
-0.32846468564016745,-0.32846468564016745
-0.3004130735454632,-0.3004130735454632
-0.25633196882521364,-0.25633196882521364
-0.24030247619966835,-0.24030247619966835
-0.2707585121882044,-0.2707585121882044
-0.3004130735454632,-0.3004130735454632
-0.31003076912079036,-0.31003076912079036
-0.3004130735454632,-0.3004130735454632
-0.3004130735454632,-0.3004130735454632
-0.3004130735454632,-0.3004130735454632
-0.31724404080228574,-0.31724404080228574
-0.36052367089125803,-0.36052367089125803
-0.418229844343221,-0.418229844343221
-0.42063426823705286,-0.42063426823705286
-0.3645310440476443,-0.3645310440476443
-0.3004130735454632,-0.3004130735454632
-0.27636883460714523,-0.27636883460714523
-0.24030247619966835,-0.24030247619966835
-0.17137565790982362,-0.17137565790982362
-0.11927980687680143,-0.11927980687680143
-0.15935353844066466,-0.15935353844066466
-0.24030247619966835,-0.24030247619966835
-0.2779717838696998,-0.2779717838696998
-0.24030247619966835,-0.24030247619966835
-0.193816947585587,-0.193816947585587
-0.17939040422259625,-0.17939040422259625
-0.20664054168602325,-0.20664054168602325
-0.24030247619966835,-0.24030247619966835
-0.2595378673503227,-0.2595378673503227
-0.24030247619966835,-0.24030247619966835
-0.22186855968029126,-0.22186855968029126
-0.24030247619966835,-0.24030247619966835
-0.29159685260141327,-0.29159685260141327
-0.3004130735454632,-0.3004130735454632
-0.2651481897692635,-0.2651481897692635
-0.24030247619966835,-0.24030247619966835
-0.25633196882521364,-0.25633196882521364
-0.24030247619966835,-0.24030247619966835
-0.17057418327854634,-0.17057418327854634
-0.11927980687680143,-0.11927980687680143
-0.16416238622832824,-0.16416238622832824
-0.24030247619966835,-0.24030247619966835
-0.2667511390318181,-0.2667511390318181
-0.24030247619966835,-0.24030247619966835
-0.23308920451817297,-0.23308920451817297
-0.24030247619966835,-0.24030247619966835
-0.2258759328366776,-0.2258759328366776
-0.17939040422259625,-0.17939040422259625
-0.18099335348515078,-0.18099335348515078
-0.24030247619966835,-0.24030247619966835
-0.31243519301462214,-0.31243519301462214
-0.3004130735454632,-0.3004130735454632
-0.23308920451817297,-0.23308920451817297
-0.17939040422259625,-0.17939040422259625
-0.19782432074197334,-0.19782432074197334
-0.24030247619966835,-0.24030247619966835
-0.275567359975868,-0.275567359975868
-0.3004130735454632,-0.3004130735454632
-0.34128827974060366,-0.34128827974060366
-0.36052367089125803,-0.36052367089125803
-0.33728090658421733,-0.33728090658421733
-0.3004130735454632,-0.3004130735454632
-0.33728090658421733,-0.33728090658421733
-0.42063426823705286,-0.42063426823705286
-0.3741487396229715,-0.3741487396229715
0.0009413878147882254,0.0009413878147882254
0.6813933497691856,0.6813933497691856
1.5077136946160452,1.5077136946160452
2.368497448607827,2.368497448607827
3.195619268085964,3.195619268085964
3.673298148327214,3.673298148327214
3.376752534754626,3.376752534754626
2.285945561586269,2.285945561586269
1.0260274412184094,1.0260274412184094
0.23817787867285847,0.23817787867285847
0.0009413878147882254,0.0009413878147882254
-0.06477953194994746,-0.06477953194994746
-0.17939040422259625,-0.17939040422259625
-0.28598653018247244,-0.28598653018247244
-0.3004130735454632,-0.3004130735454632
-0.318045515433563,-0.318045515433563
-0.42063426823705286,-0.42063426823705286
-0.5753188720735648,-0.5753188720735648
-0.6618781322515094,-0.6618781322515094
-0.6370324186819142,-0.6370324186819142
-0.5416569375599197,-0.5416569375599197
-0.47673749242646135,-0.47673749242646135
-0.4807448655828477,-0.4807448655828477
-0.5264289195656517,-0.5264289195656517
-0.5416569375599197,-0.5416569375599197
-0.5376495644035334,-0.5376495644035334
-0.5416569375599197,-0.5416569375599197
-0.5777232959673967,-0.5777232959673967
-0.6017675349057146,-0.6017675349057146
-0.624208824581478,-0.624208824581478
-0.6618781322515094,-0.6618781322515094
-0.7203857803347498,-0.7203857803347498
-0.7219887295973042,-0.7219887295973042
-0.6282161977378643,-0.6282161977378643
-0.4807448655828477,-0.4807448655828477
-0.4013988770863985,-0.4013988770863985
-0.42063426823705286,-0.42063426823705286
-0.49436993431456117,-0.49436993431456117
-0.5416569375599197,-0.5416569375599197
-0.5520761077665242,-0.5520761077665242
-0.5416569375599197,-0.5416569375599197
-0.5416569375599197,-0.5416569375599197
-0.5416569375599197,-0.5416569375599197
-0.5248259703030972,-0.5248259703030972
-0.4807448655828477,-0.4807448655828477
-0.4735315939013523,-0.4735315939013523
-0.5416569375599197,-0.5416569375599197
-0.6418412664695778,-0.6418412664695778
-0.6618781322515094,-0.6618781322515094
-0.6185985021625371,-0.6185985021625371
-0.6017675349057146,-0.6017675349057146
-0.6049734334308237,-0.6049734334308237
-0.4807448655828477,-0.4807448655828477
-0.2459127986186092,-0.2459127986186092
-0.11927980687680143,-0.11927980687680143
-0.23950100156839108,-0.23950100156839108
-0.42063426823705286,-0.42063426823705286
-0.46952422074496597,-0.46952422074496597
-0.42063426823705286,-0.42063426823705286
-0.4190313189744983,-0.4190313189744983
-0.42063426823705286,-0.42063426823705286
-0.3444941782657127,-0.3444941782657127
-0.24030247619966835,-0.24030247619966835
-0.2234715089428458,-0.2234715089428458
-0.24030247619966835,-0.24030247619966835
-0.19541989684814154,-0.19541989684814154
-0.11927980687680143,-0.11927980687680143
-0.1401181472900103,-0.1401181472900103
-0.24030247619966835,-0.24030247619966835
-0.2972071750203541,-0.2972071750203541
-0.24030247619966835,-0.24030247619966835
-0.1649638608596055,-0.1649638608596055
-0.17939040422259625,-0.17939040422259625
-0.3012145481767404,-0.3012145481767404
-0.42063426823705286,-0.42063426823705286
-0.4623109490634706,-0.4623109490634706
-0.42063426823705286,-0.42063426823705286
-0.36052367089125803,-0.36052367089125803
-0.3004130735454632,-0.3004130735454632
-0.2595378673503227,-0.2595378673503227
-0.24030247619966835,-0.24030247619966835
-0.24751574788116373,-0.24751574788116373
-0.24030247619966835,-0.24030247619966835
-0.22747888209923212,-0.22747888209923212
-0.24030247619966835,-0.24030247619966835
-0.2891924287075815,-0.2891924287075815
-0.3004130735454632,-0.3004130735454632
-0.2643467151379863,-0.2643467151379863
-0.24030247619966835,-0.24030247619966835
-0.2779717838696998,-0.2779717838696998
-0.3004130735454632,-0.3004130735454632
-0.26835408829437263,-0.26835408829437263
-0.24030247619966835,-0.24030247619966835
-0.29400127649524505,-0.29400127649524505
-0.36052367089125803,-0.36052367089125803
-0.34529565289699,-0.34529565289699
-0.24030247619966835,-0.24030247619966835
-0.13050045171468314,-0.13050045171468314
-0.0591692095310066,-0.0591692095310066
-0.05516183637462028,-0.05516183637462028
-0.11927980687680143,-0.11927980687680143
-0.21465528799879588,-0.21465528799879588
-0.24030247619966835,-0.24030247619966835
-0.19702284611069606,-0.19702284611069606
-0.17939040422259625,-0.17939040422259625
-0.2531260703001046,-0.2531260703001046
-0.3004130735454632,-0.3004130735454632
-0.20423611779219145,-0.20423611779219145
0.0009413878147882254,0.0009413878147882254
0.13719207513192316,0.13719207513192316
0.12196405713765515,0.12196405713765515
-0.0006615614477663034,-0.0006615614477663034
-0.11927980687680143,-0.11927980687680143
-0.21946413578645949,-0.21946413578645949
-0.3004130735454632,-0.3004130735454632
-0.36693546794147613,-0.36693546794147613
-0.36052367089125803,-0.36052367089125803
-0.2972071750203541,-0.2972071750203541
-0.24030247619966835,-0.24030247619966835
-0.26194229124415447,-0.26194229124415447
-0.3004130735454632,-0.3004130735454632
-0.24831722251244098,-0.24831722251244098
-0.0591692095310066,-0.0591692095310066
0.12597143029404145,0.12597143029404145
0.12196405713765515,0.12196405713765515
-0.15214026675916928,-0.15214026675916928
-0.5416569375599197,-0.5416569375599197
-0.7812978523118218,-0.7812978523118218
-0.6618781322515094,-0.6618781322515094
-0.19702284611069606,-0.19702284611069606
0.48342911584370135,0.48342911584370135
1.2776904754394705,1.2776904754394705
2.1713346893136203,2.1713346893136203
3.011280102892193,3.011280102892193
3.496973729446216,3.496973729446216
3.360723042129081,3.360723042129081
2.653020942711256,2.653020942711256
1.667207146240221,1.667207146240221
0.7847835772039528,0.7847835772039528
0.28546488191821706,0.28546488191821706
0.2421852518292448,0.2421852518292448
0.3752300406212707,0.3752300406212707
0.30229584917503965,0.30229584917503965
-0.0703898543688883,-0.0703898543688883
-0.42063426823705286,-0.42063426823705286
-0.4983773074709475,-0.4983773074709475
-0.42063426823705286,-0.42063426823705286
-0.457502101275807,-0.457502101275807
-0.6017675349057146,-0.6017675349057146
-0.6730987770893911,-0.6730987770893911
-0.6017675349057146,-0.6017675349057146
-0.4975758328396702,-0.4975758328396702
-0.42063426823705286,-0.42063426823705286
-0.37495021425424874,-0.37495021425424874
-0.36052367089125803,-0.36052367089125803
-0.4326563877062118,-0.4326563877062118
-0.5416569375599197,-0.5416569375599197
-0.6057749080621009,-0.6057749080621009
-0.5416569375599197,-0.5416569375599197
-0.39097970687979405,-0.39097970687979405
-0.24030247619966835,-0.24030247619966835
-0.20022874463580514,-0.20022874463580514
-0.3004130735454632,-0.3004130735454632
-0.49597288357711566,-0.49597288357711566
-0.6618781322515094,-0.6618781322515094
-0.7227902042285815,-0.7227902042285815
-0.6618781322515094,-0.6618781322515094
-0.5440613614537515,-0.5440613614537515
-0.42063426823705286,-0.42063426823705286
-0.33647943195294006,-0.33647943195294006
-0.3004130735454632,-0.3004130735454632
-0.3517074499472081,-0.3517074499472081
-0.4807448655828477,-0.4807448655828477
-0.6097822812184872,-0.6097822812184872
-0.6017675349057146,-0.6017675349057146
-0.4558991520132525,-0.4558991520132525
-0.3004130735454632,-0.3004130735454632
-0.2779717838696998,-0.2779717838696998
-0.36052367089125803,-0.36052367089125803
-0.43986965938770717,-0.43986965938770717
-0.42063426823705286,-0.42063426823705286
-0.3020160228080177,-0.3020160228080177
-0.11927980687680143,-0.11927980687680143
-0.0014630360790435677,-0.0014630360790435677
-0.0591692095310066,-0.0591692095310066
-0.26755261366309535,-0.26755261366309535
-0.42063426823705286,-0.42063426823705286
-0.4013988770863985,-0.4013988770863985
-0.3004130735454632,-0.3004130735454632
-0.28678800481374966,-0.28678800481374966
-0.36052367089125803,-0.36052367089125803
-0.42784753991854824,-0.42784753991854824
-0.42063426823705286,-0.42063426823705286
-0.35250892457848537,-0.35250892457848537
-0.24030247619966835,-0.24030247619966835
-0.1737800818036554,-0.1737800818036554
-0.24030247619966835,-0.24030247619966835
-0.39178118151107133,-0.39178118151107133
-0.42063426823705286,-0.42063426823705286
-0.2699570375569271,-0.2699570375569271
-0.11927980687680143,-0.11927980687680143
-0.15614763991555558,-0.15614763991555558
-0.3004130735454632,-0.3004130735454632
-0.3989944531925667,-0.3989944531925667
-0.42063426823705286,-0.42063426823705286
-0.4374652354938754,-0.4374652354938754
-0.42063426823705286,-0.42063426823705286
-0.3557148231035944,-0.3557148231035944
-0.3004130735454632,-0.3004130735454632
-0.32525878711505835,-0.32525878711505835
-0.36052367089125803,-0.36052367089125803
-0.34128827974060366,-0.34128827974060366
-0.3004130735454632,-0.3004130735454632
-0.3220528885899493,-0.3220528885899493
-0.36052367089125803,-0.36052367089125803
-0.333273533427831,-0.333273533427831
-0.24030247619966835,-0.24030247619966835
-0.19622137147941882,-0.19622137147941882
-0.24030247619966835,-0.24030247619966835
-0.29159685260141327,-0.29159685260141327
-0.24030247619966835,-0.24030247619966835
-0.1425225711838421,-0.1425225711838421
-0.11927980687680143,-0.11927980687680143
-0.20263316852963692,-0.20263316852963692
-0.24030247619966835,-0.24030247619966835
-0.1825963027477053,-0.1825963027477053
-0.11927980687680143,-0.11927980687680143
-0.14973584286533748,-0.14973584286533748
-0.17939040422259625,-0.17939040422259625
-0.14813289360278295,-0.14813289360278295
-0.11927980687680143,-0.11927980687680143
-0.16336091159705096,-0.16336091159705096
-0.17939040422259625,-0.17939040422259625
-0.12489012929574228,-0.12489012929574228
-0.11927980687680143,-0.11927980687680143
-0.2651481897692635,-0.2651481897692635
-0.42063426823705286,-0.42063426823705286
-0.4350608116000436,-0.4350608116000436
-0.3004130735454632,-0.3004130735454632
-0.01268368091692527,-0.01268368091692527
0.6036503105352911,0.6036503105352911
1.5878611577437716,1.5878611577437716
2.653020942711256,2.653020942711256
3.3871717049612307,3.3871717049612307
3.6171949241378054,3.6171949241378054
3.3326714300343765,3.3326714300343765
2.5929103453654614,2.5929103453654614
1.607096548894426,1.607096548894426
0.7847835772039528,0.7847835772039528
0.3567961241018936,0.3567961241018936
0.18207465448344998,0.18207465448344998
-0.014286630179479797,-0.014286630179479797
-0.24030247619966835,-0.24030247619966835
-0.36212662015381253,-0.36212662015381253
-0.36052367089125803,-0.36052367089125803
-0.36853841720403063,-0.36853841720403063
-0.42063426823705286,-0.42063426823705286
-0.4550976773819752,-0.4550976773819752
-0.42063426823705286,-0.42063426823705286
-0.3741487396229715,-0.3741487396229715
-0.36052367089125803,-0.36052367089125803
-0.3901782322485168,-0.3901782322485168
-0.42063426823705286,-0.42063426823705286
-0.4366637608625981,-0.4366637608625981
-0.42063426823705286,-0.42063426823705286
-0.41582542044938925,-0.41582542044938925
-0.42063426823705286,-0.42063426823705286
-0.43826671012515267,-0.43826671012515267
-0.42063426823705286,-0.42063426823705286
-0.3853693844608532,-0.3853693844608532
-0.36052367089125803,-0.36052367089125803
-0.38456790982957595,-0.38456790982957595
-0.42063426823705286,-0.42063426823705286
-0.42303869213088463,-0.42303869213088463
-0.36052367089125803,-0.36052367089125803
-0.3004130735454632,-0.3004130735454632
-0.3004130735454632,-0.3004130735454632
-0.35010450068465354,-0.35010450068465354
-0.36052367089125803,-0.36052367089125803
-0.32365583785250385,-0.32365583785250385
-0.3004130735454632,-0.3004130735454632
-0.33647943195294006,-0.33647943195294006
-0.36052367089125803,-0.36052367089125803
-0.3340750080591083,-0.3340750080591083
-0.3004130735454632,-0.3004130735454632
-0.3260602617463356,-0.3260602617463356
-0.36052367089125803,-0.36052367089125803
-0.34850155142209904,-0.34850155142209904
-0.3004130735454632,-0.3004130735454632
-0.28758947944502694,-0.28758947944502694
-0.3004130735454632,-0.3004130735454632
-0.3092292944895131,-0.3092292944895131
-0.3004130735454632,-0.3004130735454632
-0.3044204467018495,-0.3044204467018495
-0.3004130735454632,-0.3004130735454632
-0.27636883460714523,-0.27636883460714523
-0.24030247619966835,-0.24030247619966835
-0.23308920451817297,-0.23308920451817297
-0.24030247619966835,-0.24030247619966835
-0.24751574788116373,-0.24751574788116373
-0.24030247619966835,-0.24030247619966835
-0.22427298357412306,-0.22427298357412306
-0.17939040422259625,-0.17939040422259625
-0.1329048756085149,-0.1329048756085149
-0.11927980687680143,-0.11927980687680143
-0.15614763991555558,-0.15614763991555558
-0.17939040422259625,-0.17939040422259625
-0.16175796233449644,-0.16175796233449644
-0.11927980687680143,-0.11927980687680143
-0.09363261867592897,-0.09363261867592897
-0.0591692095310066,-0.0591692095310066
-0.01829400333586612,-0.01829400333586612
0.0009413878147882254,0.0009413878147882254
-0.030316122805025086,-0.030316122805025086
-0.0591692095310066,-0.0591692095310066
-0.061573633424838396,-0.061573633424838396
-0.0591692095310066,-0.0591692095310066
-0.09443409330720623,-0.09443409330720623
-0.11927980687680143,-0.11927980687680143
-0.10084589035742435,-0.10084589035742435
-0.0591692095310066,-0.0591692095310066
-0.06878690510633377,-0.06878690510633377
-0.11927980687680143,-0.11927980687680143
-0.15294174139044653,-0.15294174139044653
-0.11927980687680143,-0.11927980687680143
-0.0727942782627201,-0.0727942782627201
-0.0591692095310066,-0.0591692095310066
-0.07760312605038368,-0.07760312605038368
-0.0591692095310066,-0.0591692095310066
-0.015088104810757062,-0.015088104810757062
0.0009413878147882254,0.0009413878147882254
-0.039132343749074996,-0.039132343749074996
-0.0591692095310066,-0.0591692095310066
-0.030316122805025086,-0.030316122805025086
0.0009413878147882254,0.0009413878147882254
-0.028713173542470556,-0.028713173542470556
-0.0591692095310066,-0.0591692095310066
-0.04073529301162952,-0.04073529301162952
0.0009413878147882254,0.0009413878147882254
-0.013485155548202532,-0.013485155548202532
-0.0591692095310066,-0.0591692095310066
-0.08080902457549274,-0.08080902457549274
-0.0591692095310066,-0.0591692095310066
-0.04875003932440217,-0.04875003932440217
-0.0591692095310066,-0.0591692095310066
-0.09042672015081991,-0.09042672015081991
-0.11927980687680143,-0.11927980687680143
-0.14091962192128757,-0.14091962192128757
-0.11927980687680143,-0.11927980687680143
-0.08000754994421548,-0.08000754994421548
-0.0591692095310066,-0.0591692095310066
-0.07519870215655189,-0.07519870215655189
-0.0591692095310066,-0.0591692095310066
0.0033458117086200183,0.0033458117086200183
0.06105198516058305,0.06105198516058305
0.046625441797592294,0.046625441797592294
0.0009413878147882254,0.0009413878147882254
-0.019095477967143382,-0.019095477967143382
0.0009413878147882254,0.0009413878147882254
0.0073531848650063404,0.0073531848650063404
0.0009413878147882254,0.0009413878147882254
-0.007874833129261682,-0.007874833129261682
0.0009413878147882254,0.0009413878147882254
0.019375304334165306,0.019375304334165306
0.06105198516058305,0.06105198516058305
0.1027286659870008,0.1027286659870008
0.12196405713765515,0.12196405713765515
0.10914046303721892,0.10914046303721892
0.12196405713765515,0.12196405713765515
0.1588318901764093,0.1588318901764093
0.18207465448344998,0.18207465448344998
0.15081714386363665,0.15081714386363665
0.12196405713765515,0.12196405713765515
0.11715520934999156,0.11715520934999156
0.12196405713765515,0.12196405713765515
0.06746378221080117,0.06746378221080117
0.0009413878147882254,0.0009413878147882254
-0.014286630179479797,-0.014286630179479797
0.06105198516058305,0.06105198516058305
0.13318470197553683,0.13318470197553683
0.12196405713765515,0.12196405713765515
0.03861069548481965,0.03861069548481965
0.0009413878147882254,0.0009413878147882254
0.013764981915224456,0.013764981915224456
0.0009413878147882254,0.0009413878147882254
-0.05516183637462028,-0.05516183637462028
-0.0591692095310066,-0.0591692095310066
-0.05035298858695669,-0.05035298858695669
-0.11927980687680143,-0.11927980687680143
-0.11286800982658332,-0.11286800982658332
0.3624064465208345,0.3624064465208345
1.3337936996288788,1.3337936996288788
2.3516664813510046,2.3516664813510046
3.0729936495005425,3.0729936495005425
3.6171949241378054,3.6171949241378054
3.980262932106406,3.980262932106406
3.7382175934606723,3.7382175934606723
2.6786681309121283,2.6786681309121283
1.3874924999244556,1.3874924999244556
0.5956355642225184,0.5956355642225184
0.3624064465208345,0.3624064465208345
0.22936165772880857,0.22936165772880857
0.0009413878147882254,0.0009413878147882254
-0.18419925201025986,-0.18419925201025986
-0.24030247619966835,-0.24030247619966835
-0.26915556292564985,-0.26915556292564985
-0.3004130735454632,-0.3004130735454632
-0.3044204467018495,-0.3044204467018495
-0.3004130735454632,-0.3004130735454632
-0.35411187384103987,-0.35411187384103987
-0.42063426823705286,-0.42063426823705286
-0.44227408328153894,-0.44227408328153894
-0.42063426823705286,-0.42063426823705286
-0.418229844343221,-0.418229844343221
-0.42063426823705286,-0.42063426823705286
-0.4238401667621619,-0.4238401667621619
-0.42063426823705286,-0.42063426823705286
-0.43586228623132084,-0.43586228623132084
-0.42063426823705286,-0.42063426823705286
-0.38617085909213045,-0.38617085909213045
-0.36052367089125803,-0.36052367089125803
-0.3869723337234077,-0.3869723337234077
-0.42063426823705286,-0.42063426823705286
-0.4318549130749345,-0.4318549130749345
-0.42063426823705286,-0.42063426823705286
-0.4254431160247164,-0.4254431160247164
-0.42063426823705286,-0.42063426823705286
-0.3949870800361804,-0.3949870800361804
-0.36052367089125803,-0.36052367089125803
-0.37254579036041696,-0.37254579036041696
-0.42063426823705286,-0.42063426823705286
-0.47192864463879775,-0.47192864463879775
-0.4807448655828477,-0.4807448655828477
-0.4623109490634706,-0.4623109490634706
-0.42063426823705286,-0.42063426823705286
-0.3693398918353079,-0.3693398918353079
-0.3004130735454632,-0.3004130735454632
-0.24911869714371826,-0.24911869714371826
-0.24030247619966835,-0.24030247619966835
-0.27476588534459073,-0.27476588534459073
-0.3004130735454632,-0.3004130735454632
-0.3044204467018495,-0.3044204467018495
-0.3004130735454632,-0.3004130735454632
-0.31163371838334486,-0.31163371838334486
-0.3004130735454632,-0.3004130735454632
-0.2659496644005408,-0.2659496644005408
-0.24030247619966835,-0.24030247619966835
-0.2659496644005408,-0.2659496644005408
-0.3004130735454632,-0.3004130735454632
-0.31163371838334486,-0.31163371838334486
-0.3004130735454632,-0.3004130735454632
-0.30361897207057226,-0.30361897207057226
-0.3004130735454632,-0.3004130735454632
-0.27877325850097706,-0.27877325850097706
-0.24030247619966835,-0.24030247619966835
-0.21305233873624135,-0.21305233873624135
-0.17939040422259625,-0.17939040422259625
-0.1449269950776739,-0.1449269950776739
-0.11927980687680143,-0.11927980687680143
-0.1264930785582968,-0.1264930785582968
-0.11927980687680143,-0.11927980687680143
-0.0727942782627201,-0.0727942782627201
0.0009413878147882254,0.0009413878147882254
0.028191525278215213,0.028191525278215213
0.0009413878147882254,0.0009413878147882254
-0.03352202133013414,-0.03352202133013414
0.0009413878147882254,0.0009413878147882254
0.07628000315485108,0.07628000315485108
0.12196405713765515,0.12196405713765515
0.09391244504295089,0.09391244504295089
0.06105198516058305,0.06105198516058305
0.07227262999846476,0.07227262999846476
0.12196405713765515,0.12196405713765515
0.15562599165130026,0.15562599165130026
0.18207465448344998,0.18207465448344998
0.1932952993213317,0.1932952993213317
0.18207465448344998,0.18207465448344998
0.15322156775746845,0.15322156775746845
0.18207465448344998,0.18207465448344998
0.2582147444547901,0.2582147444547901
0.30229584917503965,0.30229584917503965
0.26622949076756275,0.26622949076756275
0.2421852518292448,0.2421852518292448
0.27264128781778085,0.27264128781778085
0.30229584917503965,0.30229584917503965
0.2622221176111764,0.2622221176111764
0.2421852518292448,0.2421852518292448
0.2766486609741672,0.2766486609741672
0.30229584917503965,0.30229584917503965
0.23817787867285847,0.23817787867285847
0.18207465448344998,0.18207465448344998
0.2021115202653816,0.2021115202653816
0.2421852518292448,0.2421852518292448
0.2109277412094315,0.2109277412094315
0.18207465448344998,0.18207465448344998
0.21253069047198603,0.21253069047198603
0.2421852518292448,0.2421852518292448
0.17325843353940007,0.17325843353940007
0.06105198516058305,0.06105198516058305
-0.02951464817374782,-0.02951464817374782
-0.0591692095310066,-0.0591692095310066
0.09070654651784184,0.09070654651784184
0.6637609078810859,0.6637609078810859
1.6696115701340526,1.6696115701340526
2.7740436120341228,2.7740436120341228
3.582731514992883,3.582731514992883
3.979461457475129,3.979461457475129
3.931372979598493,3.931372979598493
3.376752534754626,3.376752534754626
2.3901372636523135,2.3901372636523135
1.3874924999244556,1.3874924999244556
0.7471142695339213,0.7471142695339213
0.48342911584370135,0.48342911584370135
0.33595778368868473,0.33595778368868473
0.18207465448344998,0.18207465448344998
0.04181659400992871,0.04181659400992871
-0.0591692095310066,-0.0591692095310066
-0.1625594369657737,-0.1625594369657737
-0.24030247619966835,-0.24030247619966835
-0.26114081661287725,-0.26114081661287725
-0.24030247619966835,-0.24030247619966835
-0.24030247619966835,-0.24030247619966835
-0.24030247619966835,-0.24030247619966835
-0.20263316852963692,-0.20263316852963692
-0.11927980687680143,-0.11927980687680143
-0.06237510805611566,-0.06237510805611566
-0.0591692095310066,-0.0591692095310066
-0.1176768576142469,-0.1176768576142469
-0.17939040422259625,-0.17939040422259625
-0.22908183136178664,-0.22908183136178664
-0.24030247619966835,-0.24030247619966835
-0.2411039508309456,-0.2411039508309456
-0.24030247619966835,-0.24030247619966835
-0.2643467151379863,-0.2643467151379863
-0.3004130735454632,-0.3004130735454632
-0.3260602617463356,-0.3260602617463356
-0.3004130735454632,-0.3004130735454632
-0.25553049419393636,-0.25553049419393636
-0.24030247619966835,-0.24030247619966835
-0.275567359975868,-0.275567359975868
-0.3004130735454632,-0.3004130735454632
-0.29881012428290865,-0.29881012428290865
-0.3004130735454632,-0.3004130735454632
-0.3404868051093264,-0.3404868051093264
-0.36052367089125803,-0.36052367089125803
-0.33647943195294006,-0.33647943195294006
-0.3004130735454632,-0.3004130735454632
-0.30361897207057226,-0.30361897207057226
-0.3004130735454632,-0.3004130735454632
-0.2699570375569271,-0.2699570375569271
-0.24030247619966835,-0.24030247619966835
-0.24831722251244098,-0.24831722251244098
-0.24030247619966835,-0.24030247619966835
-0.20183169389835967,-0.20183169389835967
-0.17939040422259625,-0.17939040422259625
-0.21946413578645949,-0.21946413578645949
-0.24030247619966835,-0.24030247619966835
-0.193816947585587,-0.193816947585587
-0.11927980687680143,-0.11927980687680143
-0.09122819478209718,-0.09122819478209718
-0.0591692095310066,-0.0591692095310066
0.022581202859274365,0.022581202859274365
0.12196405713765515,0.12196405713765515
0.14680977070725035,0.14680977070725035
0.12196405713765515,0.12196405713765515
0.11955963324382335,0.11955963324382335
0.18207465448344998,0.18207465448344998
0.25420737129840376,0.25420737129840376
0.30229584917503965,0.30229584917503965
0.309509120856535,0.309509120856535
0.30229584917503965,0.30229584917503965
0.29187667896843517,0.29187667896843517
0.30229584917503965,0.30229584917503965
0.309509120856535,0.309509120856535
0.30229584917503965,0.30229584917503965
0.2846634072869398,0.2846634072869398
0.30229584917503965,0.30229584917503965
0.324737138850803,0.324737138850803
0.30229584917503965,0.30229584917503965
0.22294986067859046,0.22294986067859046
0.18207465448344998,0.18207465448344998
0.224552809941145,0.224552809941145
0.30229584917503965,0.30229584917503965
0.30630322233142593,0.30630322233142593
0.2421852518292448,0.2421852518292448
0.18047170522089545,0.18047170522089545
0.18207465448344998,0.18207465448344998
0.19569972321516346,0.19569972321516346
0.18207465448344998,0.18207465448344998
0.15402304238874573,0.15402304238874573
0.18207465448344998,0.18207465448344998
0.23417050551647214,0.23417050551647214
0.2421852518292448,0.2421852518292448
0.18848645153366808,0.18848645153366808
0.18207465448344998,0.18207465448344998
0.24699409961690838,0.24699409961690838
0.30229584917503965,0.30229584917503965
0.27264128781778085,0.27264128781778085
0.2421852518292448,0.2421852518292448
0.2686339146613945,0.2686339146613945
0.30229584917503965,0.30229584917503965
0.2694353892926718,0.2694353892926718
0.2421852518292448,0.2421852518292448
0.2686339146613945,0.2686339146613945
0.30229584917503965,0.30229584917503965
0.2630235922424537,0.2630235922424537
0.2421852518292448,0.2421852518292448
0.29107520433715794,0.29107520433715794
0.3624064465208345,0.3624064465208345
0.3479799031578437,0.3479799031578437
0.30229584917503965,0.30229584917503965
0.2894722550746034,0.2894722550746034
0.30229584917503965,0.30229584917503965
0.29107520433715794,0.29107520433715794
0.30229584917503965,0.30229584917503965
0.33355335979485295,0.33355335979485295
0.30229584917503965,0.30229584917503965
0.15322156775746845,0.15322156775746845
0.0009413878147882254,0.0009413878147882254
-0.05596331100589755,-0.05596331100589755
0.0009413878147882254,0.0009413878147882254
0.21894248752220413,0.21894248752220413
0.7847835772039528,0.7847835772039528
1.7369354391613427,1.7369354391613427
2.8341542093799177,2.8341542093799177
3.706960082840859,3.706960082840859
4.159793249512513,4.159793249512513
4.09647675364161,4.09647675364161
3.496973729446216,3.496973729446216
2.5159687807628437,2.5159687807628437
1.5686257665931174,1.5686257665931174
0.9739315901853872,0.9739315901853872
0.7246729798581579,0.7246729798581579
0.5796060715969731,0.5796060715969731
0.4233185184979065,0.4233185184979065
0.26142064297989914,0.26142064297989914
0.12196405713765515,0.12196405713765515
-0.01829400333586612,-0.01829400333586612
-0.11927980687680143,-0.11927980687680143
-0.16336091159705096,-0.16336091159705096
-0.17939040422259625,-0.17939040422259625
-0.23389067914945025,-0.23389067914945025
-0.3004130735454632,-0.3004130735454632
-0.3292661602714447,-0.3292661602714447
-0.3004130735454632,-0.3004130735454632
-0.28037620776353156,-0.28037620776353156
-0.3004130735454632,-0.3004130735454632
-0.36853841720403063,-0.36853841720403063
-0.42063426823705286,-0.42063426823705286
-0.4414726086502617,-0.4414726086502617
-0.42063426823705286,-0.42063426823705286
-0.40861214876789387,-0.40861214876789387
-0.42063426823705286,-0.42063426823705286
-0.4751345431639068,-0.4751345431639068
-0.5416569375599197,-0.5416569375599197
-0.5953557378554964,-0.5953557378554964
-0.6017675349057146,-0.6017675349057146
-0.5945542632242192,-0.5945542632242192
-0.6017675349057146,-0.6017675349057146
-0.624208824581478,-0.624208824581478
-0.6017675349057146,-0.6017675349057146
-0.5536790570290787,-0.5536790570290787
-0.5416569375599197,-0.5416569375599197
-0.5905468900678329,-0.5905468900678329
-0.6017675349057146,-0.6017675349057146
-0.5256274449343744,-0.5256274449343744
-0.42063426823705286,-0.42063426823705286
-0.39338413077362583,-0.39338413077362583
-0.42063426823705286,-0.42063426823705286
-0.44067113401898445,-0.44067113401898445
-0.42063426823705286,-0.42063426823705286
-0.39739150393001216,-0.39739150393001216
-0.36052367089125803,-0.36052367089125803
-0.30361897207057226,-0.30361897207057226
-0.24030247619966835,-0.24030247619966835
-0.22267003431156854,-0.22267003431156854
-0.24030247619966835,-0.24030247619966835
-0.26033934198159997,-0.26033934198159997
-0.24030247619966835,-0.24030247619966835
-0.18980957442920068,-0.18980957442920068
-0.11927980687680143,-0.11927980687680143
-0.07119132900016557,-0.07119132900016557
-0.0591692095310066,-0.0591692095310066
-0.07600017678782915,-0.07600017678782915
-0.0591692095310066,-0.0591692095310066
0.012162032652669926,0.012162032652669926
0.12196405713765515,0.12196405713765515
0.2061188934217679,0.2061188934217679
0.2421852518292448,0.2421852518292448
0.22134691141603594,0.22134691141603594
0.18207465448344998,0.18207465448344998
0.15482451702002298,0.15482451702002298
0.18207465448344998,0.18207465448344998
0.2445896757230766,0.2445896757230766
0.30229584917503965,0.30229584917503965
0.2958840521248215,0.2958840521248215
0.2421852518292448,0.2421852518292448
0.18688350227111356,0.18688350227111356
0.18207465448344998,0.18207465448344998
0.1932952993213317,0.1932952993213317
0.18207465448344998,0.18207465448344998
0.13799354976320044,0.13799354976320044
0.12196405713765515,0.12196405713765515
0.13078027808170506,0.13078027808170506
0.12196405713765515,0.12196405713765515
0.05704461200419673,0.05704461200419673
0.0009413878147882254,0.0009413878147882254
-0.011882206285648005,-0.011882206285648005
0.0009413878147882254,0.0009413878147882254
-0.0070733584979844185,-0.0070733584979844185
0.0009413878147882254,0.0009413878147882254
0.03540479695971059,0.03540479695971059
0.06105198516058305,0.06105198516058305
0.03139742380332427,0.03139742380332427
0.0009413878147882254,0.0009413878147882254
-0.0006615614477663034,-0.0006615614477663034
0.0009413878147882254,0.0009413878147882254
-0.04073529301162952,-0.04073529301162952
-0.0591692095310066,-0.0591692095310066
-0.035124970592688674,-0.035124970592688674
0.0009413878147882254,0.0009413878147882254
-0.006271883866707154,-0.006271883866707154
0.0009413878147882254,0.0009413878147882254
0.0217797282279971,0.0217797282279971
0.0009413878147882254,0.0009413878147882254
-0.07119132900016557,-0.07119132900016557
-0.0591692095310066,-0.0591692095310066
0.05303723884781041,0.05303723884781041
0.12196405713765515,0.12196405713765515
0.0442210179037605,0.0442210179037605
-0.0591692095310066,-0.0591692095310066
-0.1264930785582968,-0.1264930785582968
-0.24030247619966835,-0.24030247619966835
-0.3805605366731896,-0.3805605366731896
-0.24030247619966835,-0.24030247619966835
0.38244331230276607,0.38244331230276607
1.3273819025786608,1.3273819025786608
2.276327866010942,2.276327866010942
3.0753980733943744,3.0753980733943744
3.5386504102726337,3.5386504102726337
3.376752534754626,3.376752534754626
2.507954034450071,2.507954034450071
1.3874924999244556,1.3874924999244556
0.5956355642225184,0.5956355642225184
0.30229584917503965,0.30229584917503965
0.21172921584070875,0.21172921584070875
0.06105198516058305,0.06105198516058305
-0.15454469065300105,-0.15454469065300105
-0.3004130735454632,-0.3004130735454632
-0.36693546794147613,-0.36693546794147613
-0.42063426823705286,-0.42063426823705286
-0.5015832059960565,-0.5015832059960565
-0.5416569375599197,-0.5416569375599197
-0.5176126986216019,-0.5176126986216019
-0.4807448655828477,-0.4807448655828477
-0.5039876298898883,-0.5039876298898883
-0.5416569375599197,-0.5416569375599197
-0.536046615140979,-0.536046615140979
-0.4807448655828477,-0.4807448655828477
-0.44227408328153894,-0.44227408328153894
-0.42063426823705286,-0.42063426823705286
-0.43425933696876634,-0.43425933696876634
-0.4807448655828477,-0.4807448655828477
-0.5480687346101378,-0.5480687346101378
-0.5416569375599197,-0.5416569375599197
-0.46551684758857964,-0.46551684758857964
-0.42063426823705286,-0.42063426823705286
-0.4799433909515704,-0.4799433909515704
-0.5416569375599197,-0.5416569375599197
-0.5112009015713838,-0.5112009015713838
-0.42063426823705286,-0.42063426823705286
-0.3885752829859623,-0.3885752829859623
-0.42063426823705286,-0.42063426823705286
-0.4639138983260251,-0.4639138983260251
-0.4807448655828477,-0.4807448655828477
-0.5063920537837201,-0.5063920537837201
-0.5416569375599197,-0.5416569375599197
-0.5801277198612285,-0.5801277198612285
-0.6017675349057146,-0.6017675349057146
-0.5985616363806056,-0.5985616363806056
-0.5416569375599197,-0.5416569375599197
-0.46070799980091603,-0.46070799980091603
-0.42063426823705286,-0.42063426823705286
-0.4679212714824114,-0.4679212714824114
-0.5416569375599197,-0.5416569375599197
-0.5721129735484558,-0.5721129735484558
-0.5416569375599197,-0.5416569375599197
-0.5039876298898883,-0.5039876298898883
-0.4807448655828477,-0.4807448655828477
-0.4639138983260251,-0.4639138983260251
-0.42063426823705286,-0.42063426823705286
-0.37735463814808057,-0.37735463814808057
-0.36052367089125803,-0.36052367089125803
-0.3885752829859623,-0.3885752829859623
-0.42063426823705286,-0.42063426823705286
-0.4350608116000436,-0.4350608116000436
-0.42063426823705286,-0.42063426823705286
-0.3949870800361804,-0.3949870800361804
-0.36052367089125803,-0.36052367089125803
-0.36212662015381253,-0.36212662015381253
-0.42063426823705286,-0.42063426823705286
-0.4975758328396702,-0.4975758328396702
-0.4807448655828477,-0.4807448655828477
-0.3765531635168033,-0.3765531635168033
-0.3004130735454632,-0.3004130735454632
-0.34208975437188094,-0.34208975437188094
-0.42063426823705286,-0.42063426823705286
-0.4478844057004798,-0.4478844057004798
-0.42063426823705286,-0.42063426823705286
-0.3829649605670214,-0.3829649605670214
-0.3004130735454632,-0.3004130735454632
-0.1986257953732506,-0.1986257953732506
-0.17939040422259625,-0.17939040422259625
-0.2972071750203541,-0.2972071750203541
-0.42063426823705286,-0.42063426823705286
-0.4478844057004798,-0.4478844057004798
-0.42063426823705286,-0.42063426823705286
-0.4318549130749345,-0.4318549130749345
-0.42063426823705286,-0.42063426823705286
-0.34128827974060366,-0.34128827974060366
-0.24030247619966835,-0.24030247619966835
-0.22026561041773673,-0.22026561041773673
-0.24030247619966835,-0.24030247619966835
-0.26114081661287725,-0.26114081661287725
-0.3004130735454632,-0.3004130735454632
-0.38456790982957595,-0.38456790982957595
-0.42063426823705286,-0.42063426823705286
-0.3653325186789216,-0.3653325186789216
-0.3004130735454632,-0.3004130735454632
-0.35331039920976265,-0.35331039920976265
-0.4807448655828477,-0.4807448655828477
-0.5616938033418514,-0.5616938033418514
-0.5416569375599197,-0.5416569375599197
-0.49517140894583844,-0.49517140894583844
-0.42063426823705286,-0.42063426823705286
-0.17778745496004172,-0.17778745496004172
0.4233185184979065,0.4233185184979065
1.3562349893046424,1.3562349893046424
2.3516664813510046,2.3516664813510046
3.0393317149868975,3.0393317149868975
3.195619268085964,3.195619268085964
2.7884701553971136,2.7884701553971136
1.9902014226449585,1.9902014226449585
1.0957557341395314,1.0957557341395314
0.4233185184979065,0.4233185184979065
0.06425788368569212,0.06425788368569212
-0.11927980687680143,-0.11927980687680143
-0.30361897207057226,-0.30361897207057226
-0.4807448655828477,-0.4807448655828477
-0.5985616363806056,-0.5985616363806056
-0.6618781322515094,-0.6618781322515094
-0.7163784071783634,-0.7163784071783634
-0.7219887295973042,-0.7219887295973042
-0.6795105741396092,-0.6795105741396092
-0.6618781322515094,-0.6618781322515094
-0.724393153491136,-0.724393153491136
-0.782099326943099,-0.782099326943099
-0.7845037508369308,-0.7845037508369308
-0.782099326943099,-0.782099326943099
-0.833393703344844,-0.833393703344844
-0.8430113989201712,-0.8430113989201712
-0.7620624611611675,-0.7620624611611675
-0.6618781322515094,-0.6618781322515094
-0.6522604366761823,-0.6522604366761823
-0.6618781322515094,-0.6618781322515094
-0.6145911290061508,-0.6145911290061508
-0.5416569375599197,-0.5416569375599197
-0.5424584121911971,-0.5424584121911971
-0.6017675349057146,-0.6017675349057146
-0.6658855054078957,-0.6658855054078957
-0.7219887295973042,-0.7219887295973042
-0.782099326943099,-0.782099326943099
-0.782099326943099,-0.782099326943099
-0.7043562877092044,-0.7043562877092044
-0.6017675349057146,-0.6017675349057146
-0.5400539882973652,-0.5400539882973652
-0.4807448655828477,-0.4807448655828477
-0.42063426823705286,-0.42063426823705286
-0.42063426823705286,-0.42063426823705286
-0.5176126986216019,-0.5176126986216019
-0.6017675349057146,-0.6017675349057146
-0.5921498393303875,-0.5921498393303875
-0.5416569375599197,-0.5416569375599197
-0.5689070750233467,-0.5689070750233467
-0.6618781322515094,-0.6618781322515094
-0.7476359177981767,-0.7476359177981767
-0.782099326943099,-0.782099326943099
-0.7965258703060898,-0.7965258703060898
-0.782099326943099,-0.782099326943099
-0.7356137983290177,-0.7356137983290177
-0.6618781322515094,-0.6618781322515094
-0.60016458564316,-0.60016458564316
-0.5416569375599197,-0.5416569375599197
-0.4807448655828477,-0.4807448655828477
-0.42063426823705286,-0.42063426823705286
-0.40460477561150754,-0.40460477561150754
-0.42063426823705286,-0.42063426823705286
-0.42223721749960735,-0.42223721749960735
-0.36052367089125803,-0.36052367089125803
-0.2964057003890769,-0.2964057003890769
-0.3004130735454632,-0.3004130735454632
-0.3589207216287035,-0.3589207216287035
-0.36052367089125803,-0.36052367089125803
-0.3068248705956813,-0.3068248705956813
-0.3004130735454632,-0.3004130735454632
-0.3829649605670214,-0.3829649605670214
-0.42063426823705286,-0.42063426823705286
-0.35331039920976265,-0.35331039920976265
-0.3004130735454632,-0.3004130735454632
-0.39739150393001216,-0.39739150393001216
-0.5416569375599197,-0.5416569375599197
-0.5568849555541878,-0.5568849555541878
-0.42063426823705286,-0.42063426823705286
-0.2835821062886406,-0.2835821062886406
-0.24030247619966835,-0.24030247619966835
-0.30361897207057226,-0.30361897207057226
-0.42063426823705286,-0.42063426823705286
-0.51520827472777,-0.51520827472777
-0.4807448655828477,-0.4807448655828477
-0.34208975437188094,-0.34208975437188094
-0.24030247619966835,-0.24030247619966835
-0.2931998018639678,-0.2931998018639678
-0.42063426823705286,-0.42063426823705286
-0.48314928947667946,-0.48314928947667946
-0.42063426823705286,-0.42063426823705286
-0.3020160228080177,-0.3020160228080177
-0.17939040422259625,-0.17939040422259625
-0.10725768740764247,-0.10725768740764247
-0.11927980687680143,-0.11927980687680143
-0.2459127986186092,-0.2459127986186092
-0.42063426823705286,-0.42063426823705286
-0.5464657853475834,-0.5464657853475834
-0.5416569375599197,-0.5416569375599197
-0.43425933696876634,-0.43425933696876634
-0.3004130735454632,-0.3004130735454632
-0.22667740746795487,-0.22667740746795487
-0.24030247619966835,-0.24030247619966835
-0.34208975437188094,-0.34208975437188094
-0.4807448655828477,-0.4807448655828477
-0.5905468900678329,-0.5905468900678329
-0.6017675349057146,-0.6017675349057146
-0.5448628360850288,-0.5448628360850288
-0.4807448655828477,-0.4807448655828477
-0.43826671012515267,-0.43826671012515267
-0.36052367089125803,-0.36052367089125803
-0.26194229124415447,-0.26194229124415447
-0.24030247619966835,-0.24030247619966835
-0.37094284109786246,-0.37094284109786246
-0.5416569375599197,-0.5416569375599197
-0.5793262452299511,-0.5793262452299511
-0.42063426823705286,-0.42063426823705286
-0.21144938947368683,-0.21144938947368683
-0.11927980687680143,-0.11927980687680143
-0.2186626611551822,-0.2186626611551822
-0.42063426823705286,-0.42063426823705286
-0.6049734334308237,-0.6049734334308237
-0.6618781322515094,-0.6618781322515094
-0.5881424661740011,-0.5881424661740011
-0.42063426823705286,-0.42063426823705286
-0.27877325850097706,-0.27877325850097706
-0.24030247619966835,-0.24030247619966835
-0.32285436322122657,-0.32285436322122657
-0.42063426823705286,-0.42063426823705286
-0.4414726086502617,-0.4414726086502617
-0.36052367089125803,-0.36052367089125803
-0.26755261366309535,-0.26755261366309535
-0.24030247619966835,-0.24030247619966835
-0.31083224375206764,-0.31083224375206764
-0.42063426823705286,-0.42063426823705286
-0.5007817313647792,-0.5007817313647792
-0.4807448655828477,-0.4807448655828477
-0.3581192469974262,-0.3581192469974262
-0.11927980687680143,-0.11927980687680143
0.27344276244905813,0.27344276244905813
0.9050047718955424,0.9050047718955424
1.7593767288371063,1.7593767288371063
2.653020942711256,2.653020942711256
3.2388988981749365,3.2388988981749365
3.255729865431759,3.255729865431759
2.7059182683755556,2.7059182683755556
1.8699802279533688,1.8699802279533688
1.04927020552545,1.04927020552545
0.4233185184979065,0.4233185184979065
0.016169405809056247,0.016169405809056247
-0.17939040422259625,-0.17939040422259625
-0.23549362841200477,-0.23549362841200477
-0.24030247619966835,-0.24030247619966835
-0.2667511390318181,-0.2667511390318181
-0.3004130735454632,-0.3004130735454632
-0.34208975437188094,-0.34208975437188094
-0.42063426823705286,-0.42063426823705286
-0.5592893794480196,-0.5592893794480196
-0.6618781322515094,-0.6618781322515094
-0.6153926036374281,-0.6153926036374281
-0.42063426823705286,-0.42063426823705286
-0.2651481897692635,-0.2651481897692635
-0.3004130735454632,-0.3004130735454632
-0.484752238739234,-0.484752238739234
-0.6017675349057146,-0.6017675349057146
-0.584936567648892,-0.584936567648892
-0.5416569375599197,-0.5416569375599197
-0.5929513139616647,-0.5929513139616647
-0.6618781322515094,-0.6618781322515094
-0.6747017263519456,-0.6747017263519456
-0.6618781322515094,-0.6618781322515094
-0.6827164726647182,-0.6827164726647182
-0.6618781322515094,-0.6618781322515094
-0.5681056003920695,-0.5681056003920695
-0.4807448655828477,-0.4807448655828477
-0.46551684758857964,-0.46551684758857964
-0.42063426823705286,-0.42063426823705286
-0.31884699006484024,-0.31884699006484024
-0.3004130735454632,-0.3004130735454632
-0.46952422074496597,-0.46952422074496597
-0.6618781322515094,-0.6618781322515094
-0.6955400667651546,-0.6955400667651546
-0.6017675349057146,-0.6017675349057146
-0.5432598868224743,-0.5432598868224743
-0.5416569375599197,-0.5416569375599197
-0.5608923287105742,-0.5608923287105742
-0.6017675349057146,-0.6017675349057146
-0.6706943531955594,-0.6706943531955594
-0.6618781322515094,-0.6618781322515094
-0.5376495644035334,-0.5376495644035334
-0.42063426823705286,-0.42063426823705286
-0.4799433909515704,-0.4799433909515704
-0.6618781322515094,-0.6618781322515094
-0.77889342841799,-0.77889342841799
-0.7219887295973042,-0.7219887295973042
-0.5985616363806056,-0.5985616363806056
-0.5416569375599197,-0.5416569375599197
-0.5793262452299511,-0.5793262452299511
-0.6017675349057146,-0.6017675349057146
-0.5424584121911971,-0.5424584121911971
-0.42063426823705286,-0.42063426823705286
-0.31644256617100847,-0.31644256617100847
-0.24030247619966835,-0.24030247619966835
-0.19541989684814154,-0.19541989684814154
-0.17939040422259625,-0.17939040422259625
-0.19301547295430976,-0.19301547295430976
-0.17939040422259625,-0.17939040422259625
-0.13931667265873304,-0.13931667265873304
-0.11927980687680143,-0.11927980687680143
-0.15534616528427833,-0.15534616528427833
-0.17939040422259625,-0.17939040422259625
-0.15614763991555558,-0.15614763991555558
-0.11927980687680143,-0.11927980687680143
-0.12248570540191049,-0.12248570540191049
-0.11927980687680143,-0.11927980687680143
-0.08561787236315632,-0.08561787236315632
-0.0591692095310066,-0.0591692095310066
-0.09122819478209718,-0.09122819478209718
-0.11927980687680143,-0.11927980687680143
-0.09844146646359256,-0.09844146646359256
-0.0591692095310066,-0.0591692095310066
-0.07680165141910641,-0.07680165141910641
-0.11927980687680143,-0.11927980687680143
-0.13691224876490124,-0.13691224876490124
-0.11927980687680143,-0.11927980687680143
-0.11447095908913785,-0.11447095908913785
-0.11927980687680143,-0.11927980687680143
-0.1401181472900103,-0.1401181472900103
-0.17939040422259625,-0.17939040422259625
-0.23789805230583655,-0.23789805230583655
-0.24030247619966835,-0.24030247619966835
-0.20183169389835967,-0.20183169389835967
-0.17939040422259625,-0.17939040422259625
-0.2234715089428458,-0.2234715089428458
-0.24030247619966835,-0.24030247619966835
-0.18900809979792343,-0.18900809979792343
-0.11927980687680143,-0.11927980687680143
-0.11206653519530604,-0.11206653519530604
-0.11927980687680143,-0.11927980687680143
-0.09523556793848349,-0.09523556793848349
-0.0591692095310066,-0.0591692095310066
-0.07519870215655189,-0.07519870215655189
-0.11927980687680143,-0.11927980687680143
-0.17698598032876448,-0.17698598032876448
-0.24030247619966835,-0.24030247619966835
-0.24911869714371826,-0.24911869714371826
0.0009413878147882254,0.0009413878147882254
0.6621579586185313,0.6621579586185313
1.688846961284707,1.688846961284707
2.8293453615922544,2.8293453615922544
3.798328190806467,3.798328190806467
4.303257208511144,4.303257208511144
4.159793249512513,4.159793249512513
3.397590875167835,3.397590875167835
2.3516664813510046,2.3516664813510046
1.4275662314883188,1.4275662314883188
0.8448941745497476,0.8448941745497476
0.5251057966701191,0.5251057966701191
0.30229584917503965,0.30229584917503965
0.09230949578039636,0.09230949578039636
-0.0591692095310066,-0.0591692095310066
-0.13691224876490124,-0.13691224876490124
-0.17939040422259625,-0.17939040422259625
-0.2435083747247774,-0.2435083747247774
-0.3004130735454632,-0.3004130735454632
-0.33487648269038556,-0.33487648269038556
-0.36052367089125803,-0.36052367089125803
-0.40460477561150754,-0.40460477561150754
-0.42063426823705286,-0.42063426823705286
-0.3949870800361804,-0.3949870800361804
-0.36052367089125803,-0.36052367089125803
-0.38376643519829867,-0.38376643519829867
-0.42063426823705286,-0.42063426823705286
-0.43826671012515267,-0.43826671012515267
-0.42063426823705286,-0.42063426823705286
-0.4198327936057756,-0.4198327936057756
-0.42063426823705286,-0.42063426823705286
-0.43826671012515267,-0.43826671012515267
-0.4807448655828477,-0.4807448655828477
-0.5416569375599197,-0.5416569375599197
-0.5416569375599197,-0.5416569375599197
-0.47673749242646135,-0.47673749242646135
-0.42063426823705286,-0.42063426823705286
-0.4438770325440935,-0.4438770325440935
-0.4807448655828477,-0.4807448655828477
-0.46952422074496597,-0.46952422074496597
-0.42063426823705286,-0.42063426823705286
-0.4078106741366166,-0.4078106741366166
-0.42063426823705286,-0.42063426823705286
-0.42945048918110273,-0.42945048918110273
-0.42063426823705286,-0.42063426823705286
-0.4238401667621619,-0.4238401667621619
-0.42063426823705286,-0.42063426823705286
-0.4142224711868347,-0.4142224711868347
-0.42063426823705286,-0.42063426823705286
-0.4599065251696388,-0.4599065251696388
-0.4807448655828477,-0.4807448655828477
-0.46070799980091603,-0.46070799980091603
-0.42063426823705286,-0.42063426823705286
-0.415023945818112,-0.415023945818112
-0.42063426823705286,-0.42063426823705286
-0.4078106741366166,-0.4078106741366166
-0.36052367089125803,-0.36052367089125803
-0.32285436322122657,-0.32285436322122657
-0.3004130735454632,-0.3004130735454632
-0.2819791570260861,-0.2819791570260861
-0.24030247619966835,-0.24030247619966835
-0.2010302192670824,-0.2010302192670824
-0.17939040422259625,-0.17939040422259625
-0.16816975938471457,-0.16816975938471457
-0.11927980687680143,-0.11927980687680143
-0.06558100658122472,-0.06558100658122472
-0.0591692095310066,-0.0591692095310066
-0.10725768740764247,-0.10725768740764247
-0.11927980687680143,-0.11927980687680143
-0.08080902457549274,-0.08080902457549274
-0.0591692095310066,-0.0591692095310066
-0.10325031425125614,-0.10325031425125614
-0.11927980687680143,-0.11927980687680143
-0.061573633424838396,-0.061573633424838396
0.0009413878147882254,0.0009413878147882254
-0.020698427229697912,-0.020698427229697912
-0.0591692095310066,-0.0591692095310066
-0.041536767642906786,-0.041536767642906786
0.0009413878147882254,0.0009413878147882254
-0.017492528704588856,-0.017492528704588856
-0.0591692095310066,-0.0591692095310066
-0.07359575289399736,-0.07359575289399736
-0.0591692095310066,-0.0591692095310066
-0.0703898543688883,-0.0703898543688883
-0.0591692095310066,-0.0591692095310066
-0.02230137649225244,-0.02230137649225244
0.0009413878147882254,0.0009413878147882254
-0.0367279198552432,-0.0367279198552432
-0.0591692095310066,-0.0591692095310066
-0.047147090061847634,-0.047147090061847634
-0.0591692095310066,-0.0591692095310066
-0.12168423077063323,-0.12168423077063323
-0.11927980687680143,-0.11927980687680143
-0.034323495961411404,-0.034323495961411404
0.0009413878147882254,0.0009413878147882254
-0.10966211130147425,-0.10966211130147425
-0.24030247619966835,-0.24030247619966835
-0.28678800481374966,-0.28678800481374966
-0.24030247619966835,-0.24030247619966835
0.004948760971174547,0.004948760971174547
0.7246729798581579,0.7246729798581579
1.903642162467014,1.903642162467014
3.0753980733943744,3.0753980733943744
3.7269969486227907,3.7269969486227907
3.798328190806467,3.798328190806467
3.452091150094689,3.452091150094689
2.7740436120341228,2.7740436120341228
1.8411271412273873,1.8411271412273873
0.9651153692413372,0.9651153692413372
0.4249214677604611,0.4249214677604611
0.18207465448344998,0.18207465448344998
-0.015889579442034327,-0.015889579442034327
-0.24030247619966835,-0.24030247619966835
-0.39338413077362583,-0.39338413077362583
-0.42063426823705286,-0.42063426823705286
-0.42784753991854824,-0.42784753991854824
-0.4807448655828477,-0.4807448655828477
-0.5480687346101378,-0.5480687346101378
-0.5416569375599197,-0.5416569375599197
-0.47673749242646135,-0.47673749242646135
-0.42063426823705286,-0.42063426823705286
-0.42063426823705286,-0.42063426823705286
-0.42063426823705286,-0.42063426823705286
-0.3949870800361804,-0.3949870800361804
-0.36052367089125803,-0.36052367089125803
-0.3829649605670214,-0.3829649605670214
-0.42063426823705286,-0.42063426823705286
-0.43826671012515267,-0.43826671012515267
-0.42063426823705286,-0.42063426823705286
-0.4174283697119438,-0.4174283697119438
-0.42063426823705286,-0.42063426823705286
-0.4238401667621619,-0.4238401667621619
-0.42063426823705286,-0.42063426823705286
-0.42784753991854824,-0.42784753991854824
-0.42063426823705286,-0.42063426823705286
-0.41101657266172564,-0.41101657266172564
-0.42063426823705286,-0.42063426823705286
-0.4623109490634706,-0.4623109490634706
-0.4807448655828477,-0.4807448655828477
-0.472730119270075,-0.472730119270075
-0.4807448655828477,-0.4807448655828477
-0.5456643107163061,-0.5456643107163061
-0.6017675349057146,-0.6017675349057146
-0.6113852304810418,-0.6113852304810418
-0.6017675349057146,-0.6017675349057146
-0.6306206216316961,-0.6306206216316961
-0.6618781322515094,-0.6618781322515094
-0.6690914039330048,-0.6690914039330048
-0.6618781322515094,-0.6618781322515094
-0.6730987770893911,-0.6730987770893911
-0.6618781322515094,-0.6618781322515094
-0.6258117738440325,-0.6258117738440325
-0.6017675349057146,-0.6017675349057146
-0.6177970275312599,-0.6177970275312599
-0.6017675349057146,-0.6017675349057146
-0.5200171225154336,-0.5200171225154336
-0.42063426823705286,-0.42063426823705286
-0.3813620113044669,-0.3813620113044669
-0.36052367089125803,-0.36052367089125803
-0.31003076912079036,-0.31003076912079036
-0.24030247619966835,-0.24030247619966835
-0.2234715089428458,-0.2234715089428458
-0.24030247619966835,-0.24030247619966835
-0.2186626611551822,-0.2186626611551822
-0.11927980687680143,-0.11927980687680143
-0.02230137649225244,-0.02230137649225244
0.0009413878147882254,0.0009413878147882254
-0.04313971690546131,-0.04313971690546131
-0.0591692095310066,-0.0591692095310066
-0.027110224279916027,-0.027110224279916027
0.0009413878147882254,0.0009413878147882254
-0.027110224279916027,-0.027110224279916027
-0.0591692095310066,-0.0591692095310066
-0.06237510805611566,-0.06237510805611566
-0.0591692095310066,-0.0591692095310066
-0.09523556793848349,-0.09523556793848349
-0.11927980687680143,-0.11927980687680143
-0.09924294109486982,-0.09924294109486982
-0.0591692095310066,-0.0591692095310066
-0.05676478563717481,-0.05676478563717481
-0.0591692095310066,-0.0591692095310066
-0.051955937849511226,-0.051955937849511226
-0.0591692095310066,-0.0591692095310066
-0.10565473814508794,-0.10565473814508794
-0.11927980687680143,-0.11927980687680143
-0.0840149231006018,-0.0840149231006018
-0.0591692095310066,-0.0591692095310066
-0.0976399918323153,-0.0976399918323153
-0.11927980687680143,-0.11927980687680143
-0.08722082162571086,-0.08722082162571086
-0.0591692095310066,-0.0591692095310066
-0.09683851720103803,-0.09683851720103803
-0.11927980687680143,-0.11927980687680143
-0.08722082162571086,-0.08722082162571086
-0.0591692095310066,-0.0591692095310066
-0.09924294109486982,-0.09924294109486982
-0.11927980687680143,-0.11927980687680143
-0.07840460068166094,-0.07840460068166094
-0.0591692095310066,-0.0591692095310066
-0.14813289360278295,-0.14813289360278295
-0.24030247619966835,-0.24030247619966835
-0.23629510304328202,-0.23629510304328202
-0.17939040422259625,-0.17939040422259625
-0.1922139983230325,-0.1922139983230325
-0.24030247619966835,-0.24030247619966835
-0.24030247619966835,-0.24030247619966835
-0.17939040422259625,-0.17939040422259625
-0.13771372339617852,-0.13771372339617852
-0.11927980687680143,-0.11927980687680143
-0.0976399918323153,-0.0976399918323153
-0.0591692095310066,-0.0591692095310066
-0.04955151395567943,-0.04955151395567943
-0.0591692095310066,-0.0591692095310066
-0.0703898543688883,-0.0703898543688883
-0.0591692095310066,-0.0591692095310066
-0.05516183637462028,-0.05516183637462028
-0.0591692095310066,-0.0591692095310066
-0.06878690510633377,-0.06878690510633377
-0.0591692095310066,-0.0591692095310066
-0.05275741248078849,-0.05275741248078849
-0.0591692095310066,-0.0591692095310066
-0.08000754994421548,-0.08000754994421548
-0.0591692095310066,-0.0591692095310066
-0.019095477967143382,-0.019095477967143382
0.0009413878147882254,0.0009413878147882254
-0.035124970592688674,-0.035124970592688674
-0.0591692095310066,-0.0591692095310066
-0.057566260268452074,-0.057566260268452074
-0.0591692095310066,-0.0591692095310066
-0.08561787236315632,-0.08561787236315632
-0.0591692095310066,-0.0591692095310066
0.018573829702888043,0.018573829702888043
0.06105198516058305,0.06105198516058305
0.024985626753106158,0.024985626753106158
0.0009413878147882254,0.0009413878147882254
-0.013485155548202532,-0.013485155548202532
-0.11927980687680143,-0.11927980687680143
-0.2667511390318181,-0.2667511390318181
-0.11927980687680143,-0.11927980687680143
0.5267087459326737,0.5267087459326737
1.5077136946160452,1.5077136946160452
2.495130440349635,2.495130440349635
3.315840462777554,3.315840462777554
3.77989427428709,3.77989427428709
3.6171949241378054,3.6171949241378054
2.7764480359279546,2.7764480359279546
1.688846961284707,1.688846961284707
0.8593207179127383,0.8593207179127383
0.4233185184979065,0.4233185184979065
0.17967023058961817,0.17967023058961817
0.0009413878147882254,0.0009413878147882254
-0.13130192634596038,-0.13130192634596038
-0.24030247619966835,-0.24030247619966835
-0.3765531635168033,-0.3765531635168033
-0.4807448655828477,-0.4807448655828477
-0.4887596118956203,-0.4887596118956203
-0.42063426823705286,-0.42063426823705286
-0.3893767576172395,-0.3893767576172395
-0.42063426823705286,-0.42063426823705286
-0.46952422074496597,-0.46952422074496597
-0.4807448655828477,-0.4807448655828477
-0.49677435820839294,-0.49677435820839294
-0.5416569375599197,-0.5416569375599197
-0.5873409915427238,-0.5873409915427238
-0.5416569375599197,-0.5416569375599197
-0.45189177885686616,-0.45189177885686616
-0.42063426823705286,-0.42063426823705286
-0.4935684596832839,-0.4935684596832839
-0.5416569375599197,-0.5416569375599197
-0.5112009015713838,-0.5112009015713838
-0.4807448655828477,-0.4807448655828477
-0.5248259703030972,-0.5248259703030972
-0.5416569375599197,-0.5416569375599197
-0.47673749242646135,-0.47673749242646135
-0.42063426823705286,-0.42063426823705286
-0.47673749242646135,-0.47673749242646135
-0.5416569375599197,-0.5416569375599197
-0.5071935284149974,-0.5071935284149974
-0.42063426823705286,-0.42063426823705286
-0.40300182634895304,-0.40300182634895304
-0.42063426823705286,-0.42063426823705286
-0.4013988770863985,-0.4013988770863985
-0.36052367089125803,-0.36052367089125803
-0.37815611277935784,-0.37815611277935784
-0.42063426823705286,-0.42063426823705286
-0.43425933696876634,-0.43425933696876634
-0.42063426823705286,-0.42063426823705286
-0.42704606528727096,-0.42704606528727096
-0.42063426823705286,-0.42063426823705286
-0.3885752829859623,-0.3885752829859623
-0.36052367089125803,-0.36052367089125803
-0.3701413664665852,-0.3701413664665852
-0.36052367089125803,-0.36052367089125803
-0.318045515433563,-0.318045515433563
-0.3004130735454632,-0.3004130735454632
-0.36052367089125803,-0.36052367089125803
-0.42063426823705286,-0.42063426823705286
-0.4134209965555575,-0.4134209965555575
-0.36052367089125803,-0.36052367089125803
-0.34770007679082177,-0.34770007679082177
-0.36052367089125803,-0.36052367089125803
-0.3517074499472081,-0.3517074499472081
-0.3004130735454632,-0.3004130735454632
-0.26033934198159997,-0.26033934198159997
-0.24030247619966835,-0.24030247619966835
-0.22186855968029126,-0.22186855968029126
-0.17939040422259625,-0.17939040422259625
-0.14332404581511937,-0.14332404581511937
-0.11927980687680143,-0.11927980687680143
-0.10244883961997887,-0.10244883961997887
-0.0591692095310066,-0.0591692095310066
-0.014286630179479797,-0.014286630179479797
0.0009413878147882254,0.0009413878147882254
-0.03272054669885688,-0.03272054669885688
-0.0591692095310066,-0.0591692095310066
-0.04394119153673858,-0.04394119153673858
0.0009413878147882254,0.0009413878147882254
-0.0014630360790435677,-0.0014630360790435677
-0.0591692095310066,-0.0591692095310066
-0.12489012929574228,-0.12489012929574228
-0.11927980687680143,-0.11927980687680143
-0.057566260268452074,-0.057566260268452074
0.0009413878147882254,0.0009413878147882254
-0.008676307760538947,-0.008676307760538947
-0.0591692095310066,-0.0591692095310066
-0.09122819478209718,-0.09122819478209718
-0.0591692095310066,-0.0591692095310066
-0.01268368091692527,-0.01268368091692527
0.0009413878147882254,0.0009413878147882254
-0.017492528704588856,-0.017492528704588856
0.0009413878147882254,0.0009413878147882254
0.04582396716631503,0.04582396716631503
0.06105198516058305,0.06105198516058305
0.018573829702888043,0.018573829702888043
0.0009413878147882254,0.0009413878147882254
0.049831340322701353,0.049831340322701353
0.12196405713765515,0.12196405713765515
0.13558912586936864,0.13558912586936864
0.12196405713765515,0.12196405713765515
0.11234636156232797,0.11234636156232797
0.12196405713765515,0.12196405713765515
0.11234636156232797,0.11234636156232797
0.12196405713765515,0.12196405713765515
0.1387950243944777,0.1387950243944777
0.12196405713765515,0.12196405713765515
0.026588576015660684,0.026588576015660684
-0.0591692095310066,-0.0591692095310066
-0.047948564693124904,-0.047948564693124904
0.06105198516058305,0.06105198516058305
0.14680977070725035,0.14680977070725035
0.12196405713765515,0.12196405713765515
-0.03272054669885688,-0.03272054669885688
-0.24030247619966835,-0.24030247619966835
-0.3989944531925667,-0.3989944531925667
-0.36052367089125803,-0.36052367089125803
-0.0030659853415980964,-0.0030659853415980964
0.7246729798581579,0.7246729798581579
1.6928543344410933,1.6928543344410933
2.653020942711256,2.653020942711256
3.3150389881462767,3.3150389881462767
3.496973729446216,3.496973729446216
3.1331042468463375,3.1331042468463375
2.3516664813510046,2.3516664813510046
1.4363824524323687,1.4363824524323687
0.7246729798581579,0.7246729798581579
0.32794303737591207,0.32794303737591207
0.12196405713765515,0.12196405713765515
-0.07119132900016557,-0.07119132900016557
-0.24030247619966835,-0.24030247619966835
-0.3132366676458994,-0.3132366676458994
-0.3004130735454632,-0.3004130735454632
-0.32525878711505835,-0.32525878711505835
-0.42063426823705286,-0.42063426823705286
-0.52402449567182,-0.52402449567182
-0.5416569375599197,-0.5416569375599197
-0.4871566626330658,-0.4871566626330658
-0.42063426823705286,-0.42063426823705286
-0.40460477561150754,-0.40460477561150754
-0.42063426823705286,-0.42063426823705286
-0.44067113401898445,-0.44067113401898445
-0.42063426823705286,-0.42063426823705286
-0.39178118151107133,-0.39178118151107133
-0.36052367089125803,-0.36052367089125803
-0.34208975437188094,-0.34208975437188094
-0.3004130735454632,-0.3004130735454632
-0.2571334434564909,-0.2571334434564909
-0.24030247619966835,-0.24030247619966835
-0.2715599868194817,-0.2715599868194817
-0.3004130735454632,-0.3004130735454632
-0.29159685260141327,-0.29159685260141327
-0.24030247619966835,-0.24030247619966835
-0.19702284611069606,-0.19702284611069606
-0.17939040422259625,-0.17939040422259625
-0.20183169389835967,-0.20183169389835967
-0.24030247619966835,-0.24030247619966835
-0.2667511390318181,-0.2667511390318181
-0.24030247619966835,-0.24030247619966835
-0.19301547295430976,-0.19301547295430976
-0.17939040422259625,-0.17939040422259625
-0.2186626611551822,-0.2186626611551822
-0.24030247619966835,-0.24030247619966835
-0.23148625525561844,-0.23148625525561844
-0.24030247619966835,-0.24030247619966835
-0.3068248705956813,-0.3068248705956813
-0.36052367089125803,-0.36052367089125803
-0.34770007679082177,-0.34770007679082177
-0.3004130735454632,-0.3004130735454632
-0.31003076912079036,-0.31003076912079036
-0.36052367089125803,-0.36052367089125803
-0.37495021425424874,-0.37495021425424874
-0.3004130735454632,-0.3004130735454632
-0.2122508641049641,-0.2122508641049641
-0.17939040422259625,-0.17939040422259625
-0.19702284611069606,-0.19702284611069606
-0.17939040422259625,-0.17939040422259625
-0.1337063502397922,-0.1337063502397922
-0.11927980687680143,-0.11927980687680143
-0.16576533549088276,-0.16576533549088276
-0.17939040422259625,-0.17939040422259625
-0.12328718003318775,-0.12328718003318775
-0.0591692095310066,-0.0591692095310066
-0.07439722752527463,-0.07439722752527463
-0.11927980687680143,-0.11927980687680143
-0.1329048756085149,-0.1329048756085149
-0.11927980687680143,-0.11927980687680143
-0.12729455318957408,-0.12729455318957408
-0.11927980687680143,-0.11927980687680143
-0.08241197383804727,-0.08241197383804727
-0.0591692095310066,-0.0591692095310066
-0.09523556793848349,-0.09523556793848349
-0.11927980687680143,-0.11927980687680143
-0.09202966941337444,-0.09202966941337444
-0.0591692095310066,-0.0591692095310066
-0.08722082162571086,-0.08722082162571086
-0.11927980687680143,-0.11927980687680143
-0.11927980687680143,-0.11927980687680143
-0.11927980687680143,-0.11927980687680143
-0.16336091159705096,-0.16336091159705096
-0.17939040422259625,-0.17939040422259625
-0.14412552044639662,-0.14412552044639662
-0.11927980687680143,-0.11927980687680143
-0.1601550130719419,-0.1601550130719419
-0.17939040422259625,-0.17939040422259625
-0.14091962192128757,-0.14091962192128757
-0.11927980687680143,-0.11927980687680143
-0.1874051505353689,-0.1874051505353689
-0.24030247619966835,-0.24030247619966835
-0.19702284611069606,-0.19702284611069606
-0.11927980687680143,-0.11927980687680143
-0.1264930785582968,-0.1264930785582968
-0.17939040422259625,-0.17939040422259625
-0.21385381336751863,-0.21385381336751863
-0.24030247619966835,-0.24030247619966835
-0.3092292944895131,-0.3092292944895131
-0.36052367089125803,-0.36052367089125803
-0.34609712752826727,-0.34609712752826727
-0.3004130735454632,-0.3004130735454632
-0.29881012428290865,-0.29881012428290865
-0.3004130735454632,-0.3004130735454632
-0.290795377970136,-0.290795377970136
-0.3004130735454632,-0.3004130735454632
-0.37495021425424874,-0.37495021425424874
-0.42063426823705286,-0.42063426823705286
-0.3813620113044669,-0.3813620113044669
-0.3004130735454632,-0.3004130735454632
-0.2643467151379863,-0.2643467151379863
-0.24030247619966835,-0.24030247619966835
-0.19782432074197334,-0.19782432074197334
-0.17939040422259625,-0.17939040422259625
-0.25152312103755003,-0.25152312103755003
-0.36052367089125803,-0.36052367089125803
-0.44708293106920255,-0.44708293106920255
-0.4807448655828477,-0.4807448655828477
-0.4174283697119438,-0.4174283697119438
-0.11927980687680143,-0.11927980687680143
0.4673996232181561,0.4673996232181561
1.267271305232866,1.267271305232866
2.140878653325084,2.140878653325084
2.9543754040715076,2.9543754040715076
3.4168262663184894,3.4168262663184894
3.195619268085964,3.195619268085964
2.2723204928545555,2.2723204928545555
1.146248635909999,1.146248635909999
0.3808403630402115,0.3808403630402115
0.12196405713765515,0.12196405713765515
0.06425788368569212,0.06425788368569212
-0.0591692095310066,-0.0591692095310066
-0.2507216464062728,-0.2507216464062728
-0.36052367089125803,-0.36052367089125803
-0.3829649605670214,-0.3829649605670214
-0.42063426823705286,-0.42063426823705286
-0.5264289195656517,-0.5264289195656517
-0.6017675349057146,-0.6017675349057146
-0.5873409915427238,-0.5873409915427238
-0.5416569375599197,-0.5416569375599197
-0.5592893794480196,-0.5592893794480196
-0.6017675349057146,-0.6017675349057146
-0.60016458564316,-0.60016458564316
-0.5416569375599197,-0.5416569375599197
-0.4871566626330658,-0.4871566626330658
-0.42063426823705286,-0.42063426823705286
-0.3468986021595445,-0.3468986021595445
-0.3004130735454632,-0.3004130735454632
-0.34529565289699,-0.34529565289699
-0.42063426823705286,-0.42063426823705286
-0.45429620275069793,-0.45429620275069793
-0.42063426823705286,-0.42063426823705286
-0.3645310440476443,-0.3645310440476443
-0.3004130735454632,-0.3004130735454632
-0.26915556292564985,-0.26915556292564985
-0.3004130735454632,-0.3004130735454632
-0.3829649605670214,-0.3829649605670214
-0.42063426823705286,-0.42063426823705286
-0.3925826561423486,-0.3925826561423486
-0.36052367089125803,-0.36052367089125803
-0.387773808354685,-0.387773808354685
-0.42063426823705286,-0.42063426823705286
-0.4198327936057756,-0.4198327936057756
-0.42063426823705286,-0.42063426823705286
-0.49677435820839294,-0.49677435820839294
-0.6017675349057146,-0.6017675349057146
-0.6466501142572414,-0.6466501142572414
-0.6017675349057146,-0.6017675349057146
-0.5504731585039696,-0.5504731585039696
-0.5416569375599197,-0.5416569375599197
-0.557686430185465,-0.557686430185465
-0.5416569375599197,-0.5416569375599197
-0.5208185971467109,-0.5208185971467109
-0.5416569375599197,-0.5416569375599197
-0.60016458564316,-0.60016458564316
-0.6017675349057146,-0.6017675349057146
-0.5200171225154336,-0.5200171225154336
-0.42063426823705286,-0.42063426823705286
-0.3989944531925667,-0.3989944531925667
-0.42063426823705286,-0.42063426823705286
-0.415023945818112,-0.415023945818112
-0.36052367089125803,-0.36052367089125803
-0.3324720587965537,-0.3324720587965537
-0.36052367089125803,-0.36052367089125803
-0.4142224711868347,-0.4142224711868347
-0.42063426823705286,-0.42063426823705286
-0.37254579036041696,-0.37254579036041696
-0.3004130735454632,-0.3004130735454632
-0.2707585121882044,-0.2707585121882044
-0.3004130735454632,-0.3004130735454632
-0.37254579036041696,-0.37254579036041696
-0.42063426823705286,-0.42063426823705286
-0.4174283697119438,-0.4174283697119438
-0.36052367089125803,-0.36052367089125803
-0.2931998018639678,-0.2931998018639678
-0.24030247619966835,-0.24030247619966835
-0.22747888209923212,-0.22747888209923212
-0.24030247619966835,-0.24030247619966835
-0.2571334434564909,-0.2571334434564909
-0.24030247619966835,-0.24030247619966835
-0.20423611779219145,-0.20423611779219145
-0.17939040422259625,-0.17939040422259625
-0.20022874463580514,-0.20022874463580514
-0.24030247619966835,-0.24030247619966835
-0.28037620776353156,-0.28037620776353156
-0.3004130735454632,-0.3004130735454632
-0.31163371838334486,-0.31163371838334486
-0.3004130735454632,-0.3004130735454632
-0.27396441071331346,-0.27396441071331346
-0.24030247619966835,-0.24030247619966835
-0.2322877298868957,-0.2322877298868957
-0.24030247619966835,-0.24030247619966835
-0.2507216464062728,-0.2507216464062728
-0.24030247619966835,-0.24030247619966835
-0.23389067914945025,-0.23389067914945025
-0.24030247619966835,-0.24030247619966835
-0.2547290195626591,-0.2547290195626591
-0.24030247619966835,-0.24030247619966835
-0.2234715089428458,-0.2234715089428458
-0.24030247619966835,-0.24030247619966835
-0.290795377970136,-0.290795377970136
-0.3004130735454632,-0.3004130735454632
-0.263545240506709,-0.263545240506709
-0.24030247619966835,-0.24030247619966835
-0.27636883460714523,-0.27636883460714523
-0.3004130735454632,-0.3004130735454632
-0.2723614614507589,-0.2723614614507589
-0.24030247619966835,-0.24030247619966835
-0.2843835809199179,-0.2843835809199179
-0.36052367089125803,-0.36052367089125803
-0.4118180472930029,-0.4118180472930029
-0.42063426823705286,-0.42063426823705286
-0.4366637608625981,-0.4366637608625981
-0.42063426823705286,-0.42063426823705286
-0.3653325186789216,-0.3653325186789216
-0.3004130735454632,-0.3004130735454632
-0.290795377970136,-0.290795377970136
-0.3004130735454632,-0.3004130735454632
-0.28758947944502694,-0.28758947944502694
-0.24030247619966835,-0.24030247619966835
-0.19942727000452787,-0.19942727000452787
-0.17939040422259625,-0.17939040422259625
