ECG,PPG
-0.1358280908190077,-0.1358280908190077
-0.15091726191041063,-0.15091726191041063
-0.1503969456658795,-0.1503969456658795
-0.1592423218229088,-0.1592423218229088
-0.1384296720416634,-0.1384296720416634
-0.10617006488073301,-0.10617006488073301
-0.09732468872370371,-0.09732468872370371
0.06605461205907273,0.06605461205907273
0.6748246181605009,0.6748246181605009
1.630645559364196,1.630645559364196
2.295609719874987,2.295609719874987
2.1093365043328403,2.1093365043328403
1.2440505896775627,1.2440505896775627
0.4099836496941531,0.4099836496941531
0.0847859968621936,0.0847859968621936
0.13317540760358917,0.13317540760358917
0.16231311729733272,0.16231311729733272
0.030673107430955537,0.030673107430955537
-0.10512943239167075,-0.10512943239167075
-0.11553575728229344,-0.11553575728229344
-0.08483709885495647,-0.08483709885495647
-0.13947030453072568,-0.13947030453072568
-0.24925703212679517,-0.24925703212679517
-0.3059715027806889,-0.3059715027806889
-0.29972770784631525,-0.29972770784631525
-0.2966058103791285,-0.2966058103791285
-0.3002480240908464,-0.3002480240908464
-0.263825886973667,-0.263825886973667
-0.19514414269555713,-0.19514414269555713
-0.13426714208541432,-0.13426714208541432
-0.06974792776355355,-0.06974792776355355
0.02494962874111305,0.02494962874111305
0.13057382638093348,0.13057382638093348
0.1898898782574829,0.1898898782574829
0.20601968183794808,0.20601968183794808
0.21018221179419716,0.21018221179419716
0.2107025280387283,0.2107025280387283
0.1961336731918565,0.1961336731918565
0.1768819721442045,0.1768819721442045
0.1737600746770177,0.1737600746770177
0.1898898782574829,0.1898898782574829
0.21486505799497738,0.21486505799497738
0.240360553977003,0.240360553977003
0.2653357337144975,0.2653357337144975
0.2840671185176184,0.2840671185176184
0.29707502463089674,0.29707502463089674
0.3152860931894865,0.3152860931894865
0.35014728157307257,0.35014728157307257
0.3954147948472813,0.3954147948472813
0.43027598323086735,0.43027598323086735
0.4427635730996146,0.4427635730996146
0.4412026243660212,0.4412026243660212
0.4453651543222703,0.4453651543222703
0.46253559039179776,0.46253559039179776
0.47762476148320065,0.47762476148320065
0.4734622315269516,0.4734622315269516
0.4490073680339882,0.4490073680339882
0.41622744462852673,0.41622744462852673
0.38448815371212747,0.38448815371212747
0.3522285465511971,0.3522285465511971
0.31632672567854875,0.31632672567854875
0.2767826910941825,0.2767826910941825
0.23671834026528507,0.23671834026528507
0.19977588690357445,0.19977588690357445
0.16699596349811294,0.16699596349811294
0.13681762131530711,0.13681762131530711
0.1071595953770324,0.1071595953770324
0.08166409939500678,0.08166409939500678
0.06917650952625953,0.06917650952625953
0.0655342958145416,0.0655342958145416
0.05772955214657456,0.05772955214657456
0.03691690236532916,0.03691690236532916
0.016104252584083753,0.016104252584083753
0.009860457649710129,0.009860457649710129
0.018705833806739427,0.018705833806739427
0.025469944985644186,0.025469944985644186
0.019746466295801696,0.019746466295801696
0.0036166627153365076,0.0036166627153365076
-0.010952192131535277,-0.010952192131535277
-0.016675670821377764,-0.016675670821377764
-0.011472508376066412,-0.011472508376066412
-0.0036677647080993847,-0.0036677647080993847
0.0004947652481496965,0.0004947652481496965
0.0010150814926808316,0.0010150814926808316
-0.0005458672409125739,-0.0005458672409125739
-0.008350610908879601,-0.008350610908879601
-0.027081995712000467,-0.027081995712000467
-0.047894645493245874,-0.047894645493245874
-0.05205717544949495,-0.05205717544949495
-0.04008990182527885,-0.04008990182527885
-0.022919465755751385,-0.022919465755751385
-0.025000730733875928,-0.025000730733875928
-0.047374329248714736,-0.047374329248714736
-0.06558539780730446,-0.06558539780730446
-0.057780654139337445,-0.057780654139337445
-0.03904926933621657,-0.03904926933621657
-0.036968004358092034,-0.036968004358092034
-0.04425243178152793,-0.04425243178152793
-0.04165085055887225,-0.04165085055887225
-0.04373211553699679,-0.04373211553699679
-0.06766666278542902,-0.06766666278542902
-0.07026824400808468,-0.07026824400808468
0.006738560182523319,0.006738560182523319
0.12380971520202873,0.12380971520202873
0.1721991259434243,0.1721991259434243
0.17428039092154884,0.17428039092154884
0.37043961510978685,0.37043961510978685
0.9729658262768414,0.9729658262768414
1.7664480991868223,1.7664480991868223
2.115580299267214,2.115580299267214
1.5869389948235808,1.5869389948235808
0.5317376509144387,0.5317376509144387
-0.20607078383071095,-0.20607078383071095
-0.22844438234554978,-0.22844438234554978
0.05408733843485662,0.05408733843485662
0.09987516795359651,0.09987516795359651
-0.08431678261042534,-0.08431678261042534
-0.1712095954471249,-0.1712095954471249
-0.10617006488073301,-0.10617006488073301
-0.10721069736979529,-0.10721069736979529
-0.24405386968148382,-0.24405386968148382
-0.36632818714630055,-0.36632818714630055
-0.383498623215828,-0.383498623215828
-0.36736881963536283,-0.36736881963536283
-0.3845392557048903,-0.3845392557048903
-0.40587222173066684,-0.40587222173066684
-0.3913033668837951,-0.3913033668837951
-0.34343427238693064,-0.34343427238693064
-0.2711103143971028,-0.2711103143971028
-0.17953465535962307,-0.17953465535962307
-0.07703235518698945,-0.07703235518698945
0.007779192671585589,0.007779192671585589
0.0655342958145416,0.0655342958145416
0.09519232175281629,0.09519232175281629
0.11236275782234376,0.11236275782234376
0.12120813397937305,0.12120813397937305
0.11236275782234376,0.11236275782234376
0.08998915930750495,0.08998915930750495
0.0879078943293804,0.0879078943293804
0.12276908271296647,0.12276908271296647
0.16855691223170635,0.16855691223170635
0.18936956201295177,0.18936956201295177
0.1930117757246697,0.1930117757246697
0.21694632297310193,0.21694632297310193
0.27314047738246455,0.27314047738246455
0.3314158967699517,0.3314158967699517
0.3579520252410396,0.3579520252410396
0.3641958201754132,0.3641958201754132
0.3860491024457209,0.3860491024457209
0.4401619918769589,0.4401619918769589
0.5010389924871017,0.5010389924871017
0.5353798646261567,0.5353798646261567
0.5369408133597501,0.5369408133597501
0.5244532234910029,0.5244532234910029
0.5088437361550687,0.5088437361550687
0.4859498213956988,0.4859498213956988
0.4484870517894571,0.4484870517894571
0.3990570085589993,0.3990570085589993
0.34702538410588574,0.34702538410588574
0.3022781870762081,0.3022781870762081
0.27157952864887114,0.27157952864887114
0.25232782760121913,0.25232782760121913
0.23099486157544258,0.23099486157544258
0.19041019450201402,0.19041019450201402
0.13265509135905804,0.13265509135905804
0.08010315066141338,0.08010315066141338
0.05564828716845002,0.05564828716845002
0.05720923590204343,0.05720923590204343
0.05877018463563684,0.05877018463563684
0.04107943232157824,0.04107943232157824
0.017144885073146023,0.017144885073146023
0.01402298760595921,0.01402298760595921
0.03379500489814235,0.03379500489814235
0.04576227852235846,0.04576227852235846
0.02807152620829986,0.02807152620829986
-0.001066183485443709,-0.001066183485443709
-2.5550996381438678e-05,-2.5550996381438678e-05
0.039518483587984835,0.039518483587984835
0.0775015694387577,0.0775015694387577
0.06917650952625953,0.06917650952625953
0.027551209963768725,0.027551209963768725
0.007779192671585589,0.007779192671585589
0.04107943232157824,0.04107943232157824
0.08998915930750495,0.08998915930750495
0.09467200550828517,0.09467200550828517
0.04680291101142073,0.04680291101142073
0.006738560182523319,0.006738560182523319
0.026510577474706455,0.026510577474706455
0.09050947555203608,0.09050947555203608
0.12328939895749759,0.12328939895749759
0.08998915930750495,0.08998915930750495
0.02599026123017532,0.02599026123017532
-0.010952192131535277,-0.010952192131535277
0.0015353977372119668,0.0015353977372119668
0.04107943232157824,0.04107943232157824
0.07281872323797749,0.07281872323797749
0.08114378315047564,0.08114378315047564
0.08894852681844267,0.08894852681844267
0.11132212533328148,0.11132212533328148
0.11028149284421922,0.11028149284421922
0.05772955214657456,0.05772955214657456
0.03327468865361121,0.03327468865361121
0.12433003144655987,0.12433003144655987
0.2533684600902814,0.2533684600902814
0.31268451196683084,0.31268451196683084
0.48178729143944976,0.48178729143944976
1.0832728701174419,1.0832728701174419
1.9870621868680236,1.9870621868680236
2.4813626191726024,2.4813626191726024
2.0245249564742656,2.0245249564742656
0.9271779967581014,0.9271779967581014
0.02286836376298851,0.02286836376298851
-0.23104596356820545,-0.23104596356820545
-0.07391045771980263,-0.07391045771980263
0.039518483587984835,0.039518483587984835
-0.028122628201062736,-0.028122628201062736
-0.1222998684611982,-0.1222998684611982
-0.13062492837369635,-0.13062492837369635
-0.12542176592838503,-0.12542176592838503
-0.20190825387446187,-0.20190825387446187
-0.317938776404905,-0.317938776404905
-0.3762141957923921,-0.3762141957923921
-0.37049071710254966,-0.37049071710254966
-0.36736881963536283,-0.36736881963536283
-0.37933609325957895,-0.37933609325957895
-0.36112502470098923,-0.36112502470098923
-0.30545118653615777,-0.30545118653615777
-0.25914304077288675,-0.25914304077288675
-0.23312722854633,-0.23312722854633
-0.18681908278305898,-0.18681908278305898
-0.0942027912565169,-0.0942027912565169
-0.008870927153410736,-0.008870927153410736
0.02026678254033283,0.02026678254033283
0.008299508916116725,0.008299508916116725
0.015583936339552617,0.015583936339552617
0.05460765467938775,0.05460765467938775
0.07229840699344635,0.07229840699344635
0.036396586120798026,0.036396586120798026
-0.0047083971971616555,-0.0047083971971616555
0.002576030226274237,0.002576030226274237
0.04316069729970278,0.04316069729970278
0.08010315066141338,0.08010315066141338
0.12224876646843533,0.12224876646843533
0.18676798079029608,0.18676798079029608
0.23463707528716052,0.23463707528716052
0.22319011790747556,0.22319011790747556
0.17480070716607998,0.17480070716607998
0.1545083736293657,0.1545083736293657
0.18156481834498472,0.18156481834498472
0.22579169913013122,0.22579169913013122
0.2528481438457503,0.2528481438457503
0.2507668788676257,0.2507668788676257
0.23099486157544258,0.23099486157544258
0.22787296410825578,0.22787296410825578
0.26637636620355976,0.26637636620355976
0.3121641957222997,0.3121641957222997
0.2866686997402741,0.2866686997402741
0.1680365959871752,0.1680365959871752
0.03795753485439143,0.03795753485439143
-0.0047083971971616555,-0.0047083971971616555
0.040038799832515966,0.040038799832515966
0.0847859968621936,0.0847859968621936
0.05877018463563684,0.05877018463563684
-0.021878833266689116,-0.021878833266689116
-0.0942027912565169,-0.0942027912565169
-0.11865765474948026,-0.11865765474948026
-0.11397480854870004,-0.11397480854870004
-0.1207389197276048,-0.1207389197276048
-0.15455947562212857,-0.15455947562212857
-0.1857784502939967,-0.1857784502939967
-0.1857784502939967,-0.1857784502939967
-0.16496580051275128,-0.16496580051275128
-0.16600643300181356,-0.16600643300181356
-0.2081520488088355,-0.2081520488088355
-0.25654145955023105,-0.25654145955023105
-0.26174462199554244,-0.26174462199554244
-0.2169974249658648,-0.2169974249658648
-0.17016896295806264,-0.17016896295806264
-0.16756738173540697,-0.16756738173540697
-0.1977457239182128,-0.1977457239182128
-0.20763173256430437,-0.20763173256430437
-0.17797370662602965,-0.17797370662602965
-0.1488359969322861,-0.1488359969322861
-0.1592423218229088,-0.1592423218229088
-0.1961847751846194,-0.1961847751846194
-0.2242818523893007,-0.2242818523893007
-0.2362491260135168,-0.2362491260135168
-0.24301323719242157,-0.24301323719242157
-0.24249292094789043,-0.24249292094789043
-0.2393710234807036,-0.2393710234807036
-0.24041165596976588,-0.24041165596976588
-0.252378929593982,-0.252378929593982
-0.2648665194627292,-0.2648665194627292
-0.26798841692991604,-0.26798841692991604
-0.2763134768424142,-0.2763134768424142
-0.30232928906897094,-0.30232928906897094
-0.3288654175400588,-0.3288654175400588
-0.31533719518224934,-0.31533719518224934
-0.26538683570726035,-0.26538683570726035
-0.23520849352445453,-0.23520849352445453
-0.25810240828382447,-0.25810240828382447
-0.27579316059788306,-0.27579316059788306
-0.23260691230179886,-0.23260691230179886
-0.18681908278305898,-0.18681908278305898
-0.22168027116664502,-0.22168027116664502
-0.2050301513416487,-0.2050301513416487
0.18780861327935836,0.18780861327935836
1.087955716318222,1.087955716318222
2.091125435774251,2.091125435774251
2.491768944063225,2.491768944063225
1.927225818746943,1.927225818746943
0.7627580634862627,0.7627580634862627
-0.2539398783275754,-0.2539398783275754
-0.6769569851313882,-0.6769569851313882
-0.6431364292368644,-0.6431364292368644
-0.5161792655712675,-0.5161792655712675
-0.4667492223408097,-0.4667492223408097
-0.46102574365096716,-0.46102574365096716
-0.47559459849783897,-0.47559459849783897
-0.5302278041736082,-0.5302278041736082
-0.5926657535173444,-0.5926657535173444
-0.6030720784079671,-0.6030720784079671
-0.5827797448712528,-0.5827797448712528
-0.5978689159626557,-0.5978689159626557
-0.6446973779704579,-0.6446973779704579
-0.6493802241712381,-0.6493802241712381
-0.5770562661814103,-0.5770562661814103
-0.4599851111619049,-0.4599851111619049
-0.34551553736505514,-0.34551553736505514
-0.26070398950648016,-0.26070398950648016
-0.20919268129789778,-0.20919268129789778
-0.18785971527212122,-0.18785971527212122
-0.16288453553462676,-0.16288453553462676
-0.1150154410377623,-0.1150154410377623
-0.05674002165027517,-0.05674002165027517
-0.030724209423718413,-0.030724209423718413
-0.06506508156277334,-0.06506508156277334
-0.12750303090650955,-0.12750303090650955
-0.15403915937759743,-0.15403915937759743
-0.1207389197276048,-0.1207389197276048
-0.06974792776355355,-0.06974792776355355
-0.045813380515121335,-0.045813380515121335
-0.045813380515121335,-0.045813380515121335
-0.03748832060262317,-0.03748832060262317
-0.020838200777626846,-0.020838200777626846
-0.014074089598722089,-0.014074089598722089
-0.012513140865128683,-0.012513140865128683
0.018185517562208292,0.018185517562208292
0.08582662935125586,0.08582662935125586
0.1498255274285855,0.1498255274285855
0.16283343354186386,0.16283343354186386
0.14045983502702505,0.14045983502702505
0.13889888629343164,0.13889888629343164
0.17740228838873565,0.17740228838873565
0.20966189554966602,0.20966189554966602
0.19353209196920085,0.19353209196920085
0.15190679240671004,0.15190679240671004
0.13161445886999576,0.13161445886999576
0.13109414262546462,0.13109414262546462
0.10767991162156354,0.10767991162156354
0.047843543500483,0.047843543500483
-0.009911559642473007,-0.009911559642473007
-0.02916326069012501,-0.02916326069012501
-0.01823661955497117,-0.01823661955497117
-0.018756935799502304,-0.018756935799502304
-0.05101654296043268,-0.05101654296043268
-0.09212152627839236,-0.09212152627839236
-0.10356848365807733,-0.10356848365807733
-0.07651203894245831,-0.07651203894245831
-0.03956958558074771,-0.03956958558074771
-0.030724209423718413,-0.030724209423718413
-0.06350413282917992,-0.06350413282917992
-0.11969828723854252,-0.11969828723854252
-0.16288453553462676,-0.16288453553462676
-0.16860801422446922,-0.16860801422446922
-0.14051093701978792,-0.14051093701978792
-0.11293417605963776,-0.11293417605963776
-0.1150154410377623,-0.1150154410377623
-0.14311251824244361,-0.14311251824244361
-0.16548611675728242,-0.16548611675728242
-0.156120424355722,-0.156120424355722
-0.11241385981510664,-0.11241385981510664
-0.06402444907371106,-0.06402444907371106
-0.05205717544949495,-0.05205717544949495
-0.08847931256667442,-0.08847931256667442
-0.13530777457447657,-0.13530777457447657
-0.14051093701978792,-0.14051093701978792
-0.10148721867995279,-0.10148721867995279
-0.06402444907371106,-0.06402444907371106
-0.0718291927416781,-0.0718291927416781
-0.10408879990260847,-0.10408879990260847
-0.12386081719479161,-0.12386081719479161
-0.12906397964010297,-0.12906397964010297
-0.14259220199791248,-0.14259220199791248
-0.16288453553462676,-0.16288453553462676
-0.16288453553462676,-0.16288453553462676
-0.1358280908190077,-0.1358280908190077
-0.10617006488073301,-0.10617006488073301
-0.10252785116901507,-0.10252785116901507
-0.12542176592838503,-0.12542176592838503
-0.13894998828619454,-0.13894998828619454
-0.09992626994635939,-0.09992626994635939
-0.03332579064637409,-0.03332579064637409
-0.026561679467469332,-0.026561679467469332
-0.07911362016511399,-0.07911362016511399
0.026510577474706455,0.026510577474706455
0.5426642920495925,0.5426642920495925
1.3850562919455003,1.3850562919455003
2.0432563412773863,2.0432563412773863
2.0135983153391117,2.0135983153391117
1.314813598933797,1.314813598933797
0.4885514026183545,0.4885514026183545
0.05564828716845002,0.05564828716845002
0.04316069729970278,0.04316069729970278
0.10507833039890786,0.10507833039890786
0.01402298760595921,0.01402298760595921
-0.12750303090650955,-0.12750303090650955
-0.1576813730893154,-0.1576813730893154
-0.12646239841744727,-0.12646239841744727
-0.1784940228705608,-0.1784940228705608
-0.3106543489814691,-0.3106543489814691
-0.40170969177441773,-0.40170969177441773
-0.41471759788769613,-0.41471759788769613
-0.41107538417597816,-0.41107538417597816
-0.4194004440884764,-0.4194004440884764
-0.4079534867087914,-0.4079534867087914
-0.36164534094552037,-0.36164534094552037
-0.29972770784631525,-0.29972770784631525
-0.22115995492211388,-0.22115995492211388
-0.11813733850494912,-0.11813733850494912
-0.008870927153410736,-0.008870927153410736
0.05772955214657456,0.05772955214657456
0.07594062070516429,0.07594062070516429
0.07437967197157089,0.07437967197157089
0.08114378315047564,0.08114378315047564
0.09102979179656721,0.09102979179656721
0.0847859968621936,0.0847859968621936
0.06293271459188592,0.06293271459188592
0.053046705945794345,0.053046705945794345
0.07021714201532181,0.07021714201532181
0.09727358673094083,0.09727358673094083
0.11912686900124851,0.11912686900124851
0.14150046751608733,0.14150046751608733
0.17428039092154884,0.17428039092154884
0.20393841685982356,0.20393841685982356
0.22266980166294442,0.22266980166294442
0.24660434891137664,0.24660434891137664
0.28614838349574295,0.28614838349574295
0.3199689393902667,0.3199689393902667
0.32517210183557804,0.32517210183557804
0.3152860931894865,0.3152860931894865
0.32309083685745354,0.32309083685745354
0.351708230306666,0.351708230306666
0.3746021450660359,0.3746021450660359
0.3714802475988491,0.3714802475988491
0.34598475161682346,0.34598475161682346
0.309562614499644,0.309562614499644
0.27053889615980886,0.27053889615980886
0.23151517781997372,0.23151517781997372
0.19925557065904334,0.19925557065904334
0.1768819721442045,0.1768819721442045
0.15658963860749026,0.15658963860749026
0.12589098018015327,0.12589098018015327
0.07958283441688224,0.07958283441688224
0.03171373992001781,0.03171373992001781
0.0036166627153365076,0.0036166627153365076
0.0015353977372119668,0.0015353977372119668
0.0015353977372119668,0.0015353977372119668
-0.01823661955497117,-0.01823661955497117
-0.048935277982308144,-0.048935277982308144
-0.057780654139337445,-0.057780654139337445
-0.035927371869029764,-0.035927371869029764
-0.012513140865128683,-0.012513140865128683
-0.017716303310440034,-0.017716303310440034
-0.044772748026059066,-0.044772748026059066
-0.0645447653182422,-0.0645447653182422
-0.06402444907371106,-0.06402444907371106
-0.05309780793855723,-0.05309780793855723
-0.04321179929246566,-0.04321179929246566
-0.0380086368471543,-0.0380086368471543
-0.03852895309168544,-0.03852895309168544
-0.04373211553699679,-0.04373211553699679
-0.04425243178152793,-0.04425243178152793
-0.0380086368471543,-0.0380086368471543
-0.031244525668249548,-0.031244525668249548
-0.0364476881135609,-0.0364476881135609
-0.05101654296043268,-0.05101654296043268
-0.06974792776355355,-0.06974792776355355
-0.07963393640964511,-0.07963393640964511
-0.0853574150994876,-0.0853574150994876
-0.09576373999011031,-0.09576373999011031
-0.10408879990260847,-0.10408879990260847
-0.09784500496823485,-0.09784500496823485
-0.08431678261042534,-0.08431678261042534
-0.08327615012136307,-0.08327615012136307
-0.08587773134401874,-0.08587773134401874
-0.07286982523074036,-0.07286982523074036
-0.06246350034011766,-0.06246350034011766
-0.08223551763230079,-0.08223551763230079
-0.08951994505573668,-0.08951994505573668
-0.014594405843253224,-0.014594405843253224
0.1160049715340617,0.1160049715340617
0.20601968183794808,0.20601968183794808
0.2960343921418345,0.2960343921418345
0.6051022413933288,0.6051022413933288
1.2424896409439692,1.2424896409439692
1.8913239978742948,1.8913239978742948
1.976655861977401,1.976655861977401
1.268505453170526,1.268505453170526
0.251807511356688,0.251807511356688
-0.3194997251384984,-0.3194997251384984
-0.2315662798127366,-0.2315662798127366
0.041599748566109374,0.041599748566109374
0.03327468865361121,0.03327468865361121
-0.17901433911509193,-0.17901433911509193
-0.2773541093314765,-0.2773541093314765
-0.2362491260135168,-0.2362491260135168
-0.2586227245283556,-0.2586227245283556
-0.38818146941660825,-0.38818146941660825
-0.49016345334471073,-0.49016345334471073
-0.5146183168376741,-0.5146183168376741
-0.5302278041736082,-0.5302278041736082
-0.5531217189329781,-0.5531217189329781
-0.5385528640861063,-0.5385528640861063
-0.4922447183228353,-0.4922447183228353
-0.4542616324720624,-0.4542616324720624
-0.40170969177441773,-0.40170969177441773
-0.2971261266236596,-0.2971261266236596
-0.1665267492463447,-0.1665267492463447
-0.07911362016511399,-0.07911362016511399
-0.04321179929246566,-0.04321179929246566
-0.022919465755751385,-0.022919465755751385
0.0015353977372119668,0.0015353977372119668
0.02026678254033283,0.02026678254033283
0.023388680007519643,0.023388680007519643
0.016624568828614888,0.016624568828614888
0.012982355116896941,0.012982355116896941
0.02286836376298851,0.02286836376298851
0.04732322725595186,0.04732322725595186
0.07854220192781997,0.07854220192781997
0.105598646643439,0.105598646643439
0.13057382638093348,0.13057382638093348
0.16127248480827047,0.16127248480827047
0.19509304070279423,0.19509304070279423
0.22006822044028873,0.22006822044028873
0.24296213519965867,0.24296213519965867
0.2799045885613693,0.2799045885613693
0.3262127343246403,0.3262127343246403
0.34858633283947915,0.34858633283947915
0.3392206404379187,0.3392206404379187
0.3303752642808894,0.3303752642808894
0.3522285465511971,0.3522285465511971
0.3834475212230652,0.3834475212230652
0.38084594000040956,0.38084594000040956
0.3392206404379187,0.3392206404379187
0.2975953408754279,0.2975953408754279
0.28458743476214954,0.28458743476214954
0.27938427231683816,0.27938427231683816
0.24400276768872095,0.24400276768872095
0.17532102341061112,0.17532102341061112
0.10820022786609468,0.10820022786609468
0.06761556079266613,0.06761556079266613
0.04264038105517164,0.04264038105517164
0.0109010901387724,0.0109010901387724
-0.027081995712000467,-0.027081995712000467
-0.0556993891612129,-0.0556993891612129
-0.07130887649714696,-0.07130887649714696
-0.0853574150994876,-0.0853574150994876
-0.09940595370182825,-0.09940595370182825
-0.10669038112526415,-0.10669038112526415
-0.10564974863620187,-0.10564974863620187
-0.10200753492448393,-0.10200753492448393
-0.10252785116901507,-0.10252785116901507
-0.10981227859245096,-0.10981227859245096
-0.11813733850494912,-0.11813733850494912
-0.11813733850494912,-0.11813733850494912
-0.10044658619089053,-0.10044658619089053
-0.07443077396433377,-0.07443077396433377
-0.060902551606524254,-0.060902551606524254
-0.06766666278542902,-0.06766666278542902
-0.07599172269792717,-0.07599172269792717
-0.06246350034011766,-0.06246350034011766
-0.030724209423718413,-0.030724209423718413
-0.015635038332315495,-0.015635038332315495
-0.0364476881135609,-0.0364476881135609
-0.07391045771980263,-0.07391045771980263
-0.07963393640964511,-0.07963393640964511
-0.05153685920496382,-0.05153685920496382
-0.024480414489344793,-0.024480414489344793
-0.024480414489344793,-0.024480414489344793
-0.0380086368471543,-0.0380086368471543
-0.03904926933621657,-0.03904926933621657
-0.026041363222938197,-0.026041363222938197
-0.028122628201062736,-0.028122628201062736
-0.0645447653182422,-0.0645447653182422
-0.10773101361432642,-0.10773101361432642
-0.11293417605963776,-0.11293417605963776
-0.08431678261042534,-0.08431678261042534
-0.0541384404276195,-0.0541384404276195
-0.0005458672409125739,-0.0005458672409125739
0.10663927913250126,0.10663927913250126
0.2164260067285708,0.2164260067285708
0.3152860931894865,0.3152860931894865
0.6233133099519185,0.6233133099519185
1.3470732060947275,1.3470732060947275
2.16396971000861,2.16396971000861
2.3200645833679503,2.3200645833679503
1.503168079454068,1.503168079454068
0.3236111531019847,0.3236111531019847
-0.34707648609864855,-0.34707648609864855
-0.3122152977150625,-0.3122152977150625
-0.04945559422683928,-0.04945559422683928
0.018185517562208292,0.018185517562208292
-0.08483709885495647,-0.08483709885495647
-0.15976263806743993,-0.15976263806743993
-0.16808769797993808,-0.16808769797993808
-0.20919268129789778,-0.20919268129789778
-0.32054035762756067,-0.32054035762756067
-0.42772550400097453,-0.42772550400097453
-0.45738352993924924,-0.45738352993924924
-0.4272051877564434,-0.4272051877564434
-0.38974241815020166,-0.38974241815020166
-0.35227964854395993,-0.35227964854395993
-0.29972770784631525,-0.29972770784631525
-0.24561481841507724,-0.24561481841507724
-0.20711141631977323,-0.20711141631977323
-0.15403915937759743,-0.15403915937759743
-0.07443077396433377,-0.07443077396433377
-0.007830294664348467,-0.007830294664348467
0.002576030226274237,0.002576030226274237
0.006218243937992183,0.006218243937992183
0.061892082102823646,0.061892082102823646
0.13681762131530711,0.13681762131530711
0.14670362996139868,0.14670362996139868
0.0847859968621936,0.0847859968621936
0.041599748566109374,0.041599748566109374
0.09050947555203608,0.09050947555203608
0.19093051074654516,0.19093051074654516
0.2356777077762228,0.2356777077762228
0.18624766454576494,0.18624766454576494
0.11548465528953057,0.11548465528953057
0.11392370655593716,0.11392370655593716
0.18416639956764042,0.18416639956764042
0.26637636620355976,0.26637636620355976
0.3184079906566733,0.3184079906566733
0.34234253790510555,0.34234253790510555
0.3433831703941678,0.3433831703941678
0.32933463179182715,0.32933463179182715
0.3168470419230799,0.3168470419230799
0.32309083685745354,0.32309083685745354
0.3418222216605744,0.3418222216605744
0.3465050678613546,0.3465050678613546
0.32152988812386013,0.32152988812386013
0.27730300733871366,0.27730300733871366
0.23411675904262938,0.23411675904262938
0.2122634767723217,0.2122634767723217
0.2122634767723217,0.2122634767723217
0.2122634767723217,0.2122634767723217
0.1768819721442045,0.1768819721442045
0.08946884306297381,0.08946884306297381
-0.017716303310440034,-0.017716303310440034
-0.07286982523074036,-0.07286982523074036
-0.04061021806980998,-0.04061021806980998
0.016104252584083753,0.016104252584083753
-0.0031474484635682495,-0.0031474484635682495
-0.10304816741354621,-0.10304816741354621
-0.17641275789243627,-0.17641275789243627
-0.14623441570963042,-0.14623441570963042
-0.06402444907371106,-0.06402444907371106
-0.025521046978407062,-0.025521046978407062
-0.048414961737777006,-0.048414961737777006
-0.08431678261042534,-0.08431678261042534
-0.11033259483698209,-0.11033259483698209
-0.13426714208541432,-0.13426714208541432
-0.14623441570963042,-0.14623441570963042
-0.1269827146619784,-0.1269827146619784
-0.09160121003386122,-0.09160121003386122
-0.07911362016511399,-0.07911362016511399
-0.10252785116901507,-0.10252785116901507
-0.13218587710728977,-0.13218587710728977
-0.13790935579713226,-0.13790935579713226
-0.11709670601588686,-0.11709670601588686
-0.09160121003386122,-0.09160121003386122
-0.0837964663658942,-0.0837964663658942
-0.09992626994635939,-0.09992626994635939
-0.12854366339557183,-0.12854366339557183
-0.144673466976037,-0.144673466976037
-0.1503969456658795,-0.1503969456658795
-0.15091726191041063,-0.15091726191041063
-0.16288453553462676,-0.16288453553462676
-0.18942066400571464,-0.18942066400571464
-0.20711141631977323,-0.20711141631977323
-0.18942066400571464,-0.18942066400571464
-0.14675473195416155,-0.14675473195416155
-0.12750303090650955,-0.12750303090650955
-0.14675473195416155,-0.14675473195416155
-0.17433149291431171,-0.17433149291431171
-0.19410351020649486,-0.19410351020649486
-0.2112739462760223,-0.2112739462760223
-0.1993066726518062,-0.1993066726518062
-0.14311251824244361,-0.14311251824244361
-0.11813733850494912,-0.11813733850494912
-0.1712095954471249,-0.1712095954471249
-0.07807298767605171,-0.07807298767605171
0.5228922747574094,0.5228922747574094
1.606711012115764,1.606711012115764
2.5266301324468112,2.5266301324468112
2.55368657716243,2.55368657716243
1.6212798669626356,1.6212798669626356
0.40009764104806156,0.40009764104806156
-0.3746532470587987,-0.3746532470587987
-0.5265855904618902,-0.5265855904618902
-0.39286431561738844,-0.39286431561738844
-0.3132559302041248,-0.3132559302041248
-0.3283451012955277,-0.3283451012955277
-0.33042636627365224,-0.33042636627365224
-0.31429656269318706,-0.31429656269318706
-0.35592186225567785,-0.35592186225567785
-0.44957878627128217,-0.44957878627128217
-0.5125370518595496,-0.5125370518595496
-0.5208621117720477,-0.5208621117720477
-0.5161792655712675,-0.5161792655712675
-0.5187808467939232,-0.5187808467939232
-0.5036916757025203,-0.5036916757025203
-0.46102574365096716,-0.46102574365096716
-0.3980674780626998,-0.3980674780626998
-0.31013403273693796,-0.31013403273693796
-0.20763173256430437,-0.20763173256430437
-0.12490144968385387,-0.12490144968385387
-0.09680437247917258,-0.09680437247917258
-0.09056057754479896,-0.09056057754479896
-0.07234950898620923,-0.07234950898620923
-0.047374329248714736,-0.047374329248714736
-0.0452930642705902,-0.0452930642705902
-0.06870729527449128,-0.06870729527449128
-0.08639804758854988,-0.08639804758854988
-0.07599172269792717,-0.07599172269792717
-0.04945559422683928,-0.04945559422683928
-0.031244525668249548,-0.031244525668249548
-0.02135851702215798,-0.02135851702215798
-0.0021068159745059795,-0.0021068159745059795
0.03431532114267348,0.03431532114267348
0.06917650952625953,0.06917650952625953
0.08946884306297381,0.08946884306297381
0.10195643293172105,0.10195643293172105
0.12433003144655987,0.12433003144655987
0.15190679240671004,0.15190679240671004
0.17271944218795543,0.17271944218795543
0.1857273483012338,0.1857273483012338
0.20289778437076128,0.20289778437076128
0.22631201537466236,0.22631201537466236
0.24244181895512754,0.24244181895512754
0.23827928899887846,0.23827928899887846
0.21694632297310193,0.21694632297310193
0.18884924576842063,0.18884924576842063
0.16127248480827047,0.16127248480827047
0.13265509135905804,0.13265509135905804
0.10351738166531446,0.10351738166531446
0.07594062070516429,0.07594062070516429
0.04836385974501413,0.04836385974501413
0.017144885073146023,0.017144885073146023
-0.010431875887004142,-0.010431875887004142
-0.021878833266689116,-0.021878833266689116
-0.015635038332315495,-0.015635038332315495
-0.010431875887004142,-0.010431875887004142
-0.02239914951122025,-0.02239914951122025
-0.04425243178152793,-0.04425243178152793
-0.059861919117461984,-0.059861919117461984
-0.0645447653182422,-0.0645447653182422
-0.06402444907371106,-0.06402444907371106
-0.060382235361993115,-0.060382235361993115
-0.04945559422683928,-0.04945559422683928
-0.034886739379967495,-0.034886739379967495
-0.030724209423718413,-0.030724209423718413
-0.04269148304793452,-0.04269148304793452
-0.060382235361993115,-0.060382235361993115
-0.06714634654089788,-0.06714634654089788
-0.05517907291668177,-0.05517907291668177
-0.036968004358092034,-0.036968004358092034
-0.03020389317918728,-0.03020389317918728
-0.04113053431434112,-0.04113053431434112
-0.05465875667215063,-0.05465875667215063
-0.05205717544949495,-0.05205717544949495
-0.035927371869029764,-0.035927371869029764
-0.02916326069012501,-0.02916326069012501
-0.04269148304793452,-0.04269148304793452
-0.05465875667215063,-0.05465875667215063
-0.0541384404276195,-0.0541384404276195
-0.045813380515121335,-0.045813380515121335
-0.044772748026059066,-0.044772748026059066
-0.05465875667215063,-0.05465875667215063
-0.06714634654089788,-0.06714634654089788
-0.07130887649714696,-0.07130887649714696
-0.061422867851055385,-0.061422867851055385
-0.04321179929246566,-0.04321179929246566
-0.028122628201062736,-0.028122628201062736
-0.025000730733875928,-0.025000730733875928
-0.033846106890905225,-0.033846106890905225
-0.0380086368471543,-0.0380086368471543
-0.011992824620597548,-0.011992824620597548
0.026510577474706455,0.026510577474706455
0.013502671361428076,0.013502671361428076
-0.0031474484635682495,-0.0031474484635682495
0.25128719511215686,0.25128719511215686
0.9864940486346508,0.9864940486346508
1.8980881090531996,1.8980881090531996
2.2924878224078,2.2924878224078
1.8377314246875878,1.8377314246875878
0.9651610826088743,0.9651610826088743
0.35118791406213484,0.35118791406213484
0.18884924576842063,0.18884924576842063
0.18676798079029608,0.18676798079029608
0.10351738166531446,0.10351738166531446
-0.013033457109659818,-0.013033457109659818
-0.05309780793855723,-0.05309780793855723
-0.05257749169402609,-0.05257749169402609
-0.10617006488073301,-0.10617006488073301
-0.21439584374320914,-0.21439584374320914
-0.29608549413459734,-0.29608549413459734
-0.3122152977150625,-0.3122152977150625
-0.30649181902522005,-0.30649181902522005
-0.3221013063611541,-0.3221013063611541
-0.3340685799853702,-0.3340685799853702
-0.2976464428681907,-0.2976464428681907
-0.21803805745492708,-0.21803805745492708
-0.13166556086275863,-0.13166556086275863
-0.0380086368471543,-0.0380086368471543
0.07125777450438407,0.07125777450438407
0.17115849345436204,0.17115849345436204
0.20810094681607264,0.20810094681607264
0.19561335694732537,0.19561335694732537
0.18364608332310928,0.18364608332310928
0.19509304070279423,0.19509304070279423
0.20341810061529242,0.20341810061529242
0.1883289295238895,0.1883289295238895
0.1690772284762375,0.1690772284762375
0.1794835533668602,0.1794835533668602
0.21850727170669534,0.21850727170669534
0.2502465626230946,0.2502465626230946
0.2528481438457503,0.2528481438457503
0.24816529764497003,0.24816529764497003
0.27314047738246455,0.27314047738246455
0.32777368305823373,0.32777368305823373
0.38084594000040956,0.38084594000040956
0.4084227009605597,0.4084227009605597
0.4229915558074315,0.4229915558074315
0.44484483807773917,0.44484483807773917
0.47554349650507616,0.47554349650507616
0.4984374112644461,0.4984374112644461
0.5046812061988197,0.5046812061988197
0.5010389924871017,0.5010389924871017
0.49219361633007247,0.49219361633007247
0.47138096654882705,0.47138096654882705
0.43287756445352304,0.43287756445352304
0.3850084699566586,0.3850084699566586
0.3428628541496367,0.3428628541496367
0.3106032469887063,0.3106032469887063
0.28094522105043157,0.28094522105043157
0.25128719511215686,0.25128719511215686
0.22214948541841328,0.22214948541841328
0.1914508269910763,0.1914508269910763
0.15606932236295912,0.15606932236295912
0.12016750149031079,0.12016750149031079
0.09467200550828517,0.09467200550828517
0.08686726184031814,0.08686726184031814
0.08842821057391154,0.08842821057391154
0.08686726184031814,0.08686726184031814
0.0775015694387577,0.0775015694387577
0.06917650952625953,0.06917650952625953
0.06657492830360386,0.06657492830360386
0.06345303083641705,0.06345303083641705
0.049404492234076405,0.049404492234076405
0.03223405616454894,0.03223405616454894
0.02599026123017532,0.02599026123017532
0.03691690236532916,0.03691690236532916
0.05668891965751229,0.05668891965751229
0.07021714201532181,0.07021714201532181
0.06761556079266613,0.06761556079266613
0.050965440967669806,0.050965440967669806
0.03327468865361121,0.03327468865361121
0.028591842452830994,0.028591842452830994
0.03587626987626689,0.03587626987626689
0.04264038105517164,0.04264038105517164
0.039518483587984835,0.039518483587984835
0.038477851098922565,0.038477851098922565
0.03691690236532916,0.03691690236532916
0.03223405616454894,0.03223405616454894
0.02182773127392624,0.02182773127392624
0.0109010901387724,0.0109010901387724
0.0036166627153365076,0.0036166627153365076
-0.0005458672409125739,-0.0005458672409125739
-0.009391243397941871,-0.009391243397941871
-0.021878833266689116,-0.021878833266689116
-0.018756935799502304,-0.018756935799502304
0.0109010901387724,0.0109010901387724
0.03483563738720462,0.03483563738720462
0.028591842452830994,0.028591842452830994
0.04420132978876505,0.04420132978876505
0.1352566725817137,0.1352566725817137
0.24244181895512754,0.24244181895512754
0.30540008454339496,0.30540008454339496
0.4869904538847611,0.4869904538847611
1.0307209294197974,1.0307209294197974
1.791943595168848,1.791943595168848
2.168132239964859,2.168132239964859
1.7206602696680824,1.7206602696680824
0.740904781215955,0.740904781215955
-0.024480414489344793,-0.024480414489344793
-0.16444548426822014,-0.16444548426822014
0.06241239834735478,0.06241239834735478
0.17740228838873565,0.17740228838873565
0.050445124723138675,0.050445124723138675
-0.08639804758854988,-0.08639804758854988
-0.06558539780730446,-0.06558539780730446
-0.006789662175286195,-0.006789662175286195
-0.08275583387683193,-0.08275583387683193
-0.2466554509041395,-0.2466554509041395
-0.3340685799853702,-0.3340685799853702
-0.31429656269318706,-0.31429656269318706
-0.2929635966674105,-0.2929635966674105
-0.31429656269318706,-0.31429656269318706
-0.3158575114267805,-0.3158575114267805
-0.25133829710491973,-0.25133829710491973
-0.15299852688853519,-0.15299852688853519
-0.05726033789480631,-0.05726033789480631
0.027551209963768725,0.027551209963768725
0.10872054411062582,0.10872054411062582
0.1794835533668602,0.1794835533668602
0.2460840326668455,0.2460840326668455
0.30279850332073927,0.30279850332073927
0.32777368305823373,0.32777368305823373
0.30904229825511287,0.30904229825511287
0.27157952864887114,0.27157952864887114
0.25857162253559274,0.25857162253559274
0.29239217843011656,0.29239217843011656
0.351708230306666,0.351708230306666
0.39021163240197,0.39021163240197
0.38448815371212747,0.38448815371212747
0.35743170899650845,0.35743170899650845
0.3506675978176037,0.3506675978176037
0.3798053075113473,0.3798053075113473
0.42819471825274286,0.42819471825274286
0.4703403340597648,0.4703403340597648
0.4958358300417904,0.4958358300417904
0.5083234199105376,0.5083234199105376
0.5109250011331933,0.5109250011331933
0.5062421549324131,0.5062421549324131
0.5010389924871017,0.5010389924871017
0.5046812061988197,0.5046812061988197
0.5145672148449113,0.5145672148449113
0.5119656336222556,0.5119656336222556
0.4781450777277318,0.4781450777277318
0.41986965834024464,0.41986965834024464
0.370959931354318,0.370959931354318
0.3621145551972887,0.3621145551972887
0.3798053075113473,0.3798053075113473
0.3834475212230652,0.3834475212230652
0.34962696532854143,0.34962696532854143
0.2960343921418345,0.2960343921418345
0.24972624637856344,0.24972624637856344
0.22058853668481987,0.22058853668481987
0.2002962031481056,0.2002962031481056
0.19093051074654516,0.19093051074654516
0.1930117757246697,0.1930117757246697
0.19509304070279423,0.19509304070279423
0.17532102341061112,0.17532102341061112
0.13993951878249392,0.13993951878249392
0.11964718524577965,0.11964718524577965
0.13733793755983825,0.13733793755983825
0.17167880969889315,0.17167880969889315
0.18156481834498472,0.18156481834498472
0.15554900611842798,0.15554900611842798
0.12849256140280896,0.12849256140280896
0.1321347751145269,0.1321347751145269
0.15502868987389684,0.15502868987389684
0.16439438227545727,0.16439438227545727
0.1545083736293657,0.1545083736293657
0.1487848949395232,0.1487848949395232
0.1659553310090507,0.1659553310090507
0.19925557065904334,0.19925557065904334
0.2299542290863803,0.2299542290863803
0.23515739153169166,0.23515739153169166
0.20549936559341694,0.20549936559341694
0.15658963860749026,0.15658963860749026
0.13265509135905804,0.13265509135905804
0.13421604009265142,0.13421604009265142
0.13837857004890053,0.13837857004890053
0.13681762131530711,0.13681762131530711
0.1487848949395232,0.1487848949395232
0.16699596349811294,0.16699596349811294
0.15919121983014592,0.15919121983014592
0.13161445886999576,0.13161445886999576
0.13005351013640234,0.13005351013640234
0.16543501476451955,0.16543501476451955
0.18624766454576494,0.18624766454576494
0.16543501476451955,0.16543501476451955
0.15658963860749026,0.15658963860749026
0.2179869554621642,0.2179869554621642
0.2929124946746477,0.2929124946746477
0.28042490480590043,0.28042490480590043
0.2887499647183986,0.2887499647183986
0.6852309430511236,0.6852309430511236
1.6394909355212253,1.6394909355212253
2.6483841336670966,2.6483841336670966
2.8513074690342393,2.8513074690342393
1.973013648265683,1.973013648265683
0.7034420116097133,0.7034420116097133
-0.06766666278542902,-0.06766666278542902
-0.14831568068775497,-0.14831568068775497
0.016104252584083753,0.016104252584083753
0.05356702219032548,0.05356702219032548
-0.018756935799502304,-0.018756935799502304
-0.06246350034011766,-0.06246350034011766
-0.06714634654089788,-0.06714634654089788
-0.0910808937893301,-0.0910808937893301
-0.14363283448697475,-0.14363283448697475
-0.19514414269555713,-0.19514414269555713
-0.23000533107914317,-0.23000533107914317
-0.24873671588226404,-0.24873671588226404
-0.252378929593982,-0.252378929593982
-0.2362491260135168,-0.2362491260135168
-0.19982698889633735,-0.19982698889633735
-0.1488359969322861,-0.1488359969322861
-0.08587773134401874,-0.08587773134401874
0.0015353977372119668,0.0015353977372119668
0.09935485170906538,0.09935485170906538
0.17896323712232906,0.17896323712232906
0.21538537423950851,0.21538537423950851
0.23463707528716052,0.23463707528716052
0.2507668788676257,0.2507668788676257
0.23984023773247187,0.23984023773247187
0.1930117757246697,0.1930117757246697
0.15919121983014592,0.15919121983014592
0.182605450834047,0.182605450834047
0.23775897275434732,0.23775897275434732
0.26377478498090406,0.26377478498090406
0.24972624637856344,0.24972624637856344
0.24296213519965867,0.24296213519965867
0.27574205860512024,0.27574205860512024
0.3256924180801092,0.3256924180801092
0.34962696532854143,0.34962696532854143
0.3454644353722923,0.3454644353722923
0.3439034866386989,0.3439034866386989
0.3641958201754132,0.3641958201754132
0.39177258113556335,0.39177258113556335
0.4131055471613399,0.4131055471613399
0.43808072689883437,0.43808072689883437
0.4703403340597648,0.4703403340597648
0.48438887266210545,0.48438887266210545
0.455771479212893,0.455771479212893
0.3990570085589993,0.3990570085589993
0.34962696532854143,0.34962696532854143
0.32152988812386013,0.32152988812386013
0.3033188195652704,0.3033188195652704
0.28614838349574295,0.28614838349574295
0.2736607936269957,0.2736607936269957
0.2590919387801239,0.2590919387801239
0.22735264786372464,0.22735264786372464
0.17323975843248657,0.17323975843248657
0.11756592026765511,0.11756592026765511
0.08270473188406906,0.08270473188406906
0.06917650952625953,0.06917650952625953
0.05877018463563684,0.05877018463563684
0.04628259476688959,0.04628259476688959
0.04264038105517164,0.04264038105517164
0.04732322725595186,0.04732322725595186
0.038477851098922565,0.038477851098922565
0.004136978959867642,0.004136978959867642
-0.028642944445593874,-0.028642944445593874
-0.03228515815731182,-0.03228515815731182
-0.017716303310440034,-0.017716303310440034
-0.02135851702215798,-0.02135851702215798
-0.05049622671590155,-0.05049622671590155
-0.06766666278542902,-0.06766666278542902
-0.04008990182527885,-0.04008990182527885
0.010380773894241264,0.010380773894241264
0.02911215869736213,0.02911215869736213
-0.006789662175286195,-0.006789662175286195
-0.06246350034011766,-0.06246350034011766
-0.086918363833081,-0.086918363833081
-0.07026824400808468,-0.07026824400808468
-0.045813380515121335,-0.045813380515121335
-0.04269148304793452,-0.04269148304793452
-0.058821286628399715,-0.058821286628399715
-0.0733901414752715,-0.0733901414752715
-0.08743868007761214,-0.08743868007761214
-0.10044658619089053,-0.10044658619089053
-0.11137322732604436,-0.11137322732604436
-0.11241385981510664,-0.11241385981510664
-0.09160121003386122,-0.09160121003386122
-0.05101654296043268,-0.05101654296043268
-0.02343978200028252,-0.02343978200028252
-0.04113053431434112,-0.04113053431434112
-0.07234950898620923,-0.07234950898620923
-0.0629838165846488,-0.0629838165846488
-0.03436642313543636,-0.03436642313543636
-0.04997591047137041,-0.04997591047137041
-0.07443077396433377,-0.07443077396433377
-0.024480414489344793,-0.024480414489344793
0.04836385974501413,0.04836385974501413
0.04680291101142073,0.04680291101142073
0.15086615991764776,0.15086615991764776
0.7429860461940796,0.7429860461940796
1.8205609886180605,1.8205609886180605
2.708220501788177,2.708220501788177
2.6603514072913126,2.6603514072913126
1.6733114914157492,1.6733114914157492
0.4947951975527281,0.4947951975527281
-0.16444548426822014,-0.16444548426822014
-0.23364754479086114,-0.23364754479086114
-0.10929196234791982,-0.10929196234791982
-0.08431678261042534,-0.08431678261042534
-0.12438113343932275,-0.12438113343932275
-0.11761702226041798,-0.11761702226041798
-0.11137322732604436,-0.11137322732604436
-0.19670509142915052,-0.19670509142915052
-0.3221013063611541,-0.3221013063611541
-0.3699704008580185,-0.3699704008580185
-0.34863743483224197,-0.34863743483224197
-0.3507186998103665,-0.3507186998103665
-0.3845392557048903,-0.3845392557048903
-0.3772548282814544,-0.3772548282814544
-0.30493087029162663,-0.30493087029162663
-0.21283489500961572,-0.21283489500961572
-0.12490144968385387,-0.12490144968385387
-0.03904926933621657,-0.03904926933621657
0.03431532114267348,0.03431532114267348
0.06813587703719727,0.06813587703719727
0.0790625181723511,0.0790625181723511
0.09363137301922289,0.09363137301922289
0.10976117659968808,0.10976117659968808
0.10820022786609468,0.10820022786609468
0.0879078943293804,0.0879078943293804
0.06865619328172841,0.06865619328172841
0.06969682577079067,0.06969682577079067
0.09207042428562949,0.09207042428562949
0.12328939895749759,0.12328939895749759
0.14826457869499207,0.14826457869499207
0.1602318523192082,0.1602318523192082
0.17115849345436204,0.17115849345436204
0.19353209196920085,0.19353209196920085
0.22891359659731803,0.22891359659731803
0.2606528875137173,0.2606528875137173
0.28042490480590043,0.28042490480590043
0.2975953408754279,0.2975953408754279
0.3272533668137026,0.3272533668137026
0.36627708515353774,0.36627708515353774
0.39853669231446814,0.39853669231446814
0.4141461796504022,0.4141461796504022
0.4141461796504022,0.4141461796504022
0.4053008034933729,0.4053008034933729
0.3922928973800945,0.3922928973800945
0.3761630937996293,0.3761630937996293
0.3543098115293216,0.3543098115293216
0.3272533668137026,0.3272533668137026
0.2991562896090213,0.2991562896090213
0.2767826910941825,0.2767826910941825
0.2590919387801239,0.2590919387801239
0.23775897275434732,0.23775897275434732
0.20914157930513488,0.20914157930513488
0.182605450834047,0.182605450834047
0.16699596349811294,0.16699596349811294
0.15971153607467706,0.15971153607467706
0.1513864761621789,0.1513864761621789
0.1409801512715562,0.1409801512715562
0.13317540760358917,0.13317540760358917
0.1295331938918712,0.1295331938918712
0.12745192891374668,0.12745192891374668
0.12328939895749759,0.12328939895749759
0.1160049715340617,0.1160049715340617
0.10767991162156354,0.10767991162156354
0.10247674917625219,0.10247674917625219
0.10611896288797014,0.10611896288797014
0.1128830740668749,0.1128830740668749
0.11236275782234376,0.11236275782234376
0.1040376979098456,0.1040376979098456
0.09987516795359651,0.09987516795359651
0.1071595953770324,0.1071595953770324
0.1160049715340617,0.1160049715340617
0.1144440228004683,0.1144440228004683
0.10507833039890786,0.10507833039890786
0.09519232175281629,0.09519232175281629
0.08582662935125586,0.08582662935125586
0.07125777450438407,0.07125777450438407
0.061892082102823646,0.061892082102823646
0.05981081712469911,0.05981081712469911
0.05877018463563684,0.05877018463563684
0.05564828716845002,0.05564828716845002
0.05772955214657456,0.05772955214657456
0.06293271459188592,0.06293271459188592
0.06501397957001046,0.06501397957001046
0.06761556079266613,0.06761556079266613
0.07854220192781997,0.07854220192781997
0.08998915930750495,0.08998915930750495
0.09155010804109835,0.09155010804109835
0.09519232175281629,0.09519232175281629
0.11652528777859283,0.11652528777859283
0.14462236498327413,0.14462236498327413
0.13889888629343164,0.13889888629343164
0.11184244157781262,0.11184244157781262
0.2299542290863803,0.2299542290863803
0.7336203537925192,0.7336203537925192
1.5864186785790495,1.5864186785790495
2.2623094802249946,2.2623094802249946
2.164490026253141,2.164490026253141
1.3423903598939473,1.3423903598939473
0.5119656336222556,0.5119656336222556
0.22162916917388215,0.22162916917388215
0.2955140758973034,0.2955140758973034
0.2814655372949627,0.2814655372949627
0.11756592026765511,0.11756592026765511
0.040038799832515966,0.040038799832515966
0.09155010804109835,0.09155010804109835
0.08894852681844267,0.08894852681844267
-0.03332579064637409,-0.03332579064637409
-0.15403915937759743,-0.15403915937759743
-0.19566445894008827,-0.19566445894008827
-0.20867236505336664,-0.20867236505336664
-0.23312722854633,-0.23312722854633
-0.24353355343695268,-0.24353355343695268
-0.21439584374320914,-0.21439584374320914
-0.1576813730893154,-0.1576813730893154
-0.08587773134401874,-0.08587773134401874
-0.0047083971971616555,-0.0047083971971616555
0.08270473188406906,0.08270473188406906
0.1649146985199884,0.1649146985199884
0.240360553977003,0.240360553977003
0.290310913451992,0.290310913451992
0.3064407170324572,0.3064407170324572
0.29343281091917883,0.29343281091917883
0.2700185799152777,0.2700185799152777
0.2533684600902814,0.2533684600902814
0.2538887763348125,0.2538887763348125
0.27157952864887114,0.27157952864887114
0.29863597336449016,0.29863597336449016
0.3241314693465158,0.3241314693465158
0.34234253790510555,0.34234253790510555
0.35483012777385275,0.35483012777385275
0.3699192988652557,0.3699192988652557
0.39333352986915676,0.39333352986915676
0.42403218829649375,0.42403218829649375
0.4542105304792996,0.4542105304792996
0.47918571021679407,0.47918571021679407
0.502079624976164,0.502079624976164
0.5275751209581896,0.5275751209581896
0.5494284032284973,0.5494284032284973
0.5572331468964643,0.5572331468964643
0.5530706169402153,0.5530706169402153
0.5535909331847464,0.5535909331847464
0.5582737793855266,0.5582737793855266
0.5478674544949039,0.5478674544949039
0.5062421549324131,0.5062421549324131
0.4500480005230505,0.4500480005230505
0.40478048724884175,0.40478048724884175
0.3777240425332227,0.3777240425332227
0.3569113927519773,0.3569113927519773
0.3329768455035451,0.3329768455035451
0.3080016657660506,0.3080016657660506
0.2866686997402741,0.2866686997402741
0.2679373149371532,0.2679373149371532
0.2507668788676257,0.2507668788676257
0.23671834026528507,0.23671834026528507
0.2283932803527869,0.2283932803527869
0.22319011790747556,0.22319011790747556
0.21850727170669534,0.21850727170669534
0.2107025280387283,0.2107025280387283
0.20133683563716787,0.20133683563716787
0.1914508269910763,0.1914508269910763
0.18312576707857814,0.18312576707857814
0.17792260463326678,0.17792260463326678
0.18000386961139134,0.18000386961139134
0.18728829703482722,0.18728829703482722
0.19665398943638765,0.19665398943638765
0.201857151881699,0.201857151881699
0.20445873310435467,0.20445873310435467
0.20237746812623014,0.20237746812623014
0.19249145948013857,0.19249145948013857
0.17792260463326678,0.17792260463326678
0.17167880969889315,0.17167880969889315
0.1737600746770177,0.1737600746770177
0.17532102341061112,0.17532102341061112
0.16543501476451955,0.16543501476451955
0.15971153607467706,0.15971153607467706
0.15971153607467706,0.15971153607467706
0.15815058734108364,0.15815058734108364
0.1498255274285855,0.1498255274285855
0.14306141624968075,0.14306141624968075
0.14202078376061847,0.14202078376061847
0.14514268122780527,0.14514268122780527
0.14670362996139868,0.14670362996139868
0.1456629974723364,0.1456629974723364
0.144102048738743,0.144102048738743
0.14826457869499207,0.14826457869499207
0.15867090358561478,0.15867090358561478
0.18468671581217155,0.18468671581217155
0.2528481438457503,0.2528481438457503
0.359512973974633,0.359512973974633
0.45369021423476846,0.45369021423476846
0.5738832667214607,0.5738832667214607
0.9422671678495044,0.9422671678495044
1.665506747747782,1.665506747747782
2.333072489481229,2.333072489481229
2.2737564376046793,2.2737564376046793
1.3772515482775332,1.3772515482775332
0.36159423895275755,0.36159423895275755
-0.031764841912780686,-0.031764841912780686
0.15815058734108364,0.15815058734108364
0.35743170899650845,0.35743170899650845
0.26377478498090406,0.26377478498090406
0.06293271459188592,0.06293271459188592
-0.009391243397941871,-0.009391243397941871
0.017144885073146023,0.017144885073146023
-0.0031474484635682495,-0.0031474484635682495
-0.10564974863620187,-0.10564974863620187
-0.21231457876508458,-0.21231457876508458
-0.2555008270611688,-0.2555008270611688
-0.2393710234807036,-0.2393710234807036
-0.21335521125414686,-0.21335521125414686
-0.2050301513416487,-0.2050301513416487
-0.20190825387446187,-0.20190825387446187
-0.1712095954471249,-0.1712095954471249
-0.09888563745729712,-0.09888563745729712
0.01402298760595921,0.01402298760595921
0.13317540760358917,0.13317540760358917
0.2164260067285708,0.2164260067285708
0.23463707528716052,0.23463707528716052
0.22579169913013122,0.22579169913013122
0.2414011864660653,0.2414011864660653
0.2913515459410543,0.2913515459410543
0.3340174779926074,0.3340174779926074
0.3376596917043253,0.3376596917043253
0.31268451196683084,0.31268451196683084
0.2929124946746477,0.2929124946746477
0.29499375965277225,0.29499375965277225
0.309562614499644,0.309562614499644
0.3298549480363583,0.3298549480363583
0.3605536064636953,0.3605536064636953
0.3995773248035304,0.3995773248035304
0.42819471825274286,0.42819471825274286
0.44068230812149006,0.44068230812149006
0.4578527441910175,0.4578527441910175
0.5005186762425706,0.5005186762425706
0.5509893519620908,0.5509893519620908
0.5728426342323985,0.5728426342323985
0.5624363093417757,0.5624363093417757
0.555672198162871,0.555672198162871
0.5785661129222409,0.5785661129222409
0.5957365489917683,0.5957365489917683
0.5535909331847464,0.5535909331847464
0.45056831676758163,0.45056831676758163
0.35639107650744617,0.35639107650744617
0.33557842672620075,0.33557842672620075
0.3746021450660359,0.3746021450660359
0.39593511109181245,0.39593511109181245
0.3543098115293216,0.3543098115293216
0.2814655372949627,0.2814655372949627
0.2414011864660653,0.2414011864660653
0.24088087022153415,0.24088087022153415
0.2356777077762228,0.2356777077762228
0.19821493816998106,0.19821493816998106
0.15502868987389684,0.15502868987389684
0.1352566725817137,0.1352566725817137
0.13005351013640234,0.13005351013640234
0.12537066393562213,0.12537066393562213
0.13629730507077598,0.13629730507077598
0.1680365959871752,0.1680365959871752
0.18312576707857814,0.18312576707857814
0.14306141624968075,0.14306141624968075
0.07698125319422656,0.07698125319422656
0.04732322725595186,0.04732322725595186
0.08062346690594452,0.08062346690594452
0.13837857004890053,0.13837857004890053
0.1690772284762375,0.1690772284762375
0.15034584367311662,0.15034584367311662
0.10611896288797014,0.10611896288797014
0.08686726184031814,0.08686726184031814
0.12224876646843533,0.12224876646843533
0.17740228838873565,0.17740228838873565
0.18468671581217155,0.18468671581217155
0.124850347691091,0.124850347691091
0.05564828716845002,0.05564828716845002
0.04107943232157824,0.04107943232157824
0.0847859968621936,0.0847859968621936
0.11392370655593716,0.11392370655593716
0.08998915930750495,0.08998915930750495
0.06033113336923024,0.06033113336923024
0.08582662935125586,0.08582662935125586
0.13993951878249392,0.13993951878249392
0.13733793755983825,0.13733793755983825
0.06449366332547932,0.06449366332547932
0.004136978959867642,0.004136978959867642
0.018185517562208292,0.018185517562208292
0.07073745825985295,0.07073745825985295
0.09987516795359651,0.09987516795359651
0.1144440228004683,0.1144440228004683
0.15554900611842798,0.15554900611842798
0.19405240821373199,0.19405240821373199
0.17584133965514226,0.17584133965514226
0.23203549406450485,0.23203549406450485
0.6961575841862775,0.6961575841862775
1.6821568675727785,1.6821568675727785
2.6707577321819356,2.6707577321819356
2.8325760842311185,2.8325760842311185
1.923063288790694,1.923063288790694
0.621232044973794,0.621232044973794
-0.1920222452283703,-0.1920222452283703
-0.3028496053135021,-0.3028496053135021
-0.13322650959635204,-0.13322650959635204
-0.06714634654089788,-0.06714634654089788
-0.11137322732604436,-0.11137322732604436
-0.1280233471510407,-0.1280233471510407
-0.10304816741354621,-0.10304816741354621
-0.1191779709940114,-0.1191779709940114
-0.2195990061885205,-0.2195990061885205
-0.35384059727755335,-0.35384059727755335
-0.41471759788769613,-0.41471759788769613
-0.3439545886314618,-0.3439545886314618
-0.21335521125414686,-0.21335521125414686
-0.15299852688853519,-0.15299852688853519
-0.18785971527212122,-0.18785971527212122
-0.20763173256430437,-0.20763173256430437
-0.1311452446182275,-0.1311452446182275
-0.005749029686223926,-0.005749029686223926
0.07385935572703975,0.07385935572703975
0.10299706542078332,0.10299706542078332
0.11912686900124851,0.11912686900124851
0.14306141624968075,0.14306141624968075
0.15815058734108364,0.15815058734108364
0.15919121983014592,0.15919121983014592
0.1545083736293657,0.1545083736293657
0.144102048738743,0.144102048738743
0.1321347751145269,0.1321347751145269
0.1487848949395232,0.1487848949395232
0.20289778437076128,0.20289778437076128
0.24972624637856344,0.24972624637856344
0.23931992148794073,0.23931992148794073
0.18780861327935836,0.18780861327935836
0.16283343354186386,0.16283343354186386
0.20133683563716787,0.20133683563716787
0.2700185799152777,0.2700185799152777
0.30748134952151945,0.30748134952151945
0.2960343921418345,0.2960343921418345
0.2767826910941825,0.2767826910941825
0.29967660585355244,0.29967660585355244
0.3631551876863509,0.3631551876863509
0.4115445984277465,0.4115445984277465
0.40061795729259264,0.40061795729259264
0.3475457003504169,0.3475457003504169
0.3137251444558931,0.3137251444558931
0.328814315547296,0.328814315547296
0.35639107650744617,0.35639107650744617
0.33557842672620075,0.33557842672620075
0.2538887763348125,0.2538887763348125
0.15815058734108364,0.15815058734108364
0.105598646643439,0.105598646643439
0.10611896288797014,0.10611896288797014
0.12224876646843533,0.12224876646843533
0.1144440228004683,0.1144440228004683
0.07854220192781997,0.07854220192781997
0.03587626987626689,0.03587626987626689
0.007779192671585589,0.007779192671585589
0.002055713981743102,0.002055713981743102
0.016624568828614888,0.016624568828614888
0.04107943232157824,0.04107943232157824
0.05981081712469911,0.05981081712469911
0.05772955214657456,0.05772955214657456
0.038477851098922565,0.038477851098922565
0.019746466295801696,0.019746466295801696
0.018185517562208292,0.018185517562208292
0.03119342367548667,0.03119342367548667
0.040038799832515966,0.040038799832515966
0.03327468865361121,0.03327468865361121
0.018185517562208292,0.018185517562208292
0.01402298760595921,0.01402298760595921
0.030152791186424402,0.030152791186424402
0.052006073456732076,0.052006073456732076
0.05877018463563684,0.05877018463563684
0.04732322725595186,0.04732322725595186
0.03535595363173575,0.03535595363173575
0.03119342367548667,0.03119342367548667
0.023388680007519643,0.023388680007519643
0.005697927693461048,0.005697927693461048
-0.0031474484635682495,-0.0031474484635682495
-0.001066183485443709,-0.001066183485443709
0.002576030226274237,0.002576030226274237
0.0004947652481496965,0.0004947652481496965
0.002576030226274237,0.002576030226274237
0.01194172262783467,0.01194172262783467
0.017144885073146023,0.017144885073146023
0.010380773894241264,0.010380773894241264
0.004136978959867642,0.004136978959867642
0.017665201317677157,0.017665201317677157
0.04628259476688959,0.04628259476688959
0.05460765467938775,0.05460765467938775
0.03119342367548667,0.03119342367548667
0.02599026123017532,0.02599026123017532
0.06085144961376138,0.06085144961376138
0.06865619328172841,0.06865619328172841
0.06293271459188592,0.06293271459188592
0.321009571879329,0.321009571879329
1.1191746909900901,1.1191746909900901
2.19622931716954,2.19622931716954
2.7795038272889427,2.7795038272889427
2.3757384215327817,2.3757384215327817
1.3439513086275405,1.3439513086275405
0.4745028640160139,0.4745028640160139
0.1513864761621789,0.1513864761621789
0.14826457869499207,0.14826457869499207
0.12224876646843533,0.12224876646843533
0.016104252584083753,0.016104252584083753
-0.044772748026059066,-0.044772748026059066
-0.02916326069012501,-0.02916326069012501
-0.035927371869029764,-0.035927371869029764
-0.12854366339557183,-0.12854366339557183
-0.2419726047033593,-0.2419726047033593
-0.2851588529994435,-0.2851588529994435
-0.26330557072913585,-0.26330557072913585
-0.24405386968148382,-0.24405386968148382
-0.2450945021705461,-0.2450945021705461
-0.22480216863383182,-0.22480216863383182
-0.16236421929009562,-0.16236421929009562
-0.07911362016511399,-0.07911362016511399
0.013502671361428076,0.013502671361428076
0.10767991162156354,0.10767991162156354
0.18780861327935836,0.18780861327935836
0.22527138288560009,0.22527138288560009
0.23515739153169166,0.23515739153169166
0.2414011864660653,0.2414011864660653
0.2460840326668455,0.2460840326668455
0.23671834026528507,0.23671834026528507
0.21902758795122645,0.21902758795122645
0.20914157930513488,0.20914157930513488
0.21694632297310193,0.21694632297310193
0.23775897275434732,0.23775897275434732
0.26377478498090406,0.26377478498090406
0.28822964847386745,0.28822964847386745
0.3064407170324572,0.3064407170324572
0.32152988812386013,0.32152988812386013
0.33974095668244986,0.33974095668244986
0.3647161364199443,0.3647161364199443
0.3928132136246256,0.3928132136246256
0.41674776087305787,0.41674776087305787
0.4339181969425853,0.4339181969425853
0.4474464193003948,0.4474464193003948
0.4588933766800798,0.4588933766800798
0.46877938532617136,0.46877938532617136
0.47866539397226293,0.47866539397226293
0.4823076076839809,0.4823076076839809
0.47242159903788933,0.47242159903788933
0.4474464193003948,0.4474464193003948
0.41622744462852673,0.41622744462852673
0.3850084699566586,0.3850084699566586
0.35274886279572826,0.35274886279572826
0.31788767441214216,0.31788767441214216
0.28614838349574295,0.28614838349574295
0.2622138362473107,0.2622138362473107
0.24244181895512754,0.24244181895512754
0.22371043415200667,0.22371043415200667
0.2075806305715415,0.2075806305715415
0.19769462192544993,0.19769462192544993
0.19041019450201402,0.19041019450201402
0.17740228838873565,0.17740228838873565
0.16127248480827047,0.16127248480827047
0.15034584367311662,0.15034584367311662
0.1513864761621789,0.1513864761621789
0.15815058734108364,0.15815058734108364
0.1602318523192082,0.1602318523192082
0.15658963860749026,0.15658963860749026
0.15658963860749026,0.15658963860749026
0.15971153607467706,0.15971153607467706
0.15658963860749026,0.15658963860749026
0.14150046751608733,0.14150046751608733
0.12849256140280896,0.12849256140280896
0.1295331938918712,0.1295331938918712
0.1409801512715562,0.1409801512715562
0.1456629974723364,0.1456629974723364
0.13837857004890053,0.13837857004890053
0.12276908271296647,0.12276908271296647
0.10924086035515694,0.10924086035515694
0.10143611668718992,0.10143611668718992
0.1071595953770324,0.1071595953770324
0.11496433904499943,0.11496433904499943
0.12120813397937305,0.12120813397937305
0.11756592026765511,0.11756592026765511
0.10611896288797014,0.10611896288797014
0.09779390297547197,0.09779390297547197
0.10351738166531446,0.10351738166531446
0.10820022786609468,0.10820022786609468
0.09207042428562949,0.09207042428562949
0.07281872323797749,0.07281872323797749
0.08270473188406906,0.08270473188406906
0.10299706542078332,0.10299706542078332
0.09987516795359651,0.09987516795359651
0.11132212533328148,0.11132212533328148
0.19093051074654516,0.19093051074654516
0.27574205860512024,0.27574205860512024
0.26117320375824843,0.26117320375824843
0.2642951012254352,0.2642951012254352
0.6004193951925486,0.6004193951925486
1.3538373172736322,1.3538373172736322
2.069792469748474,2.069792469748474
2.112458401800027,2.112458401800027
1.3595607959634746,1.3595607959634746
0.4084227009605597,0.4084227009605597
-0.04061021806980998,-0.04061021806980998
0.08530631310672473,0.08530631310672473
0.28354680227308726,0.28354680227308726
0.1987352544145122,0.1987352544145122
0.002055713981743102,0.002055713981743102
-0.02239914951122025,-0.02239914951122025
0.061892082102823646,0.061892082102823646
0.024429312496581913,0.024429312496581913
-0.1269827146619784,-0.1269827146619784
-0.21751774121039594,-0.21751774121039594
-0.21491615998774027,-0.21491615998774027
-0.22532248487836296,-0.22532248487836296
-0.25810240828382447,-0.25810240828382447
-0.24041165596976588,-0.24041165596976588
-0.17589244164790513,-0.17589244164790513
-0.12438113343932275,-0.12438113343932275
-0.06922761151902242,-0.06922761151902242
0.03223405616454894,0.03223405616454894
0.1513864761621789,0.1513864761621789
0.2179869554621642,0.2179869554621642
0.24192150271059643,0.24192150271059643
0.26637636620355976,0.26637636620355976
0.2913515459410543,0.2913515459410543
0.2856280672512118,0.2856280672512118
0.2538887763348125,0.2538887763348125
0.23359644279809824,0.23359644279809824
0.2476449814004389,0.2476449814004389
0.28094522105043157,0.28094522105043157
0.3111235632332374,0.3111235632332374
0.33193621301448284,0.33193621301448284
0.35326917904025934,0.35326917904025934
0.3803256237558784,0.3803256237558784
0.409463333449622,0.409463333449622
0.43443851318711646,0.43443851318711646
0.4531698979902373,0.4531698979902373
0.4719012827933582,0.4719012827933582
0.49219361633007247,0.49219361633007247
0.5104046848886622,0.5104046848886622
0.5228922747574094,0.5228922747574094
0.5317376509144387,0.5317376509144387
0.5395423945824057,0.5395423945824057
0.5431846082941237,0.5431846082941237
0.5379814458488124,0.5379814458488124
0.524973539735534,0.524973539735534
0.5062421549324131,0.5062421549324131
0.4765841289941384,0.4765841289941384
0.4339181969425853,0.4339181969425853
0.38813036742384543,0.38813036742384543
0.3626348714418198,0.3626348714418198
0.36003329021916414,0.36003329021916414
0.35639107650744617,0.35639107650744617
0.3225705206129224,0.3225705206129224
0.26637636620355976,0.26637636620355976
0.221108852929351,0.221108852929351
0.20966189554966602,0.20966189554966602
0.21902758795122645,0.21902758795122645
0.22162916917388215,0.22162916917388215
0.20393841685982356,0.20393841685982356
0.17844292087779792,0.17844292087779792
0.163353749786395,0.163353749786395
0.1659553310090507,0.1659553310090507
0.17167880969889315,0.17167880969889315
0.16855691223170635,0.16855691223170635
0.15554900611842798,0.15554900611842798
0.14618331371686755,0.14618331371686755
0.1487848949395232,0.1487848949395232
0.15815058734108364,0.15815058734108364
0.1617928010528016,0.1617928010528016
0.1571099548520214,0.1571099548520214
0.15086615991764776,0.15086615991764776
0.1545083736293657,0.1545083736293657
0.16231311729733272,0.16231311729733272
0.16439438227545727,0.16439438227545727
0.15815058734108364,0.15815058734108364
0.15971153607467706,0.15971153607467706
0.1690772284762375,0.1690772284762375
0.18624766454576494,0.18624766454576494
0.19509304070279423,0.19509304070279423
0.19041019450201402,0.19041019450201402
0.18416639956764042,0.18416639956764042
0.18676798079029608,0.18676798079029608
0.18312576707857814,0.18312576707857814
0.15658963860749026,0.15658963860749026
0.13473635633718256,0.13473635633718256
0.14722394620592982,0.14722394620592982
0.16647564725358183,0.16647564725358183
0.14618331371686755,0.14618331371686755
0.12276908271296647,0.12276908271296647
0.18104450210045359,0.18104450210045359
0.313204828211362,0.313204828211362
0.4245525045410249,0.4245525045410249
0.5317376509144387,0.5317376509144387
0.8392445514323396,0.8392445514323396
1.4750710022493867,1.4750710022493867
2.1514821201398626,2.1514821201398626
2.2810408650281153,2.2810408650281153
1.5864186785790495,1.5864186785790495
0.5234125910019406,0.5234125910019406
-0.12021860348307366,-0.12021860348307366
-0.08223551763230079,-0.08223551763230079
0.18052418585592248,0.18052418585592248
0.19041019450201402,0.19041019450201402
0.016104252584083753,0.016104252584083753
-0.03540705562449863,-0.03540705562449863
0.03795753485439143,0.03795753485439143
0.014543303850490345,0.014543303850490345
-0.13322650959635204,-0.13322650959635204
-0.23781007474711022,-0.23781007474711022
-0.24405386968148382,-0.24405386968148382
-0.2476960833932018,-0.2476960833932018
-0.28463853675491235,-0.28463853675491235
-0.2914026479338171,-0.2914026479338171
-0.24249292094789043,-0.24249292094789043
-0.18057528784868535,-0.18057528784868535
-0.11657638977135572,-0.11657638977135572
-0.028122628201062736,-0.028122628201062736
0.08686726184031814,0.08686726184031814
0.18416639956764042,0.18416639956764042
0.24244181895512754,0.24244181895512754
0.26481541746996634,0.26481541746996634
0.2736607936269957,0.2736607936269957
0.28094522105043157,0.28094522105043157
0.28614838349574295,0.28614838349574295
0.278863956072307,0.278863956072307
0.2674169986926221,0.2674169986926221
0.2736607936269957,0.2736607936269957
0.30852198201058173,0.30852198201058173
0.351708230306666,0.351708230306666
0.3761630937996293,0.3761630937996293
0.38396783746759633,0.38396783746759633
0.4053008034933729,0.4053008034933729
0.45473084672383074,0.45473084672383074
0.5088437361550687,0.5088437361550687
0.5369408133597501,0.5369408133597501
0.540583027071468,0.540583027071468
0.552029984451153,0.552029984451153
0.5884521215683325,0.5884521215683325
0.6305977373753544,0.6305977373753544
0.6498494384230065,0.6498494384230065
0.6451665922222262,0.6451665922222262
0.6389227972878526,0.6389227972878526
0.6368415323097281,0.6368415323097281
0.6196710962402006,0.6196710962402006
0.5718020017433362,0.5718020017433362
0.5124859498667867,0.5124859498667867
0.4703403340597648,0.4703403340597648
0.45056831676758163,0.45056831676758163
0.4307962994753985,0.4307962994753985
0.3928132136246256,0.3928132136246256
0.340261272926981,0.340261272926981
0.2929124946746477,0.2929124946746477
0.2606528875137173,0.2606528875137173
0.2414011864660653,0.2414011864660653
0.22579169913013122,0.22579169913013122
0.20810094681607264,0.20810094681607264
0.1883289295238895,0.1883289295238895
0.17428039092154884,0.17428039092154884
0.16751627974264408,0.16751627974264408
0.1659553310090507,0.1659553310090507
0.16387406603092614,0.16387406603092614
0.16283343354186386,0.16283343354186386
0.1659553310090507,0.1659553310090507
0.17792260463326678,0.17792260463326678
0.1914508269910763,0.1914508269910763
0.19769462192544993,0.19769462192544993
0.19561335694732537,0.19561335694732537
0.19665398943638765,0.19665398943638765
0.20237746812623014,0.20237746812623014
0.20549936559341694,0.20549936559341694
0.20289778437076128,0.20289778437076128
0.20810094681607264,0.20810094681607264
0.21746663921763307,0.21746663921763307
0.21434474175044624,0.21434474175044624
0.1898898782574829,0.1898898782574829
0.17532102341061112,0.17532102341061112
0.18156481834498472,0.18156481834498472
0.19197114323560743,0.19197114323560743
0.1857273483012338,0.1857273483012338
0.1690772284762375,0.1690772284762375
0.1571099548520214,0.1571099548520214
0.15554900611842798,0.15554900611842798
0.16283343354186386,0.16283343354186386
0.1768819721442045,0.1768819721442045
0.19353209196920085,0.19353209196920085
0.20601968183794808,0.20601968183794808
0.20810094681607264,0.20810094681607264
0.21850727170669534,0.21850727170669534
0.282506169784025,0.282506169784025
0.4068617522269663,0.4068617522269663
0.5353798646261567,0.5353798646261567
0.6873122080292482,0.6873122080292482
1.0692243315151013,1.0692243315151013
1.787781065212599,1.787781065212599
2.4563874394351077,2.4563874394351077
2.4168434048507415,2.4168434048507415
1.5369886353485918,1.5369886353485918
0.48803108637382336,0.48803108637382336
-0.0005458672409125739,-0.0005458672409125739
0.08686726184031814,0.08686726184031814
0.24972624637856344,0.24972624637856344
0.20862126306060377,0.20862126306060377
0.09883453546453425,0.09883453546453425
0.08322504812860018,0.08322504812860018
0.10507833039890786,0.10507833039890786
0.04836385974501413,0.04836385974501413
-0.07807298767605171,-0.07807298767605171
-0.18265655282680987,-0.18265655282680987
-0.21907868994398935,-0.21907868994398935
-0.21439584374320914,-0.21439584374320914
-0.21439584374320914,-0.21439584374320914
-0.22532248487836296,-0.22532248487836296
-0.22480216863383182,-0.22480216863383182
-0.19566445894008827,-0.19566445894008827
-0.14311251824244361,-0.14311251824244361
-0.05674002165027517,-0.05674002165027517
0.0655342958145416,0.0655342958145416
0.201857151881699,0.201857151881699
0.2871890159848052,0.2871890159848052
0.29707502463089674,0.29707502463089674
0.26273415249184184,0.26273415249184184
0.2387996052434096,0.2387996052434096
0.2434824514441898,0.2434824514441898
0.263254468736373,0.263254468736373
0.27730300733871366,0.27730300733871366
0.29083122969652314,0.29083122969652314
0.31424546070042425,0.31424546070042425
0.34234253790510555,0.34234253790510555
0.36159423895275755,0.36159423895275755
0.3756427775550982,0.3756427775550982
0.40894301720509085,0.40894301720509085
0.4708606503042959,0.4708606503042959
0.5322579671589699,0.5322579671589699
0.555672198162871,0.555672198162871
0.5468268220058417,0.5468268220058417
0.5457861895167794,0.5457861895167794
0.5733629504769295,0.5733629504769295
0.6082241388605156,0.6082241388605156
0.6233133099519185,0.6233133099519185
0.6238336261964497,0.6238336261964497
0.6207117287292628,0.6207117287292628
0.6040616089042665,0.6040616089042665
0.5567128306519332,0.5567128306519332
0.4947951975527281,0.4947951975527281
0.45108863301211277,0.45108863301211277
0.42247123956290034,0.42247123956290034
0.370959931354318,0.370959931354318
0.27938427231683816,0.27938427231683816
0.1914508269910763,0.1914508269910763
0.1649146985199884,0.1649146985199884
0.19353209196920085,0.19353209196920085
0.21018221179419716,0.21018221179419716
0.1680365959871752,0.1680365959871752
0.10351738166531446,0.10351738166531446
0.08218441563953792,0.08218441563953792
0.11236275782234376,0.11236275782234376
0.13005351013640234,0.13005351013640234
0.09311105677469175,0.09311105677469175
0.036396586120798026,0.036396586120798026
0.026510577474706455,0.026510577474706455
0.06449366332547932,0.06449366332547932
0.08842821057391154,0.08842821057391154
0.05981081712469911,0.05981081712469911
0.02182773127392624,0.02182773127392624
0.03171373992001781,0.03171373992001781
0.08270473188406906,0.08270473188406906
0.10924086035515694,0.10924086035515694
0.08114378315047564,0.08114378315047564
0.03431532114267348,0.03431532114267348
0.02286836376298851,0.02286836376298851
0.05408733843485662,0.05408733843485662
0.09155010804109835,0.09155010804109835
0.09155010804109835,0.09155010804109835
0.04992480847860754,0.04992480847860754
0.002576030226274237,0.002576030226274237
-0.0036677647080993847,-0.0036677647080993847
0.017144885073146023,0.017144885073146023
0.02494962874111305,0.02494962874111305
0.002576030226274237,0.002576030226274237
-0.026561679467469332,-0.026561679467469332
-0.034886739379967495,-0.034886739379967495
-0.02135851702215798,-0.02135851702215798
0.0004947652481496965,0.0004947652481496965
0.018185517562208292,0.018185517562208292
0.03275437240908008,0.03275437240908008
0.041599748566109374,0.041599748566109374
0.029632474941893267,0.029632474941893267
0.004136978959867642,0.004136978959867642
0.019746466295801696,0.019746466295801696
0.08894852681844267,0.08894852681844267
0.12068781773484193,0.12068781773484193
0.12433003144655987,0.12433003144655987
0.4188290258511824,0.4188290258511824
1.295561897886145,1.295561897886145
2.4038354987374633,2.4038354987374633
2.8476652553225215,2.8476652553225215
2.1624087612750165,2.1624087612750165
0.8990809195534202,0.8990809195534202
-0.018756935799502304,-0.018756935799502304
-0.2773541093314765,-0.2773541093314765
-0.22220058741117615,-0.22220058741117615
-0.19722540767368166,-0.19722540767368166
-0.21751774121039594,-0.21751774121039594
-0.20555046758617984,-0.20555046758617984
-0.19566445894008827,-0.19566445894008827
-0.24717576714867065,-0.24717576714867065
-0.32678415256193427,-0.32678415256193427
-0.36632818714630055,-0.36632818714630055
-0.3569624947447401,-0.3569624947447401
-0.3501983835658354,-0.3501983835658354
-0.38557988819395256,-0.38557988819395256
-0.43292866644628586,-0.43292866644628586
-0.42096139282206974,-0.42096139282206974
-0.3221013063611541,-0.3221013063611541
-0.19358319396196372,-0.19358319396196372
-0.10356848365807733,-0.10356848365807733
-0.06714634654089788,-0.06714634654089788
-0.03956958558074771,-0.03956958558074771
0.0004947652481496965,0.0004947652481496965
0.04732322725595186,0.04732322725595186
0.06969682577079067,0.06969682577079067
0.05720923590204343,0.05720923590204343
0.03275437240908008,0.03275437240908008
0.02599026123017532,0.02599026123017532
0.041599748566109374,0.041599748566109374
0.05668891965751229,0.05668891965751229
0.047843543500483,0.047843543500483
0.016104252584083753,0.016104252584083753
-0.007309978419817331,-0.007309978419817331
0.009340141405178994,0.009340141405178994
0.06033113336923024,0.06033113336923024
0.1071595953770324,0.1071595953770324
0.1295331938918712,0.1295331938918712
0.14045983502702505,0.14045983502702505
0.1602318523192082,0.1602318523192082
0.182605450834047,0.182605450834047
0.20081651939263673,0.20081651939263673
0.22319011790747556,0.22319011790747556
0.2533684600902814,0.2533684600902814
0.2694982636707466,0.2694982636707466
0.25440909257934363,0.25440909257934363
0.22058853668481987,0.22058853668481987
0.1930117757246697,0.1930117757246697
0.17480070716607998,0.17480070716607998
0.15554900611842798,0.15554900611842798
0.13629730507077598,0.13629730507077598
0.12849256140280896,0.12849256140280896
0.1264112964246844,0.1264112964246844
0.10299706542078332,0.10299706542078332
0.04628259476688959,0.04628259476688959
-0.015635038332315495,-0.015635038332315495
-0.04061021806980998,-0.04061021806980998
-0.025000730733875928,-0.025000730733875928
-0.007830294664348467,-0.007830294664348467
-0.01927725204403344,-0.01927725204403344
-0.044772748026059066,-0.044772748026059066
-0.05517907291668177,-0.05517907291668177
-0.04945559422683928,-0.04945559422683928
-0.04373211553699679,-0.04373211553699679
-0.03852895309168544,-0.03852895309168544
-0.02031788453309571,-0.02031788453309571
0.006738560182523319,0.006738560182523319
0.02026678254033283,0.02026678254033283
0.011421406383303535,0.011421406383303535
-0.006789662175286195,-0.006789662175286195
-0.011992824620597548,-0.011992824620597548
-0.001066183485443709,-0.001066183485443709
0.011421406383303535,0.011421406383303535
0.004136978959867642,0.004136978959867642
-0.023960098244813655,-0.023960098244813655
-0.05049622671590155,-0.05049622671590155
-0.048414961737777006,-0.048414961737777006
-0.01927725204403344,-0.01927725204403344
0.009860457649710129,0.009860457649710129
0.01402298760595921,0.01402298760595921
0.002055713981743102,0.002055713981743102
-0.017716303310440034,-0.017716303310440034
-0.035927371869029764,-0.035927371869029764
-0.05309780793855723,-0.05309780793855723
-0.06558539780730446,-0.06558539780730446
-0.06558539780730446,-0.06558539780730446
-0.048414961737777006,-0.048414961737777006
-0.026041363222938197,-0.026041363222938197
-0.01927725204403344,-0.01927725204403344
-0.028122628201062736,-0.028122628201062736
-0.032805474401842956,-0.032805474401842956
-0.029683576934656144,-0.029683576934656144
-0.02239914951122025,-0.02239914951122025
0.0109010901387724,0.0109010901387724
0.06865619328172841,0.06865619328172841
0.07802188568328884,0.07802188568328884
0.04472164603329618,0.04472164603329618
0.23359644279809824,0.23359644279809824
0.9365436891596619,0.9365436891596619
1.9584447934188112,1.9584447934188112
2.587507133056954,2.587507133056954
2.302894147298423,2.302894147298423
1.3616420609415991,1.3616420609415991
0.4958358300417904,0.4958358300417904
0.13733793755983825,0.13733793755983825
0.13733793755983825,0.13733793755983825
0.15658963860749026,0.15658963860749026
0.08426568061766246,0.08426568061766246
0.02078709878486397,0.02078709878486397
0.02182773127392624,0.02182773127392624
0.009860457649710129,0.009860457649710129
-0.08119488514323853,-0.08119488514323853
-0.19514414269555713,-0.19514414269555713
-0.23520849352445453,-0.23520849352445453
-0.20450983509711756,-0.20450983509711756
-0.183176869071341,-0.183176869071341
-0.2050301513416487,-0.2050301513416487
-0.22376153614476957,-0.22376153614476957
-0.19514414269555713,-0.19514414269555713
-0.12438113343932275,-0.12438113343932275
-0.03436642313543636,-0.03436642313543636
0.052006073456732076,0.052006073456732076
0.11860655275671737,0.11860655275671737
0.15242710865124118,0.15242710865124118
0.1721991259434243,0.1721991259434243
0.19093051074654516,0.19093051074654516
0.1987352544145122,0.1987352544145122
0.1794835533668602,0.1794835533668602
0.14358173249421186,0.14358173249421186
0.12380971520202873,0.12380971520202873
0.14045983502702505,0.14045983502702505
0.18052418585592248,0.18052418585592248
0.2122634767723217,0.2122634767723217
0.22162916917388215,0.22162916917388215
0.22266980166294442,0.22266980166294442
0.23515739153169166,0.23515739153169166
0.2580513062910616,0.2580513062910616
0.2814655372949627,0.2814655372949627
0.30279850332073927,0.30279850332073927
0.3298549480363583,0.3298549480363583
0.3626348714418198,0.3626348714418198
0.39437416235821904,0.39437416235821904
0.4141461796504022,0.4141461796504022
0.42143060707383806,0.42143060707383806
0.41518681213946446,0.41518681213946446
0.3938538461136879,0.3938538461136879
0.3584723414855707,0.3584723414855707
0.3158064094340176,0.3158064094340176
0.2720998448934023,0.2720998448934023
0.22631201537466236,0.22631201537466236
0.17115849345436204,0.17115849345436204
0.10924086035515694,0.10924086035515694
0.05564828716845002,0.05564828716845002
0.022348047518457374,0.022348047518457374
0.0036166627153365076,0.0036166627153365076
-0.015635038332315495,-0.015635038332315495
-0.04217116680340339,-0.04217116680340339
-0.07078856025261582,-0.07078856025261582
-0.09732468872370371,-0.09732468872370371
-0.11813733850494912,-0.11813733850494912
-0.13062492837369635,-0.13062492837369635
-0.13634840706353885,-0.13634840706353885
-0.14051093701978792,-0.14051093701978792
-0.14571409946509928,-0.14571409946509928
-0.1519578943994729,-0.1519578943994729
-0.16288453553462676,-0.16288453553462676
-0.18421750156040329,-0.18421750156040329
-0.21023331378696006,-0.21023331378696006
-0.22532248487836296,-0.22532248487836296
-0.22168027116664502,-0.22168027116664502
-0.213875527498678,-0.213875527498678
-0.21439584374320914,-0.21439584374320914
-0.22168027116664502,-0.22168027116664502
-0.22636311736742523,-0.22636311736742523
-0.22896469859008092,-0.22896469859008092
-0.23312722854633,-0.23312722854633
-0.23416786103539225,-0.23416786103539225
-0.22636311736742523,-0.22636311736742523
-0.21543647623227138,-0.21543647623227138
-0.2169974249658648,-0.2169974249658648
-0.22792406610101865,-0.22792406610101865
-0.23885070723617247,-0.23885070723617247
-0.2450945021705461,-0.2450945021705461
-0.24925703212679517,-0.24925703212679517
-0.25810240828382447,-0.25810240828382447
-0.2747525281088208,-0.2747525281088208
-0.29192296417834823,-0.29192296417834823
-0.28828075046663026,-0.28828075046663026
-0.2664274681963226,-0.2664274681963226
-0.2570617757947622,-0.2570617757947622
-0.2747525281088208,-0.2747525281088208
-0.27683379308694533,-0.27683379308694533
-0.22324121990023843,-0.22324121990023843
-0.13738903955260112,-0.13738903955260112
-0.09472310750104804,-0.09472310750104804
-0.07963393640964511,-0.07963393640964511
0.09155010804109835,0.09155010804109835
0.632679002353479,0.632679002353479
1.4178362153509618,1.4178362153509618
1.8720722968266428,1.8720722968266428
1.4823554296728225,1.4823554296728225
0.4765841289941384,0.4765841289941384
-0.3252232038283409,-0.3252232038283409
-0.44021309386972174,-0.44021309386972174
-0.20555046758617984,-0.20555046758617984
-0.1576813730893154,-0.1576813730893154
-0.32002004138302953,-0.32002004138302953
-0.3892221019056705,-0.3892221019056705
-0.3226216226056852,-0.3226216226056852
-0.3314669987627145,-0.3314669987627145
-0.47403364976424556,-0.47403364976424556
-0.5978689159626557,-0.5978689159626557
-0.6290878906345239,-0.6290878906345239
-0.6384535830360842,-0.6384535830360842
-0.6686319252188901,-0.6686319252188901
-0.6774773013759194,-0.6774773013759194
-0.6426161129923333,-0.6426161129923333
-0.5879829073165641,-0.5879829073165641
-0.5213824280165789,-0.5213824280165789
-0.4324083502017547,-0.4324083502017547
-0.33042636627365224,-0.33042636627365224
-0.2497773483713263,-0.2497773483713263
-0.20294888636352415,-0.20294888636352415
-0.18161592033774762,-0.18161592033774762
-0.1696486467135315,-0.1696486467135315
-0.16444548426822014,-0.16444548426822014
-0.175372125403374,-0.175372125403374
-0.20086762138539963,-0.20086762138539963
-0.2185583736994582,-0.2185583736994582
-0.20450983509711756,-0.20450983509711756
-0.16704706549087583,-0.16704706549087583
-0.1295842958846341,-0.1295842958846341
-0.10460911614713961,-0.10460911614713961
-0.08327615012136307,-0.08327615012136307
-0.059341602872930846,-0.059341602872930846
-0.034886739379967495,-0.034886739379967495
-0.015635038332315495,-0.015635038332315495
0.004657295204398778,0.004657295204398778
0.02911215869736213,0.02911215869736213
0.05929050088016797,0.05929050088016797
0.0847859968621936,0.0847859968621936
0.09935485170906538,0.09935485170906538
0.10195643293172105,0.10195643293172105
0.09935485170906538,0.09935485170906538
0.09623295424187857,0.09623295424187857
0.08946884306297381,0.08946884306297381
0.06969682577079067,0.06969682577079067
0.03535595363173575,0.03535595363173575
-0.006269345930755061,-0.006269345930755061
-0.04217116680340339,-0.04217116680340339
-0.06714634654089788,-0.06714634654089788
-0.08743868007761214,-0.08743868007761214
-0.1134544923041689,-0.1134544923041689
-0.14623441570963042,-0.14623441570963042
-0.17589244164790513,-0.17589244164790513
-0.19254256147290144,-0.19254256147290144
-0.20190825387446187,-0.20190825387446187
-0.21543647623227138,-0.21543647623227138
-0.23781007474711022,-0.23781007474711022
-0.2586227245283556,-0.2586227245283556
-0.26538683570726035,-0.26538683570726035
-0.25810240828382447,-0.25810240828382447
-0.25185861334945087,-0.25185861334945087
-0.2534195620830443,-0.2534195620830443
-0.25810240828382447,-0.25810240828382447
-0.25654145955023105,-0.25654145955023105
-0.2539398783275754,-0.2539398783275754
-0.25446019457210656,-0.25446019457210656
-0.2555008270611688,-0.2555008270611688
-0.24873671588226404,-0.24873671588226404
-0.23572880976898566,-0.23572880976898566
-0.22636311736742523,-0.22636311736742523
-0.22636311736742523,-0.22636311736742523
-0.2305256473236743,-0.2305256473236743
-0.22948501483461203,-0.22948501483461203
-0.21647710872133366,-0.21647710872133366
-0.19670509142915052,-0.19670509142915052
-0.18629876653852784,-0.18629876653852784
-0.19306287771743258,-0.19306287771743258
-0.213875527498678,-0.213875527498678
-0.22636311736742523,-0.22636311736742523
-0.21179426252055344,-0.21179426252055344
-0.18525813404946556,-0.18525813404946556
-0.17485180915884285,-0.17485180915884285
-0.18161592033774762,-0.18161592033774762
-0.17745339038149852,-0.17745339038149852
-0.1503969456658795,-0.1503969456658795
-0.12594208217291614,-0.12594208217291614
-0.14311251824244361,-0.14311251824244361
-0.20763173256430437,-0.20763173256430437
-0.2674681006853849,-0.2674681006853849
-0.2305256473236743,-0.2305256473236743
-0.09628405623464144,-0.09628405623464144
0.009340141405178994,0.009340141405178994
0.040559116077047104,0.040559116077047104
0.251807511356688,0.251807511356688
0.8980402870643579,0.8980402870643579
1.6889209787516832,1.6889209787516832
1.8892427328961703,1.8892427328961703
1.1810923240892952,1.1810923240892952
0.12537066393562213,0.12537066393562213
-0.4729930172751833,-0.4729930172751833
-0.4500991025158133,-0.4500991025158133
-0.25654145955023105,-0.25654145955023105
-0.252378929593982,-0.252378929593982
-0.37049071710254966,-0.37049071710254966
-0.41627854662128955,-0.41627854662128955
-0.38662052068301483,-0.38662052068301483
-0.41003475168691594,-0.41003475168691594
-0.5229433767501722,-0.5229433767501722
-0.6342910530798351,-0.6342910530798351
-0.668111608974359,-0.668111608974359
-0.6540630703720183,-0.6540630703720183
-0.6519818053938937,-0.6519818053938937
-0.6561443353501428,-0.6561443353501428
-0.625965993167337,-0.625965993167337
-0.5661296250462564,-0.5661296250462564
-0.5099354706368938,-0.5099354706368938
-0.44333499133690857,-0.44333499133690857
-0.33354826374083907,-0.33354826374083907
-0.20086762138539963,-0.20086762138539963
-0.12542176592838503,-0.12542176592838503
-0.1358280908190077,-0.1358280908190077
-0.18369718531587215,-0.18369718531587215
-0.20607078383071095,-0.20607078383071095
-0.17953465535962307,-0.17953465535962307
-0.1295842958846341,-0.1295842958846341
-0.09004026130026782,-0.09004026130026782
-0.07599172269792717,-0.07599172269792717
-0.07703235518698945,-0.07703235518698945
-0.07755267143152057,-0.07755267143152057
-0.0661057140518356,-0.0661057140518356
-0.0380086368471543,-0.0380086368471543
0.0030963464708053724,0.0030963464708053724
0.040038799832515966,0.040038799832515966
0.06085144961376138,0.06085144961376138
0.067095244548135,0.067095244548135
0.07542030446063316,0.07542030446063316
0.10039548419812765,0.10039548419812765
0.15086615991764776,0.15086615991764776
0.2122634767723217,0.2122634767723217
0.251807511356688,0.251807511356688
0.24088087022153415,0.24088087022153415
0.1987352544145122,0.1987352544145122
0.17167880969889315,0.17167880969889315
0.17323975843248657,0.17323975843248657
0.15502868987389684,0.15502868987389684
0.0790625181723511,0.0790625181723511
-0.025000730733875928,-0.025000730733875928
-0.08483709885495647,-0.08483709885495647
-0.07599172269792717,-0.07599172269792717
-0.044772748026059066,-0.044772748026059066
-0.05621970540574404,-0.05621970540574404
-0.12021860348307366,-0.12021860348307366
-0.194623826451026,-0.194623826451026
-0.23364754479086114,-0.23364754479086114
-0.2346881772799234,-0.2346881772799234
-0.23104596356820545,-0.23104596356820545
-0.252378929593982,-0.252378929593982
-0.2867198017330369,-0.2867198017330369
-0.30493087029162663,-0.30493087029162663
-0.2971261266236596,-0.2971261266236596
-0.28463853675491235,-0.28463853675491235
-0.2903620154447548,-0.2903620154447548
-0.31117466522600024,-0.31117466522600024
-0.3236622550947475,-0.3236622550947475
-0.31741846016037384,-0.31741846016037384
-0.3059715027806889,-0.3059715027806889
-0.3096137164924068,-0.3096137164924068
-0.32678415256193427,-0.32678415256193427
-0.3361498449634947,-0.3361498449634947
-0.32158099011662294,-0.32158099011662294
-0.29348391291194165,-0.29348391291194165
-0.27579316059788306,-0.27579316059788306
-0.2851588529994435,-0.2851588529994435
-0.31637782767131156,-0.31637782767131156
-0.35123901605489766,-0.35123901605489766
-0.36476723841270714,-0.36476723841270714
-0.33823110994161926,-0.33823110994161926
-0.2940042291564728,-0.2940042291564728
-0.2695493656635094,-0.2695493656635094
-0.29192296417834823,-0.29192296417834823
-0.3507186998103665,-0.3507186998103665
-0.4053519054861357,-0.4053519054861357
-0.4235629740447254,-0.4235629740447254
-0.40275032426348,-0.40275032426348
-0.3762141957923921,-0.3762141957923921
-0.36632818714630055,-0.36632818714630055
-0.3710110333470808,-0.3710110333470808
-0.36632818714630055,-0.36632818714630055
-0.3309466825181834,-0.3309466825181834
-0.2596633570174179,-0.2596633570174179
-0.2081520488088355,-0.2081520488088355
-0.252378929593982,-0.252378929593982
-0.3288654175400588,-0.3288654175400588
-0.13010461212916524,-0.13010461212916524
0.6160288825284826,0.6160288825284826
1.6972460386641814,1.6972460386641814
2.400193285025745,2.400193285025745
2.1462789576945513,2.1462789576945513
1.0848338188510354,1.0848338188510354
-0.05309780793855723,-0.05309780793855723
-0.6597865490618608,-0.6597865490618608
-0.7071353273141942,-0.7071353273141942
-0.5588451976228206,-0.5588451976228206
-0.49640724827908433,-0.49640724827908433
-0.5239840092392345,-0.5239840092392345
-0.5364715991079818,-0.5364715991079818
-0.5281465391954836,-0.5281465391954836
-0.5619670950900074,-0.5619670950900074
-0.6389738992806154,-0.6389738992806154
-0.6826804638212307,-0.6826804638212307
-0.6623881302845165,-0.6623881302845165
-0.6254456769228058,-0.6254456769228058
-0.6244050444337436,-0.6244050444337436
-0.6446973779704579,-0.6446973779704579
-0.6368926343024909,-0.6368926343024909
-0.5676905737798499,-0.5676905737798499
-0.45322099998300014,-0.45322099998300014
-0.34863743483224197,-0.34863743483224197
-0.28932138295569254,-0.28932138295569254
-0.2648665194627292,-0.2648665194627292
-0.22688343361195637,-0.22688343361195637
-0.17797370662602965,-0.17797370662602965
-0.17068927920259377,-0.17068927920259377
-0.22063963867758274,-0.22063963867758274
-0.2763134768424142,-0.2763134768424142
-0.2825572717767878,-0.2825572717767878
-0.25654145955023105,-0.25654145955023105
-0.2482163996377329,-0.2482163996377329
-0.2695493656635094,-0.2695493656635094
-0.27839474182053875,-0.27839474182053875
-0.2450945021705461,-0.2450945021705461
-0.1857784502939967,-0.1857784502939967
-0.13790935579713226,-0.13790935579713226
-0.11241385981510664,-0.11241385981510664
-0.10096690243542165,-0.10096690243542165
-0.0910808937893301,-0.0910808937893301
-0.08067456889870739,-0.08067456889870739
-0.0556993891612129,-0.0556993891612129
-0.011472508376066412,-0.011472508376066412
0.026510577474706455,0.026510577474706455
0.01402298760595921,0.01402298760595921
-0.04269148304793452,-0.04269148304793452
-0.08015425265417625,-0.08015425265417625
-0.05309780793855723,-0.05309780793855723
-0.0031474484635682495,-0.0031474484635682495
-0.0047083971971616555,-0.0047083971971616555
-0.0749510902088649,-0.0749510902088649
-0.1608032705565022,-0.1608032705565022
-0.21335521125414686,-0.21335521125414686
-0.2305256473236743,-0.2305256473236743
-0.23885070723617247,-0.23885070723617247
-0.24873671588226404,-0.24873671588226404
-0.2549805108166377,-0.2549805108166377
-0.25133829710491973,-0.25133829710491973
-0.24561481841507724,-0.24561481841507724
-0.24249292094789043,-0.24249292094789043
-0.24301323719242157,-0.24301323719242157
-0.24249292094789043,-0.24249292094789043
-0.2450945021705461,-0.2450945021705461
-0.2534195620830443,-0.2534195620830443
-0.2586227245283556,-0.2586227245283556
-0.24925703212679517,-0.24925703212679517
-0.23260691230179886,-0.23260691230179886
-0.22844438234554978,-0.22844438234554978
-0.24925703212679517,-0.24925703212679517
-0.2773541093314765,-0.2773541093314765
-0.2888010667111614,-0.2888010667111614
-0.27839474182053875,-0.27839474182053875
-0.2674681006853849,-0.2674681006853849
-0.2705899981525717,-0.2705899981525717
-0.27839474182053875,-0.27839474182053875
-0.26798841692991604,-0.26798841692991604
-0.23833039099164136,-0.23833039099164136
-0.21283489500961572,-0.21283489500961572
-0.21439584374320914,-0.21439584374320914
-0.2419726047033593,-0.2419726047033593
-0.26798841692991604,-0.26798841692991604
-0.2737118956197585,-0.2737118956197585
-0.25133829710491973,-0.25133829710491973
-0.22480216863383182,-0.22480216863383182
-0.22532248487836296,-0.22532248487836296
-0.2508179808603886,-0.2508179808603886
-0.2690290494189783,-0.2690290494189783
-0.26070398950648016,-0.26070398950648016
-0.24353355343695268,-0.24353355343695268
-0.22896469859008092,-0.22896469859008092
-0.21803805745492708,-0.21803805745492708
-0.2274037498564875,-0.2274037498564875
-0.263825886973667,-0.263825886973667
-0.27163063064163395,-0.27163063064163395
-0.20450983509711756,-0.20450983509711756
-0.13426714208541432,-0.13426714208541432
-0.14987662942134836,-0.14987662942134836
-0.10200753492448393,-0.10200753492448393
0.34442380288323005,0.34442380288323005
1.2669445044369325,1.2669445044369325
2.183741727300793,2.183741727300793
2.4053964474710567,2.4053964474710567
1.7367900732485477,1.7367900732485477
0.7122873877667426,0.7122873877667426
0.041599748566109374,0.041599748566109374
-0.08223551763230079,-0.08223551763230079
-0.02031788453309571,-0.02031788453309571
-0.09524342374557918,-0.09524342374557918
-0.23520849352445453,-0.23520849352445453
-0.25185861334945087,-0.25185861334945087
-0.2003473051408685,-0.2003473051408685
-0.25289924583851314,-0.25289924583851314
-0.39286431561738844,-0.39286431561738844
-0.46518827360721626,-0.46518827360721626
-0.44021309386972174,-0.44021309386972174
-0.42512392277831884,-0.42512392277831884
-0.4579038461837803,-0.4579038461837803
-0.4667492223408097,-0.4667492223408097
-0.41107538417597816,-0.41107538417597816
-0.32678415256193427,-0.32678415256193427
-0.24873671588226404,-0.24873671588226404
-0.1696486467135315,-0.1696486467135315
-0.07859330392058285,-0.07859330392058285
-0.0015864997299748441,-0.0015864997299748441
0.04368101354423391,0.04368101354423391
0.051485757212200944,0.051485757212200944
0.04107943232157824,0.04107943232157824
0.03119342367548667,0.03119342367548667
0.023908996252050778,0.023908996252050778
0.013502671361428076,0.013502671361428076
0.007779192671585589,0.007779192671585589
0.016624568828614888,0.016624568828614888
0.036396586120798026,0.036396586120798026
0.05668891965751229,0.05668891965751229
0.07594062070516429,0.07594062070516429
0.10299706542078332,0.10299706542078332
0.13577698882624484,0.13577698882624484
0.16751627974264408,0.16751627974264408
0.19509304070279423,0.19509304070279423
0.22214948541841328,0.22214948541841328
0.24816529764497003,0.24816529764497003
0.27157952864887114,0.27157952864887114
0.2913515459410543,0.2913515459410543
0.30904229825511287,0.30904229825511287
0.32048925563479785,0.32048925563479785
0.32309083685745354,0.32309083685745354
0.3137251444558931,0.3137251444558931
0.2918718621855854,0.2918718621855854
0.26013257126918615,0.26013257126918615
0.2242307503965378,0.2242307503965378
0.19093051074654516,0.19093051074654516
0.16075216856373933,0.16075216856373933
0.12745192891374668,0.12745192891374668
0.08894852681844267,0.08894852681844267
0.05356702219032548,0.05356702219032548
0.03327468865361121,0.03327468865361121
0.029632474941893267,0.029632474941893267
0.030152791186424402,0.030152791186424402
0.022348047518457374,0.022348047518457374
0.004136978959867642,0.004136978959867642
-0.011472508376066412,-0.011472508376066412
-0.014074089598722089,-0.014074089598722089
-0.0047083971971616555,-0.0047083971971616555
-0.0005458672409125739,-0.0005458672409125739
-0.014074089598722089,-0.014074089598722089
-0.031764841912780686,-0.031764841912780686
-0.02916326069012501,-0.02916326069012501
-0.006789662175286195,-0.006789662175286195
0.006738560182523319,0.006738560182523319
-0.0036677647080993847,-0.0036677647080993847
-0.018756935799502304,-0.018756935799502304
-0.014074089598722089,-0.014074089598722089
0.004657295204398778,0.004657295204398778
0.012462038872365805,0.012462038872365805
0.002055713981743102,0.002055713981743102
-0.008870927153410736,-0.008870927153410736
-0.007309978419817331,-0.007309978419817331
-0.001066183485443709,-0.001066183485443709
-0.0036677647080993847,-0.0036677647080993847
-0.018756935799502304,-0.018756935799502304
-0.025521046978407062,-0.025521046978407062
-0.019797568288564577,-0.019797568288564577
-0.011472508376066412,-0.011472508376066412
-0.009911559642473007,-0.009911559642473007
-0.014074089598722089,-0.014074089598722089
-0.02343978200028252,-0.02343978200028252
-0.03540705562449863,-0.03540705562449863
-0.03956958558074771,-0.03956958558074771
-0.031244525668249548,-0.031244525668249548
-0.021878833266689116,-0.021878833266689116
-0.021878833266689116,-0.021878833266689116
-0.0171959870659089,-0.0171959870659089
0.016104252584083753,0.016104252584083753
0.08114378315047564,0.08114378315047564
0.1352566725817137,0.1352566725817137
0.14930521118405435,0.14930521118405435
0.24296213519965867,0.24296213519965867
0.667540190737065,0.667540190737065
1.4511364550009545,1.4511364550009545
2.0984098631976864,2.0984098631976864
1.968851118309434,1.968851118309434
1.0702649640041635,1.0702649640041635
0.1602318523192082,0.1602318523192082
-0.12542176592838503,-0.12542176592838503
0.053046705945794345,0.053046705945794345
0.1576302710965525,0.1576302710965525
0.03171373992001781,0.03171373992001781
-0.08015425265417625,-0.08015425265417625
-0.05465875667215063,-0.05465875667215063
-0.036968004358092034,-0.036968004358092034
-0.13686872330806998,-0.13686872330806998
-0.27163063064163395,-0.27163063064163395
-0.3361498449634947,-0.3361498449634947
-0.33667016120802584,-0.33667016120802584
-0.33198731500724565,-0.33198731500724565
-0.3413530074088061,-0.3413530074088061
-0.33927174243068153,-0.33927174243068153
-0.3059715027806889,-0.3059715027806889
-0.24249292094789043,-0.24249292094789043
-0.163925168023689,-0.163925168023689
-0.07391045771980263,-0.07391045771980263
0.02026678254033283,0.02026678254033283
0.10455801415437672,0.10455801415437672
0.15242710865124118,0.15242710865124118
0.17011786096529977,0.17011786096529977
0.18104450210045359,0.18104450210045359
0.18884924576842063,0.18884924576842063
0.17740228838873565,0.17740228838873565
0.15034584367311662,0.15034584367311662
0.13733793755983825,0.13733793755983825
0.15971153607467706,0.15971153607467706
0.20393841685982356,0.20393841685982356
0.23775897275434732,0.23775897275434732
0.251807511356688,0.251807511356688
0.2684576311816843,0.2684576311816843
0.3069610332769883,0.3069610332769883
0.35274886279572826,0.35274886279572826
0.38084594000040956,0.38084594000040956
0.39021163240197,0.39021163240197
0.40061795729259264,0.40061795729259264
0.4219509233183692,0.4219509233183692
0.4438042055886769,0.4438042055886769
0.4542105304792996,0.4542105304792996
0.45473084672383074,0.45473084672383074
0.45056831676758163,0.45056831676758163
0.4396416756324278,0.4396416756324278
0.417268077117589,0.417268077117589
0.3850084699566586,0.3850084699566586
0.3537894952847905,0.3537894952847905
0.32777368305823373,0.32777368305823373
0.29967660585355244,0.29967660585355244
0.26273415249184184,0.26273415249184184
0.22319011790747556,0.22319011790747556
0.1914508269910763,0.1914508269910763
0.1690772284762375,0.1690772284762375
0.14774426245046096,0.14774426245046096
0.12328939895749759,0.12328939895749759
0.10143611668718992,0.10143611668718992
0.09155010804109835,0.09155010804109835
0.08998915930750495,0.08998915930750495
0.08686726184031814,0.08686726184031814
0.0790625181723511,0.0790625181723511
0.07489998821610203,0.07489998821610203
0.07489998821610203,0.07489998821610203
0.07333903948250863,0.07333903948250863
0.06761556079266613,0.06761556079266613
0.06813587703719727,0.06813587703719727
0.07542030446063316,0.07542030446063316
0.0775015694387577,0.0775015694387577
0.06917650952625953,0.06917650952625953
0.06813587703719727,0.06813587703719727
0.08530631310672473,0.08530631310672473
0.10507833039890786,0.10507833039890786
0.10663927913250126,0.10663927913250126
0.09623295424187857,0.09623295424187857
0.08686726184031814,0.08686726184031814
0.0775015694387577,0.0775015694387577
0.06397334708094819,0.06397334708094819
0.06137176585829251,0.06137176585829251
0.06813587703719727,0.06813587703719727
0.07073745825985295,0.07073745825985295
0.06033113336923024,0.06033113336923024
0.047843543500483,0.047843543500483
0.04628259476688959,0.04628259476688959
0.050965440967669806,0.050965440967669806
0.04732322725595186,0.04732322725595186
0.03587626987626689,0.03587626987626689
0.036396586120798026,0.036396586120798026
0.05668891965751229,0.05668891965751229
0.07125777450438407,0.07125777450438407
0.06813587703719727,0.06813587703719727
0.10455801415437672,0.10455801415437672
0.22319011790747556,0.22319011790747556
0.35326917904025934,0.35326917904025934
0.4469261030558637,0.4469261030558637
0.6873122080292482,0.6873122080292482
1.2981634791088008,1.2981634791088008
2.061467409835976,2.061467409835976
2.32890995952498,2.32890995952498
1.7331478595368297,1.7331478595368297
0.6961575841862775,0.6961575841862775
-0.009391243397941871,-0.009391243397941871
-0.08327615012136307,-0.08327615012136307
0.1321347751145269,0.1321347751145269
0.213304109261384,0.213304109261384
0.11704560402312397,0.11704560402312397
0.04732322725595186,0.04732322725595186
0.07542030446063316,0.07542030446063316
0.0655342958145416,0.0655342958145416
-0.07391045771980263,-0.07391045771980263
-0.2419726047033593,-0.2419726047033593
-0.3059715027806889,-0.3059715027806889
-0.2898416992002237,-0.2898416992002237
-0.2945245454010039,-0.2945245454010039
-0.31897940889396725,-0.31897940889396725
-0.28828075046663026,-0.28828075046663026
-0.1977457239182128,-0.1977457239182128
-0.11865765474948026,-0.11865765474948026
-0.06662603029636674,-0.06662603029636674
0.0004947652481496965,0.0004947652481496965
0.10299706542078332,0.10299706542078332
0.18156481834498472,0.18156481834498472
0.19665398943638765,0.19665398943638765
0.16647564725358183,0.16647564725358183
0.1409801512715562,0.1409801512715562
0.14722394620592982,0.14722394620592982
0.17532102341061112,0.17532102341061112
0.20445873310435467,0.20445873310435467
0.23047454533091144,0.23047454533091144
0.2570106738019993,0.2570106738019993
0.27938427231683816,0.27938427231683816
0.298115657119959,0.298115657119959
0.3262127343246403,0.3262127343246403
0.36939898262072457,0.36939898262072457
0.4042601710043106,0.4042601710043106
0.4115445984277465,0.4115445984277465
0.4042601710043106,0.4042601710043106
0.4120649146722776,0.4120649146722776
0.4401619918769589,0.4401619918769589
0.47398254777148274,0.47398254777148274
0.5005186762425706,0.5005186762425706
0.5176891123120981,0.5176891123120981
0.5244532234910029,0.5244532234910029
0.5197703772902226,0.5197703772902226
0.5062421549324131,0.5062421549324131
0.48438887266210545,0.48438887266210545
0.45056831676758163,0.45056831676758163
0.40321953851524833,0.40321953851524833
0.3506675978176037,0.3506675978176037
0.3043594520543327,0.3043594520543327
0.2658560499590286,0.2658560499590286
0.22631201537466236,0.22631201537466236
0.18624766454576494,0.18624766454576494
0.16283343354186386,0.16283343354186386
0.16699596349811294,0.16699596349811294
0.17740228838873565,0.17740228838873565
0.1576302710965525,0.1576302710965525
0.10299706542078332,0.10299706542078332
0.05616860341298116,0.05616860341298116
0.051485757212200944,0.051485757212200944
0.07385935572703975,0.07385935572703975
0.08426568061766246,0.08426568061766246
0.07437967197157089,0.07437967197157089
0.07021714201532181,0.07021714201532181
0.08530631310672473,0.08530631310672473
0.10299706542078332,0.10299706542078332
0.09987516795359651,0.09987516795359651
0.07489998821610203,0.07489998821610203
0.052006073456732076,0.052006073456732076
0.05512797092391889,0.05512797092391889
0.08062346690594452,0.08062346690594452
0.09571263799734743,0.09571263799734743
0.07594062070516429,0.07594062070516429
0.04316069729970278,0.04316069729970278
0.040559116077047104,0.040559116077047104
0.06917650952625953,0.06917650952625953
0.0847859968621936,0.0847859968621936
0.06605461205907273,0.06605461205907273
0.05512797092391889,0.05512797092391889
0.07229840699344635,0.07229840699344635
0.08530631310672473,0.08530631310672473
0.04992480847860754,0.04992480847860754
-0.01615535457684663,-0.01615535457684663
-0.05153685920496382,-0.05153685920496382
-0.026041363222938197,-0.026041363222938197
0.02494962874111305,0.02494962874111305
0.04732322725595186,0.04732322725595186
0.03795753485439143,0.03795753485439143
0.03535595363173575,0.03535595363173575
0.05668891965751229,0.05668891965751229
0.0790625181723511,0.0790625181723511
0.09207042428562949,0.09207042428562949
0.09102979179656721,0.09102979179656721
0.05877018463563684,0.05877018463563684
0.07854220192781997,0.07854220192781997
0.43287756445352304,0.43287756445352304
1.3122120177111414,1.3122120177111414
2.3554460879960675,2.3554460879960675
2.7675365536647267,2.7675365536647267
2.1343116840703353,2.1343116840703353
0.9276983130026326,0.9276983130026326
-0.011992824620597548,-0.011992824620597548
-0.3210606738720918,-0.3210606738720918
-0.252378929593982,-0.252378929593982
-0.15820168933384654,-0.15820168933384654
-0.13790935579713226,-0.13790935579713226
-0.13894998828619454,-0.13894998828619454
-0.14519378322056814,-0.14519378322056814
-0.18421750156040329,-0.18421750156040329
-0.2555008270611688,-0.2555008270611688
-0.3221013063611541,-0.3221013063611541
-0.3481171185877108,-0.3481171185877108
-0.3418733236533372,-0.3418733236533372
-0.3460358536095863,-0.3460358536095863
-0.3762141957923921,-0.3762141957923921
-0.38557988819395256,-0.38557988819395256
-0.3148168789377182,-0.3148168789377182
-0.17433149291431171,-0.17433149291431171
-0.0364476881135609,-0.0364476881135609
0.03535595363173575,0.03535595363173575
0.05460765467938775,0.05460765467938775
0.06241239834735478,0.06241239834735478
0.08582662935125586,0.08582662935125586
0.10091580044265878,0.10091580044265878
0.08322504812860018,0.08322504812860018
0.05512797092391889,0.05512797092391889
0.05564828716845002,0.05564828716845002
0.08270473188406906,0.08270473188406906
0.09519232175281629,0.09519232175281629
0.07958283441688224,0.07958283441688224
0.07125777450438407,0.07125777450438407
0.0967532704864097,0.0967532704864097
0.13005351013640234,0.13005351013640234
0.1378582538043694,0.1378582538043694
0.13421604009265142,0.13421604009265142
0.1545083736293657,0.1545083736293657
0.1961336731918565,0.1961336731918565
0.23203549406450485,0.23203549406450485
0.2502465626230946,0.2502465626230946
0.2642951012254352,0.2642951012254352
0.28042490480590043,0.28042490480590043
0.2918718621855854,0.2918718621855854
0.2944734434082411,0.2944734434082411
0.2877093322293363,0.2877093322293363
0.2674169986926221,0.2674169986926221
0.2372386565098162,0.2372386565098162
0.21122284428325944,0.21122284428325944
0.19509304070279423,0.19509304070279423
0.17480070716607998,0.17480070716607998
0.13733793755983825,0.13733793755983825
0.09415168926375403,0.09415168926375403
0.07021714201532181,0.07021714201532181
0.07021714201532181,0.07021714201532181
0.06813587703719727,0.06813587703719727
0.038477851098922565,0.038477851098922565
-0.012513140865128683,-0.012513140865128683
-0.04945559422683928,-0.04945559422683928
-0.05517907291668177,-0.05517907291668177
-0.045813380515121335,-0.045813380515121335
-0.04633369675965247,-0.04633369675965247
-0.05674002165027517,-0.05674002165027517
-0.06194318409558652,-0.06194318409558652
-0.05621970540574404,-0.05621970540574404
-0.04997591047137041,-0.04997591047137041
-0.05257749169402609,-0.05257749169402609
-0.0629838165846488,-0.0629838165846488
-0.07807298767605171,-0.07807298767605171
-0.0942027912565169,-0.0942027912565169
-0.10460911614713961,-0.10460911614713961
-0.10096690243542165,-0.10096690243542165
-0.08119488514323853,-0.08119488514323853
-0.0556993891612129,-0.0556993891612129
-0.04113053431434112,-0.04113053431434112
-0.04633369675965247,-0.04633369675965247
-0.06714634654089788,-0.06714634654089788
-0.08847931256667442,-0.08847931256667442
-0.09732468872370371,-0.09732468872370371
-0.09316215876745464,-0.09316215876745464
-0.08015425265417625,-0.08015425265417625
-0.07703235518698945,-0.07703235518698945
-0.0837964663658942,-0.0837964663658942
-0.09784500496823485,-0.09784500496823485
-0.11293417605963776,-0.11293417605963776
-0.11553575728229344,-0.11553575728229344
-0.09628405623464144,-0.09628405623464144
-0.06818697902996014,-0.06818697902996014
-0.058821286628399715,-0.058821286628399715
-0.06246350034011766,-0.06246350034011766
-0.05049622671590155,-0.05049622671590155
-0.03540705562449863,-0.03540705562449863
-0.05153685920496382,-0.05153685920496382
-0.06194318409558652,-0.06194318409558652
-0.013553773354190952,-0.013553773354190952
0.03587626987626689,0.03587626987626689
0.030152791186424402,0.030152791186424402
0.18364608332310928,0.18364608332310928
0.8361226539651528,0.8361226539651528
1.895486527830544,1.895486527830544
2.6629529885139687,2.6629529885139687
2.492289260307756,2.492289260307756
1.5057696606767237,1.5057696606767237
0.45993400916914207,0.45993400916914207
-0.05517907291668177,-0.05517907291668177
-0.086918363833081,-0.086918363833081
-0.0276023119565316,-0.0276023119565316
-0.08899962881120556,-0.08899962881120556
-0.1800549716041542,-0.1800549716041542
-0.1857784502939967,-0.1857784502939967
-0.17016896295806264,-0.17016896295806264
-0.23989133972523474,-0.23989133972523474
-0.36268597343458264,-0.36268597343458264
-0.42512392277831884,-0.42512392277831884
-0.40847380295332253,-0.40847380295332253
-0.38662052068301483,-0.38662052068301483
-0.38662052068301483,-0.38662052068301483
-0.3684094521244251,-0.3684094521244251
-0.3132559302041248,-0.3132559302041248
-0.24301323719242157,-0.24301323719242157
-0.16444548426822014,-0.16444548426822014
-0.0718291927416781,-0.0718291927416781
0.022348047518457374,0.022348047518457374
0.0775015694387577,0.0775015694387577
0.09155010804109835,0.09155010804109835
0.0847859968621936,0.0847859968621936
0.07646093694969543,0.07646093694969543
0.06761556079266613,0.06761556079266613
0.05877018463563684,0.05877018463563684
0.05877018463563684,0.05877018463563684
0.07542030446063316,0.07542030446063316
0.10195643293172105,0.10195643293172105
0.12120813397937305,0.12120813397937305
0.13161445886999576,0.13161445886999576
0.1498255274285855,0.1498255274285855
0.18676798079029608,0.18676798079029608
0.22631201537466236,0.22631201537466236
0.24972624637856344,0.24972624637856344
0.2622138362473107,0.2622138362473107
0.2830264860285561,0.2830264860285561
0.3168470419230799,0.3168470419230799
0.3465050678613546,0.3465050678613546
0.3610739227082264,0.3610739227082264
0.37043961510978685,0.37043961510978685
0.3891709999129077,0.3891709999129077
0.409463333449622,0.409463333449622
0.4068617522269663,0.4068617522269663
0.3746021450660359,0.3746021450660359
0.332456529259014,0.332456529259014
0.3001969220980836,0.3001969220980836
0.2752217423605891,0.2752217423605891
0.24712466515590775,0.24712466515590775
0.21746663921763307,0.21746663921763307
0.1914508269910763,0.1914508269910763
0.16647564725358183,0.16647564725358183
0.13577698882624484,0.13577698882624484
0.10820022786609468,0.10820022786609468
0.0967532704864097,0.0967532704864097
0.10195643293172105,0.10195643293172105
0.10663927913250126,0.10663927913250126
0.09935485170906538,0.09935485170906538
0.0847859968621936,0.0847859968621936
0.07698125319422656,0.07698125319422656
0.07802188568328884,0.07802188568328884
0.08010315066141338,0.08010315066141338
0.07698125319422656,0.07698125319422656
0.07281872323797749,0.07281872323797749
0.07229840699344635,0.07229840699344635
0.07229840699344635,0.07229840699344635
0.06813587703719727,0.06813587703719727
0.06449366332547932,0.06449366332547932
0.06657492830360386,0.06657492830360386
0.07229840699344635,0.07229840699344635
0.07021714201532181,0.07021714201532181
0.05772955214657456,0.05772955214657456
0.04628259476688959,0.04628259476688959
0.047843543500483,0.047843543500483
0.05877018463563684,0.05877018463563684
0.06605461205907273,0.06605461205907273
0.05668891965751229,0.05668891965751229
0.047843543500483,0.047843543500483
0.04524196227782732,0.04524196227782732
0.04368101354423391,0.04368101354423391
0.04107943232157824,0.04107943232157824
0.04524196227782732,0.04524196227782732
0.051485757212200944,0.051485757212200944
0.04680291101142073,0.04680291101142073
0.040038799832515966,0.040038799832515966
0.052006073456732076,0.052006073456732076
0.07073745825985295,0.07073745825985295
0.06917650952625953,0.06917650952625953
0.06605461205907273,0.06605461205907273
0.10299706542078332,0.10299706542078332
0.15971153607467706,0.15971153607467706
0.1680365959871752,0.1680365959871752
0.16387406603092614,0.16387406603092614
0.3673177176426,0.3673177176426
0.9760877237440282,0.9760877237440282
1.802870236304002,1.802870236304002
2.2482609416226538,2.2482609416226538
1.8564628094907087,1.8564628094907087
0.9037637657542004,0.9037637657542004
0.1737600746770177,0.1737600746770177
0.07281872323797749,0.07281872323797749
0.25597004131293705,0.25597004131293705
0.24192150271059643,0.24192150271059643
0.049404492234076405,0.049404492234076405
-0.027081995712000467,-0.027081995712000467
0.03483563738720462,0.03483563738720462
0.021307415029395104,0.021307415029395104
-0.11397480854870004,-0.11397480854870004
-0.21907868994398935,-0.21907868994398935
-0.2315662798127366,-0.2315662798127366
-0.23416786103539225,-0.23416786103539225
-0.2659071519517915,-0.2659071519517915
-0.27423221186428964,-0.27423221186428964
-0.23416786103539225,-0.23416786103539225
-0.17901433911509193,-0.17901433911509193
-0.12490144968385387,-0.12490144968385387
-0.05205717544949495,-0.05205717544949495
0.04732322725595186,0.04732322725595186
0.1378582538043694,0.1378582538043694
0.19353209196920085,0.19353209196920085
0.20706031432701036,0.20706031432701036
0.20289778437076128,0.20289778437076128
0.20289778437076128,0.20289778437076128
0.20549936559341694,0.20549936559341694
0.19821493816998106,0.19821493816998106
0.1898898782574829,0.1898898782574829
0.1987352544145122,0.1987352544145122
0.2268323316191935,0.2268323316191935
0.2570106738019993,0.2570106738019993
0.27782332358324474,0.27782332358324474
0.29395312716370997,0.29395312716370997
0.3147657769449554,0.3147657769449554
0.3428628541496367,0.3428628541496367
0.37200056384338026,0.37200056384338026
0.398016376069937,0.398016376069937
0.41674776087305787,0.41674776087305787
0.4292353507418051,0.4292353507418051
0.43808072689883437,0.43808072689883437
0.44952768427851936,0.44952768427851936
0.46513717161445345,0.46513717161445345
0.47762476148320065,0.47762476148320065
0.4765841289941384,0.4765841289941384
0.4552511629683619,0.4552511629683619
0.4209102908293069,0.4209102908293069
0.3850084699566586,0.3850084699566586
0.3543098115293216,0.3543098115293216
0.3262127343246403,0.3262127343246403
0.29863597336449016,0.29863597336449016
0.27053889615980886,0.27053889615980886
0.24244181895512754,0.24244181895512754
0.21174316052779057,0.21174316052779057
0.18156481834498472,0.18156481834498472
0.1571099548520214,0.1571099548520214
0.1456629974723364,0.1456629974723364
0.14514268122780527,0.14514268122780527
0.1456629974723364,0.1456629974723364
0.13629730507077598,0.13629730507077598
0.11964718524577965,0.11964718524577965
0.10611896288797014,0.10611896288797014
0.10351738166531446,0.10351738166531446
0.1040376979098456,0.1040376979098456
0.09883453546453425,0.09883453546453425
0.09311105677469175,0.09311105677469175
0.1040376979098456,0.1040376979098456
0.12693161266921554,0.12693161266921554
0.1378582538043694,0.1378582538043694
0.12537066393562213,0.12537066393562213
0.10767991162156354,0.10767991162156354
0.10507833039890786,0.10507833039890786
0.11236275782234376,0.11236275782234376
0.1128830740668749,0.1128830740668749
0.10924086035515694,0.10924086035515694
0.11132212533328148,0.11132212533328148
0.11704560402312397,0.11704560402312397
0.11080180908875036,0.11080180908875036
0.10247674917625219,0.10247674917625219
0.0967532704864097,0.0967532704864097
0.09415168926375403,0.09415168926375403
0.08998915930750495,0.08998915930750495
0.08946884306297381,0.08946884306297381
0.09259074053016061,0.09259074053016061
0.10143611668718992,0.10143611668718992
0.11548465528953057,0.11548465528953057
0.1295331938918712,0.1295331938918712
