ECG,PPG
0.026462080077585916,0.026462080077585916
0.03255350145349158,0.03255350145349158
0.04995756252750778,0.04995756252750778
0.04778205489325576,0.04778205489325576
0.03820982130254685,0.03820982130254685
0.04778205489325576,0.04778205489325576
0.07301794345057924,0.07301794345057924
0.08955180147089463,0.08955180147089463
0.0960783243736507,0.0960783243736507
0.10913137017916284,0.10913137017916284
0.1308864465216831,0.1308864465216831
0.14698520301514809,0.14698520301514809
0.15394682744475455,0.15394682744475455
0.16482436561601468,0.16482436561601468
0.18875494959278694,0.18875494959278694
0.2196471579991657,0.2196471579991657
0.2466234526638908,0.2466234526638908
0.2627222091573558,0.2627222091573558
0.26968383358696224,0.26968383358696224
0.2718593412212143,0.2718593412212143
0.26968383358696224,0.26968383358696224
0.2579360923620013,0.2579360923620013
0.23487571143892988,0.23487571143892988
0.20876961982790557,0.20876961982790557
0.18875494959278694,0.18875494959278694
0.17396149767987318,0.17396149767987318
0.15394682744475455,0.15394682744475455
0.12566522819947823,0.12566522819947823
0.0960783243736507,0.0960783243736507
0.07214774039687843,0.07214774039687843
0.04995756252750778,0.04995756252750778
0.024721673970184294,0.024721673970184294
0.0034016991545144535,0.0034016991545144535
-0.00573543290934405,-0.00573543290934405
-0.007910940543596074,-0.007910940543596074
-0.014872564973202553,-0.014872564973202553
-0.030971321466667534,-0.030971321466667534
-0.05098599170178616,-0.05098599170178616
-0.06577944361469992,-0.06577944361469992
-0.07100066193690478,-0.07100066193690478
-0.06577944361469992,-0.06577944361469992
-0.05707741307769183,-0.05707741307769183
-0.0544668039165894,-0.0544668039165894
-0.05707741307769183,-0.05707741307769183
-0.0544668039165894,-0.0544668039165894
-0.043154164218478876,-0.043154164218478876
-0.030971321466667534,-0.030971321466667534
-0.025750103144462678,-0.025750103144462678
-0.019658681768557007,-0.019658681768557007
-0.01095665123154891,-0.01095665123154891
-0.007910940543596074,-0.007910940543596074
-0.023139493983360248,-0.023139493983360248
-0.042719062691628465,-0.042719062691628465
-0.048375382540683735,-0.048375382540683735
-0.030971321466667534,-0.030971321466667534
-0.007910940543596074,-0.007910940543596074
0.0034016991545144535,0.0034016991545144535
-7.911306028878597e-05,-7.911306028878597e-05
-0.007910940543596074,-0.007910940543596074
-0.01095665123154891,-0.01095665123154891
-0.007910940543596074,-0.007910940543596074
0.0020963945739632386,0.0020963945739632386
0.026462080077585916,0.026462080077585916
0.08041466940703612,0.08041466940703612
0.17700720836782602,0.17700720836782602
0.32972784429231816,0.32972784429231816
0.5472786077175206,0.5472786077175206
0.8244382803212286,0.8244382803212286
1.1255285369017087,1.1255285369017087
1.3831086407971485,1.3831086407971485
1.5188603171744748,1.5188603171744748
1.4870979057143952,1.4870979057143952
1.2991340461150203,1.2991340461150203
1.0237147796187138,1.0237147796187138
0.7439444978539036,0.7439444978539036
0.5102949779352361,0.5102949779352361
0.3275523366580661,0.3275523366580661
0.18701454348538532,0.18701454348538532
0.08433058314868977,0.08433058314868977
0.016889846486877007,0.016889846486877007
-0.030971321466667534,-0.030971321466667534
-0.07100066193690478,-0.07100066193690478
-0.10058756576273233,-0.10058756576273233
-0.11538101767564608,-0.11538101767564608
-0.12364794668580378,-0.12364794668580378
-0.1323499772228119,-0.1323499772228119
-0.13539568791076473,-0.13539568791076473
-0.12843406348115824,-0.12843406348115824
-0.12364794668580378,-0.12364794668580378
-0.13626589096446554,-0.13626589096446554
-0.15845606883383617,-0.15845606883383617
-0.1793409421226556,-0.1793409421226556
-0.19326419098186856,-0.19326419098186856
-0.2041417291531287,-0.2041417291531287
-0.2045768306799791,-0.2045768306799791
-0.19152378487446695,-0.19152378487446695
-0.1697687085319467,-0.1697687085319467
-0.15018913982367849,-0.15018913982367849
-0.13539568791076473,-0.13539568791076473
-0.12843406348115824,-0.12843406348115824
-0.13539568791076473,-0.13539568791076473
-0.14844873371627687,-0.14844873371627687
-0.14670832760887526,-0.14670832760887526
-0.11799162683674852,-0.11799162683674852
-0.07752718483966087,-0.07752718483966087
-0.04924558559438454,-0.04924558559438454
-0.042719062691628465,-0.042719062691628465
-0.05011578864808535,-0.05011578864808535
-0.06577944361469992,-0.06577944361469992
-0.08492391079611775,-0.08492391079611775
-0.10058756576273233,-0.10058756576273233
-0.10493858103123638,-0.10493858103123638
-0.10058756576273233,-0.10058756576273233
-0.09710675354792908,-0.09710675354792908
-0.10058756576273233,-0.10058756576273233
-0.10450347950438596,-0.10450347950438596
-0.10058756576273233,-0.10058756576273233
-0.08840472301092099,-0.08840472301092099
-0.07752718483966087,-0.07752718483966087
-0.07448147415170803,-0.07448147415170803
-0.07752718483966087,-0.07752718483966087
-0.07622188025910964,-0.07622188025910964
-0.06577944361469992,-0.06577944361469992
-0.048375382540683735,-0.048375382540683735
-0.030971321466667534,-0.030971321466667534
-0.020528884822257818,-0.020528884822257818
-0.019658681768557007,-0.019658681768557007
-0.024879900090761867,-0.024879900090761867
-0.030971321466667534,-0.030971321466667534
-0.03575743826202199,-0.03575743826202199
-0.042719062691628465,-0.042719062691628465
-0.054031702389739,-0.054031702389739
-0.06577944361469992,-0.06577944361469992
-0.07317616957115682,-0.07317616957115682
-0.07752718483966087,-0.07752718483966087
-0.07970269247391289,-0.07970269247391289
-0.07752718483966087,-0.07752718483966087
-0.06795495124895196,-0.06795495124895196
-0.0544668039165894,-0.0544668039165894
-0.04141375811107725,-0.04141375811107725
-0.030971321466667534,-0.030971321466667534
-0.02009378329540741,-0.02009378329540741
-0.007910940543596074,-0.007910940543596074
0.0012261915202624288,0.0012261915202624288
0.0034016991545144535,0.0034016991545144535
0.0012261915202624288,0.0012261915202624288
0.0034016991545144535,0.0034016991545144535
0.01906535412112903,0.01906535412112903
0.04995756252750778,0.04995756252750778
0.08998690299774503,0.08998690299774503
0.1308864465216831,0.1308864465216831
0.16525946714286507,0.16525946714286507
0.18875494959278694,0.18875494959278694
0.1939761679149918,0.1939761679149918
0.17700720836782602,0.17700720836782602
0.14655010148829767,0.14655010148829767
0.11913870529672216,0.11913870529672216
0.10739096407176123,0.10739096407176123
0.10782606559861163,0.10782606559861163
0.11261218239396609,0.11261218239396609
0.11913870529672216,0.11913870529672216
0.12740563430687984,0.12740563430687984
0.1308864465216831,0.1308864465216831
0.12348972056522621,0.12348972056522621
0.10782606559861163,0.10782606559861163
0.09259751215884746,0.09259751215884746
0.08433058314868977,0.08433058314868977
0.08302527856813856,0.08302527856813856
0.08433058314868977,0.08433058314868977
0.08824649689034342,0.08824649689034342
0.0960783243736507,0.0960783243736507
0.11087177628656447,0.11087177628656447
0.1308864465216831,0.1308864465216831
0.1487256091225497,0.1487256091225497
0.15394682744475455,0.15394682744475455
0.1417639846929432,0.1417639846929432
0.11913870529672216,0.11913870529672216
0.10042933964215475,0.10042933964215475
0.0960783243736507,0.0960783243736507
0.10521545643750921,0.10521545643750921
0.11913870529672216,0.11913870529672216
0.12958114194113188,0.12958114194113188
0.1308864465216831,0.1308864465216831
0.11696319766247014,0.11696319766247014
0.08433058314868977,0.08433058314868977
0.04038532893679887,0.04038532893679887
0.0034016991545144535,0.0034016991545144535
-0.01182685428524972,-0.01182685428524972
-0.007910940543596074,-0.007910940543596074
-7.911306028878597e-05,-7.911306028878597e-05
0.0034016991545144535,0.0034016991545144535
0.009493120530420122,0.009493120530420122
0.026462080077585916,0.026462080077585916
0.052133070161759804,0.052133070161759804
0.07301794345057924,0.07301794345057924
0.08520078620239058,0.08520078620239058
0.0960783243736507,0.0960783243736507
0.10695586254491082,0.10695586254491082
0.10782606559861163,0.10782606559861163
0.08955180147089463,0.08955180147089463
0.061270202225618305,0.061270202225618305
0.039515125883098065,0.039515125883098065
0.026462080077585916,0.026462080077585916
0.01558454190632579,0.01558454190632579
0.0034016991545144535,0.0034016991545144535
-0.0026897222213912155,-0.0026897222213912155
0.0034016991545144535,0.0034016991545144535
0.020370658701680245,0.020370658701680245
0.03820982130254685,0.03820982130254685
0.048652257946956566,0.048652257946956566
0.04995756252750778,0.04995756252750778
0.04778205489325576,0.04778205489325576
0.04995756252750778,0.04995756252750778
0.05343837474231102,0.05343837474231102
0.04995756252750778,0.04995756252750778
0.03733961824884604,0.03733961824884604
0.026462080077585916,0.026462080077585916
0.027767384658137127,0.027767384658137127
0.03820982130254685,0.03820982130254685
0.04821715642010616,0.04821715642010616
0.04995756252750778,0.04995756252750778
0.04212573504420049,0.04212573504420049
0.026462080077585916,0.026462080077585916
0.0073176128961680974,0.0073176128961680974
-0.007910940543596074,-0.007910940543596074
-0.010086448177848099,-0.010086448177848099
0.0034016991545144535,0.0034016991545144535
0.02689718160443632,0.02689718160443632
0.04995756252750778,0.04995756252750778
0.06605631902097277,0.06605631902097277
0.07301794345057924,0.07301794345057924
0.06823182665522479,0.06823182665522479
0.04995756252750778,0.04995756252750778
0.023851470916483486,0.023851470916483486
0.0034016991545144535,0.0034016991545144535
-0.0018195191676904057,-0.0018195191676904057
0.0034016991545144535,0.0034016991545144535
0.013409034272073767,0.013409034272073767
0.026462080077585916,0.026462080077585916
0.041690633517350084,0.041690633517350084
0.04995756252750778,0.04995756252750778
0.043431039624751706,0.043431039624751706
0.026462080077585916,0.026462080077585916
0.010798425110971337,0.010798425110971337
0.0034016991545144535,0.0034016991545144535
0.005577206788766478,0.005577206788766478
0.015149440379475387,0.015149440379475387
0.031683298399790776,0.031683298399790776
0.04995756252750778,0.04995756252750778
0.058659593064515875,0.058659593064515875
0.04995756252750778,0.04995756252750778
0.026462080077585916,0.026462080077585916
0.0034016991545144535,0.0034016991545144535
-0.00486522985564324,-0.00486522985564324
0.0034016991545144535,0.0034016991545144535
0.01819515106742822,0.01819515106742822
0.026462080077585916,0.026462080077585916
0.02689718160443632,0.02689718160443632
0.026462080077585916,0.026462080077585916
0.034293907560893205,0.034293907560893205
0.04995756252750778,0.04995756252750778
0.06518611596727195,0.06518611596727195
0.07301794345057924,0.07301794345057924
0.07301794345057924,0.07301794345057924
0.07301794345057924,0.07301794345057924
0.07997956788018572,0.07997956788018572
0.0960783243736507,0.0960783243736507
0.11522279155506852,0.11522279155506852
0.1308864465216831,0.1308864465216831
0.14263418774664402,0.14263418774664402
0.15394682744475455,0.15394682744475455
0.16438926408916427,0.16438926408916427
0.1656945686697155,0.1656945686697155
0.1495958121762505,0.1495958121762505
0.11913870529672216,0.11913870529672216
0.08650609078294179,0.08650609078294179
0.061270202225618305,0.061270202225618305
0.046911851839554944,0.046911851839554944
0.03820982130254685,0.03820982130254685
0.03516411061459401,0.03516411061459401
0.03820982130254685,0.03820982130254685
0.046041648785854136,0.046041648785854136
0.04995756252750778,0.04995756252750778
0.0425608365710509,0.0425608365710509
0.026462080077585916,0.026462080077585916
0.008187815949868907,0.008187815949868907
-0.007910940543596074,-0.007910940543596074
-0.023139493983360248,-0.023139493983360248
-0.030971321466667534,-0.030971321466667534
-0.0370627428425732,-0.0370627428425732
-0.042719062691628465,-0.042719062691628465
-0.05098599170178616,-0.05098599170178616
-0.0544668039165894,-0.0544668039165894
-0.05359660086288859,-0.05359660086288859
-0.0544668039165894,-0.0544668039165894
-0.05707741307769183,-0.05707741307769183
-0.0544668039165894,-0.0544668039165894
-0.04489457032588049,-0.04489457032588049
-0.042719062691628465,-0.042719062691628465
-0.05229129628233738,-0.05229129628233738
-0.0544668039165894,-0.0544668039165894
-0.016612971080604173,-0.016612971080604173
0.08433058314868977,0.08433058314868977
0.2705540366406631,0.2705540366406631
0.5585912474156312,0.5585912474156312
0.9397401849365857,0.9397401849365857
1.345254807961163,1.345254807961163
1.6654895317230611,1.6654895317230611
1.796455091305033,1.796455091305033
1.6989923492905423,1.6989923492905423
1.4148710522572279,1.4148710522572279
1.046340059014935,1.046340059014935
0.6978237360077607,0.6978237360077607
0.42762568783365923,0.42762568783365923
0.23487571143892988,0.23487571143892988
0.09520812131994989,0.09520812131994989
-0.007910940543596074,-0.007910940543596074
-0.07883248942021208,-0.07883248942021208
-0.12364794668580378,-0.12364794668580378
-0.1519295459310801,-0.1519295459310801
-0.1697687085319467,-0.1697687085319467
-0.17890584059580522,-0.17890584059580522
-0.18151644975690764,-0.18151644975690764
-0.17803563754210439,-0.17803563754210439
-0.1697687085319467,-0.1697687085319467
-0.1606315764680882,-0.1606315764680882
-0.15845606883383617,-0.15845606883383617
-0.17107401311249792,-0.17107401311249792
-0.19326419098186856,-0.19326419098186856
-0.21588947037808962,-0.21588947037808962
-0.22763721160305056,-0.22763721160305056
-0.22807231312990098,-0.22807231312990098
-0.21632457190494003,-0.21632457190494003
-0.19848540930407343,-0.19848540930407343
-0.18151644975690764,-0.18151644975690764
-0.17194421616619873,-0.17194421616619873
-0.1697687085319467,-0.1697687085319467
-0.17150911463934831,-0.17150911463934831
-0.1697687085319467,-0.1697687085319467
-0.15802096730698578,-0.15802096730698578
-0.13539568791076473,-0.13539568791076473
-0.11407571309509487,-0.11407571309509487
-0.11233530698769326,-0.11233530698769326
-0.13191487569596147,-0.13191487569596147
-0.15845606883383617,-0.15845606883383617
-0.17542502838100196,-0.17542502838100196
-0.18151644975690764,-0.18151644975690764
-0.17977604364950603,-0.17977604364950603
-0.1697687085319467,-0.1697687085319467
-0.1514944444042297,-0.1514944444042297
-0.13539568791076473,-0.13539568791076473
-0.13017446958855985,-0.13017446958855985
-0.13539568791076473,-0.13539568791076473
-0.13844139859871754,-0.13844139859871754
-0.13539568791076473,-0.13539568791076473
-0.12886916500800863,-0.12886916500800863
-0.12364794668580378,-0.12364794668580378
-0.11842672836359892,-0.11842672836359892
-0.11233530698769326,-0.11233530698769326
-0.10450347950438596,-0.10450347950438596
-0.10058756576273233,-0.10058756576273233
-0.09971736270903152,-0.09971736270903152
-0.10058756576273233,-0.10058756576273233
-0.10015246423588192,-0.10015246423588192
-0.10058756576273233,-0.10058756576273233
-0.10102266728958273,-0.10102266728958273
-0.10058756576273233,-0.10058756576273233
-0.09623655049422827,-0.09623655049422827
-0.0888398245377714,-0.0888398245377714
-0.07926759094706248,-0.07926759094706248
-0.06577944361469992,-0.06577944361469992
-0.047940281013833325,-0.047940281013833325
-0.030971321466667534,-0.030971321466667534
-0.020528884822257818,-0.020528884822257818
-0.019658681768557007,-0.019658681768557007
-0.030971321466667534,-0.030971321466667534
-0.0544668039165894,-0.0544668039165894
-0.0818782001081649,-0.0818782001081649
-0.10058756576273233,-0.10058756576273233
-0.10450347950438596,-0.10450347950438596
-0.10058756576273233,-0.10058756576273233
-0.09623655049422827,-0.09623655049422827
-0.0888398245377714,-0.0888398245377714
-0.07361127109800722,-0.07361127109800722
-0.0544668039165894,-0.0544668039165894
-0.03923825047682523,-0.03923825047682523
-0.030971321466667534,-0.030971321466667534
-0.02618520467131308,-0.02618520467131308
-0.019658681768557007,-0.019658681768557007
-0.010086448177848099,-0.010086448177848099
0.0034016991545144535,0.0034016991545144535
0.02080576022853065,0.02080576022853065
0.03820982130254685,0.03820982130254685
0.05517878084971264,0.05517878084971264
0.07301794345057924,0.07301794345057924
0.09477301979309949,0.09477301979309949
0.11913870529672216,0.11913870529672216
0.14393949232719525,0.14393949232719525
0.1656945686697155,0.1656945686697155
0.18135822363633006,0.18135822363633006
0.18875494959278694,0.18875494959278694
0.18919005111963735,0.18919005111963735
0.18875494959278694,0.18875494959278694
0.18962515264648777,0.18962515264648777
0.18875494959278694,0.18875494959278694
0.1835337312705821,0.1835337312705821
0.17700720836782602,0.17700720836782602
0.17178599004562115,0.17178599004562115
0.1656945686697155,0.1656945686697155
0.15481703049845535,0.15481703049845535
0.14219908621979363,0.14219908621979363
0.13393215720963592,0.13393215720963592
0.1308864465216831,0.1308864465216831
0.1313215480485335,0.1313215480485335
0.1308864465216831,0.1308864465216831
0.12392482209207661,0.12392482209207661
0.10782606559861163,0.10782606559861163
0.08694119230979219,0.08694119230979219
0.07301794345057924,0.07301794345057924
0.07084243581632721,0.07084243581632721
0.07301794345057924,0.07301794345057924
0.07301794345057924,0.07301794345057924
0.07301794345057924,0.07301794345057924
0.0778040602459337,0.0778040602459337
0.08433058314868977,0.08433058314868977
0.08694119230979219,0.08694119230979219
0.08433058314868977,0.08433058314868977
0.07649875566538247,0.07649875566538247
0.061270202225618305,0.061270202225618305
0.04125553199049968,0.04125553199049968
0.026462080077585916,0.026462080077585916
0.02341636938963308,0.02341636938963308
0.026462080077585916,0.026462080077585916
0.027767384658137127,0.027767384658137127
0.026462080077585916,0.026462080077585916
0.026462080077585916,0.026462080077585916
0.026462080077585916,0.026462080077585916
0.025591877023885105,0.025591877023885105
0.026462080077585916,0.026462080077585916
0.03516411061459401,0.03516411061459401
0.04995756252750778,0.04995756252750778
0.0608351006987679,0.0608351006987679
0.061270202225618305,0.061270202225618305
0.05474367932286223,0.05474367932286223
0.04995756252750778,0.04995756252750778
0.049522461000657374,0.049522461000657374
0.04995756252750778,0.04995756252750778
0.048652257946956566,0.048652257946956566
0.04995756252750778,0.04995756252750778
0.05604898390341345,0.05604898390341345
0.061270202225618305,0.061270202225618305
0.058659593064515875,0.058659593064515875
0.04995756252750778,0.04995756252750778
0.04212573504420049,0.04212573504420049
0.03820982130254685,0.03820982130254685
0.03472900908774361,0.03472900908774361
0.026462080077585916,0.026462080077585916
0.015149440379475387,0.015149440379475387
0.0034016991545144535,0.0034016991545144535
-0.0039950268019424305,-0.0039950268019424305
-0.007910940543596074,-0.007910940543596074
-0.012261955812100123,-0.012261955812100123
-0.019658681768557007,-0.019658681768557007
-0.0279256107787147,-0.0279256107787147
-0.030971321466667534,-0.030971321466667534
-0.024009697037061056,-0.024009697037061056
-0.007910940543596074,-0.007910940543596074
0.010363323584120933,0.010363323584120933
0.026462080077585916,0.026462080077585916
0.0425608365710509,0.0425608365710509
0.061270202225618305,0.061270202225618305
0.07562855261168167,0.07562855261168167
0.07301794345057924,0.07301794345057924
0.052133070161759804,0.052133070161759804
0.026462080077585916,0.026462080077585916
0.010798425110971337,0.010798425110971337
0.0034016991545144535,0.0034016991545144535
0.00035598846656161894,0.00035598846656161894
0.0034016991545144535,0.0034016991545144535
0.021240861755381056,0.021240861755381056
0.04995756252750778,0.04995756252750778
0.0778040602459337,0.0778040602459337
0.0960783243736507,0.0960783243736507
0.11130687781341488,0.11130687781341488
0.1308864465216831,0.1308864465216831
0.15307662439105374,0.15307662439105374
0.1656945686697155,0.1656945686697155
0.16438926408916427,0.16438926408916427
0.15394682744475455,0.15394682744475455
0.13697786789758876,0.13697786789758876
0.10782606559861163,0.10782606559861163
0.06866692818207519,0.06866692818207519
0.03820982130254685,0.03820982130254685
0.030813095346089964,0.030813095346089964
0.03820982130254685,0.03820982130254685
0.03995022740994847,0.03995022740994847
0.026462080077585916,0.026462080077585916
0.007752714423018503,0.007752714423018503
-0.007910940543596074,-0.007910940543596074
-0.023139493983360248,-0.023139493983360248
-0.042719062691628465,-0.042719062691628465
-0.06534434208784952,-0.06534434208784952
-0.07752718483966087,-0.07752718483966087
-0.08013779400076329,-0.08013779400076329
-0.07752718483966087,-0.07752718483966087
-0.07839738789336168,-0.07839738789336168
-0.07752718483966087,-0.07752718483966087
-0.07535167720540883,-0.07535167720540883
-0.07752718483966087,-0.07752718483966087
-0.08274840316186573,-0.08274840316186573
-0.07752718483966087,-0.07752718483966087
-0.058382717658243044,-0.058382717658243044
-0.042719062691628465,-0.042719062691628465
-0.03967335200367563,-0.03967335200367563
-0.030971321466667534,-0.030971321466667534
0.0016612930471128337,0.0016612930471128337
0.061270202225618305,0.061270202225618305
0.16221375645491226,0.16221375645491226
0.33886497635617663,0.33886497635617663
0.6077577199497269,0.6077577199497269
0.9406103879902865,0.9406103879902865
1.2969585384807683,1.2969585384807683
1.6228495820917215,1.6228495820917215
1.8182101676475533,1.8182101676475533
1.7620820706838511,1.7620820706838511
1.4466334637173075,1.4466334637173075
1.0215392719844618,1.0215392719844618
0.6651911214939803,0.6651911214939803
0.4315416015753129,0.4315416015753129
0.2714242396943639,0.2714242396943639
0.14219908621979363,0.14219908621979363
0.04908735947380697,0.04908735947380697
-0.007910940543596074,-0.007910940543596074
-0.045764773379581306,-0.045764773379581306
-0.07752718483966087,-0.07752718483966087
-0.10232797187013394,-0.10232797187013394
-0.12364794668580378,-0.12364794668580378
-0.14366261692092241,-0.14366261692092241
-0.15845606883383617,-0.15845606883383617
-0.16498259173659224,-0.16498259173659224
-0.1697687085319467,-0.1697687085319467
-0.177600536015254,-0.177600536015254
-0.18151644975690764,-0.18151644975690764
-0.177600536015254,-0.177600536015254
-0.1697687085319467,-0.1697687085319467
-0.17281441921989954,-0.17281441921989954
-0.18151644975690764,-0.18151644975690764
-0.1876078711328133,-0.1876078711328133
-0.18151644975690764,-0.18151644975690764
-0.17194421616619873,-0.17194421616619873
-0.1697687085319467,-0.1697687085319467
-0.1767303329615532,-0.1767303329615532
-0.18151644975690764,-0.18151644975690764
-0.17716543448840358,-0.17716543448840358
-0.1697687085319467,-0.1697687085319467
-0.16802830242454508,-0.16802830242454508
-0.1697687085319467,-0.1697687085319467
-0.16715809937084428,-0.16715809937084428
-0.15845606883383617,-0.15845606883383617
-0.14931893676997768,-0.14931893676997768
-0.14670832760887526,-0.14670832760887526
-0.1510593428773793,-0.1510593428773793
-0.15845606883383617,-0.15845606883383617
-0.1619368810486394,-0.1619368810486394
-0.15845606883383617,-0.15845606883383617
-0.15018913982367849,-0.15018913982367849
-0.14670832760887526,-0.14670832760887526
-0.1510593428773793,-0.1510593428773793
-0.15845606883383617,-0.15845606883383617
-0.16411238868289144,-0.16411238868289144
-0.1697687085319467,-0.1697687085319467
-0.17107401311249792,-0.17107401311249792
-0.15845606883383617,-0.15845606883383617
-0.13060957111541027,-0.13060957111541027
-0.10058756576273233,-0.10058756576273233
-0.07926759094706248,-0.07926759094706248
-0.06577944361469992,-0.06577944361469992
-0.05533700697029021,-0.05533700697029021
-0.0544668039165894,-0.0544668039165894
-0.06751984972210155,-0.06751984972210155
-0.0888398245377714,-0.0888398245377714
-0.10537368255808678,-0.10537368255808678
-0.11233530698769326,-0.11233530698769326
-0.11320551004139406,-0.11320551004139406
-0.11233530698769326,-0.11233530698769326
-0.10450347950438596,-0.10450347950438596
-0.0888398245377714,-0.0888398245377714
-0.06969535735635357,-0.06969535735635357
-0.0544668039165894,-0.0544668039165894
-0.043154164218478876,-0.043154164218478876
-0.030971321466667534,-0.030971321466667534
-0.015307666500052958,-0.015307666500052958
0.0034016991545144535,0.0034016991545144535
0.025591877023885105,0.025591877023885105
0.04995756252750778,0.04995756252750778
0.06736162360152398,0.06736162360152398
0.061270202225618305,0.061270202225618305
0.03211839992664118,0.03211839992664118
0.0034016991545144535,0.0034016991545144535
0.0016612930471128337,0.0016612930471128337
0.026462080077585916,0.026462080077585916
0.053873476269161426,0.053873476269161426
0.061270202225618305,0.061270202225618305
0.04821715642010616,0.04821715642010616
0.026462080077585916,0.026462080077585916
0.009493120530420122,0.009493120530420122
0.0034016991545144535,0.0034016991545144535
0.012973932745223361,0.012973932745223361
0.03820982130254685,0.03820982130254685
0.07345304497742965,0.07345304497742965
0.10782606559861163,0.10782606559861163
0.13436725873648633,0.13436725873648633
0.15394682744475455,0.15394682744475455
0.17178599004562115,0.17178599004562115
0.18875494959278694,0.18875494959278694
0.2026781984519999,0.2026781984519999
0.2118153305158584,0.2118153305158584
0.21573124425751206,0.21573124425751206
0.2118153305158584,0.2118153305158584
0.19832718318349585,0.19832718318349585
0.17700720836782602,0.17700720836782602
0.15612233507900658,0.15612233507900658
0.14219908621979363,0.14219908621979363
0.13610766484388795,0.13610766484388795
0.1308864465216831,0.1308864465216831
0.12044400987727338,0.12044400987727338
0.10782606559861163,0.10782606559861163
0.09825383200790272,0.09825383200790272
0.0960783243736507,0.0960783243736507
0.10042933964215475,0.10042933964215475
0.10782606559861163,0.10782606559861163
0.11174197934026528,0.11174197934026528
0.10782606559861163,0.10782606559861163
0.0965134259005011,0.0965134259005011
0.08433058314868977,0.08433058314868977
0.07127753734317763,0.07127753734317763
0.04995756252750778,0.04995756252750778
0.02254616633593227,0.02254616633593227
0.0034016991545144535,0.0034016991545144535
0.00035598846656161894,0.00035598846656161894
0.0034016991545144535,0.0034016991545144535
0.0034016991545144535,0.0034016991545144535
0.0034016991545144535,0.0034016991545144535
0.009493120530420122,0.009493120530420122
0.015149440379475387,0.015149440379475387
0.014279237325774576,0.014279237325774576
0.015149440379475387,0.015149440379475387
0.031683298399790776,0.031683298399790776
0.061270202225618305,0.061270202225618305
0.08476568467554017,0.08476568467554017
0.08433058314868977,0.08433058314868977
0.06344570985987033,0.06344570985987033
0.03820982130254685,0.03820982130254685
0.0251567754970347,0.0251567754970347
0.026462080077585916,0.026462080077585916
0.03472900908774361,0.03472900908774361
0.03820982130254685,0.03820982130254685
0.033858806034042795,0.033858806034042795
0.026462080077585916,0.026462080077585916
0.02341636938963308,0.02341636938963308
0.026462080077585916,0.026462080077585916
0.03342370450719239,0.03342370450719239
0.03820982130254685,0.03820982130254685
0.0425608365710509,0.0425608365710509
0.04995756252750778,0.04995756252750778
0.058659593064515875,0.058659593064515875
0.061270202225618305,0.061270202225618305
0.05604898390341345,0.05604898390341345
0.04995756252750778,0.04995756252750778
0.048652257946956566,0.048652257946956566
0.04995756252750778,0.04995756252750778
0.049522461000657374,0.049522461000657374
0.04995756252750778,0.04995756252750778
0.052133070161759804,0.052133070161759804
0.04995756252750778,0.04995756252750778
0.039080024356247654,0.039080024356247654
0.026462080077585916,0.026462080077585916
0.022111064809081864,0.022111064809081864
0.026462080077585916,0.026462080077585916
0.03298860298034199,0.03298860298034199
0.03820982130254685,0.03820982130254685
0.043431039624751706,0.043431039624751706
0.04995756252750778,0.04995756252750778
0.05561388237656304,0.05561388237656304
0.061270202225618305,0.061270202225618305
0.0704073342894768,0.0704073342894768
0.08433058314868977,0.08433058314868977
0.10216974574955637,0.10216974574955637
0.11913870529672216,0.11913870529672216
0.13610766484388795,0.13610766484388795
0.15394682744475455,0.15394682744475455
0.16961048241136914,0.16961048241136914
0.17700720836782602,0.17700720836782602
0.1765721068409756,0.1765721068409756
0.17700720836782602,0.17700720836782602
0.18048802058262925,0.18048802058262925
0.17700720836782602,0.17700720836782602
0.1582978427132586,0.1582978427132586
0.1308864465216831,0.1308864465216831
0.10565055796435961,0.10565055796435961
0.08433058314868977,0.08433058314868977
0.06257550680616952,0.06257550680616952
0.03820982130254685,0.03820982130254685
0.017760049540577815,0.017760049540577815
0.0034016991545144535,0.0034016991545144535
-0.0039950268019424305,-0.0039950268019424305
-0.007910940543596074,-0.007910940543596074
-0.01182685428524972,-0.01182685428524972
-0.019658681768557007,-0.019658681768557007
-0.02966601688611632,-0.02966601688611632
-0.030971321466667534,-0.030971321466667534
-0.02270439245650984,-0.02270439245650984
-0.007910940543596074,-0.007910940543596074
-0.0005142145871391909,-0.0005142145871391909
0.0034016991545144535,0.0034016991545144535
0.009493120530420122,0.009493120530420122
0.026462080077585916,0.026462080077585916
0.04908735947380697,0.04908735947380697
0.061270202225618305,0.061270202225618305
0.05300327321546061,0.05300327321546061
0.026462080077585916,0.026462080077585916
-0.014437463446352149,-0.014437463446352149
-0.06577944361469992,-0.06577944361469992
-0.1075491901923388,-0.1075491901923388
-0.11233530698769326,-0.11233530698769326
-0.07622188025910964,-0.07622188025910964
-0.007910940543596074,-0.007910940543596074
0.1300162434679823,0.1300162434679823
0.3967334794272805,0.3967334794272805
0.7774473154213848,0.7774473154213848
1.172084400274702,1.172084400274702
1.5140742003791203,1.5140742003791203
1.796455091305033,1.796455091305033
1.9483055241758243,1.9483055241758243
1.8195154722281044,1.8195154722281044
1.3896351636999045,1.3896351636999045
0.8709941436942219,0.8709941436942219
0.5037684550324801,0.5037684550324801
0.3158045954331052,0.3158045954331052
0.19093045722703897,0.19093045722703897
0.07301794345057924,0.07301794345057924
-0.0031248237482416202,-0.0031248237482416202
-0.030971321466667534,-0.030971321466667534
-0.05620721002399102,-0.05620721002399102
-0.10058756576273233,-0.10058756576273233
-0.1423573123403712,-0.1423573123403712
-0.1697687085319467,-0.1697687085319467
-0.19326419098186856,-0.19326419098186856
-0.21632457190494003,-0.21632457190494003
-0.22546170396879853,-0.22546170396879853
-0.21632457190494003,-0.21632457190494003
-0.20109601846517586,-0.20109601846517586
-0.19326419098186856,-0.19326419098186856
-0.19848540930407343,-0.19848540930407343
-0.2045768306799791,-0.2045768306799791
-0.20109601846517586,-0.20109601846517586
-0.18151644975690764,-0.18151644975690764
-0.15671566272643456,-0.15671566272643456
-0.13539568791076473,-0.13539568791076473
-0.12364794668580378,-0.12364794668580378
-0.12364794668580378,-0.12364794668580378
-0.1332201802765127,-0.1332201802765127
-0.14670832760887526,-0.14670832760887526
-0.15628056119958414,-0.15628056119958414
-0.15845606883383617,-0.15845606883383617
-0.15671566272643456,-0.15671566272643456
-0.15845606883383617,-0.15845606883383617
-0.1606315764680882,-0.1606315764680882
-0.15845606883383617,-0.15845606883383617
-0.15062424135052888,-0.15062424135052888
-0.14670832760887526,-0.14670832760887526
-0.1514944444042297,-0.1514944444042297
-0.15845606883383617,-0.15845606883383617
-0.1597613734143874,-0.1597613734143874
-0.15845606883383617,-0.15845606883383617
-0.15584545967273375,-0.15584545967273375
-0.14670832760887526,-0.14670832760887526
-0.1262585558469062,-0.1262585558469062
-0.10058756576273233,-0.10058756576273233
-0.07578677873225924,-0.07578677873225924
-0.0544668039165894,-0.0544668039165894
-0.03967335200367563,-0.03967335200367563
-0.042719062691628465,-0.042719062691628465
-0.06403903750729831,-0.06403903750729831
-0.0888398245377714,-0.0888398245377714
-0.10363327645068515,-0.10363327645068515
-0.11233530698769326,-0.11233530698769326
-0.12016713447100054,-0.12016713447100054
-0.12364794668580378,-0.12364794668580378
-0.11494591614879568,-0.11494591614879568
-0.10058756576273233,-0.10058756576273233
-0.09188553522572422,-0.09188553522572422
-0.0888398245377714,-0.0888398245377714
-0.08492391079611775,-0.08492391079611775
-0.07752718483966087,-0.07752718483966087
-0.06795495124895196,-0.06795495124895196
-0.0544668039165894,-0.0544668039165894
-0.032711727574069156,-0.032711727574069156
-0.007910940543596074,-0.007910940543596074
0.009928222057270527,0.009928222057270527
0.015149440379475387,0.015149440379475387
0.007752714423018503,0.007752714423018503
-0.007910940543596074,-0.007910940543596074
-0.024009697037061056,-0.024009697037061056
-0.030971321466667534,-0.030971321466667534
-0.027490509251864297,-0.027490509251864297
-0.019658681768557007,-0.019658681768557007
-0.010086448177848099,-0.010086448177848099
0.0034016991545144535,0.0034016991545144535
0.022111064809081864,0.022111064809081864
0.03820982130254685,0.03820982130254685
0.04908735947380697,0.04908735947380697
0.061270202225618305,0.061270202225618305
0.08607098925609138,0.08607098925609138
0.11913870529672216,0.11913870529672216
0.14611499996144728,0.14611499996144728
0.15394682744475455,0.15394682744475455
0.14524479690774647,0.14524479690774647
0.1308864465216831,0.1308864465216831
0.11783340071617095,0.11783340071617095
0.10782606559861163,0.10782606559861163
0.10260484727640677,0.10260484727640677
0.10782606559861163,0.10782606559861163
0.12697053278002945,0.12697053278002945
0.15394682744475455,0.15394682744475455
0.17700720836782602,0.17700720836782602
0.18875494959278694,0.18875494959278694
0.19049535570018858,0.19049535570018858
0.18875494959278694,0.18875494959278694
0.18483903585113332,0.18483903585113332
0.17700720836782602,0.17700720836782602
0.16264885798176265,0.16264885798176265
0.14219908621979363,0.14219908621979363
0.11957380682357256,0.11957380682357256
0.0960783243736507,0.0960783243736507
0.07301794345057924,0.07301794345057924
0.04995756252750778,0.04995756252750778
0.02950779076553875,0.02950779076553875
0.015149440379475387,0.015149440379475387
0.0073176128961680974,0.0073176128961680974
0.0034016991545144535,0.0034016991545144535
0.0025314961008136437,0.0025314961008136437
0.0034016991545144535,0.0034016991545144535
0.005142105261916073,0.005142105261916073
0.0034016991545144535,0.0034016991545144535
0.0012261915202624288,0.0012261915202624288
0.0034016991545144535,0.0034016991545144535
0.011233526637821742,0.011233526637821742
0.015149440379475387,0.015149440379475387
0.0073176128961680974,0.0073176128961680974
-0.007910940543596074,-0.007910940543596074
-0.022269290929659437,-0.022269290929659437
-0.030971321466667534,-0.030971321466667534
-0.03445213368147077,-0.03445213368147077
-0.030971321466667534,-0.030971321466667534
-0.020528884822257818,-0.020528884822257818
-0.007910940543596074,-0.007910940543596074
-7.911306028878597e-05,-7.911306028878597e-05
0.0034016991545144535,0.0034016991545144535
0.008187815949868907,0.008187815949868907
0.015149440379475387,0.015149440379475387
0.02254616633593227,0.02254616633593227
0.026462080077585916,0.026462080077585916
0.027767384658137127,0.027767384658137127
0.026462080077585916,0.026462080077585916
0.02602697855073551,0.02602697855073551
0.026462080077585916,0.026462080077585916
0.027332283131286723,0.027332283131286723
0.026462080077585916,0.026462080077585916
0.02863758771183794,0.02863758771183794
0.03820982130254685,0.03820982130254685
0.05517878084971264,0.05517878084971264
0.07301794345057924,0.07301794345057924
0.08389548162183937,0.08389548162183937
0.08433058314868977,0.08433058314868977
0.07345304497742965,0.07345304497742965
0.04995756252750778,0.04995756252750778
0.01906535412112903,0.01906535412112903
-0.007910940543596074,-0.007910940543596074
-0.024009697037061056,-0.024009697037061056
-0.030971321466667534,-0.030971321466667534
-0.033581930627769964,-0.033581930627769964
-0.030971321466667534,-0.030971321466667534
-0.020963986349108222,-0.020963986349108222
-0.007910940543596074,-0.007910940543596074
0.00035598846656161894,0.00035598846656161894
0.0034016991545144535,0.0034016991545144535
0.0073176128961680974,0.0073176128961680974
0.015149440379475387,0.015149440379475387
0.02341636938963308,0.02341636938963308
0.026462080077585916,0.026462080077585916
0.025591877023885105,0.025591877023885105
0.026462080077585916,0.026462080077585916
0.03298860298034199,0.03298860298034199
0.03820982130254685,0.03820982130254685
0.036469415195145224,0.036469415195145224
0.026462080077585916,0.026462080077585916
0.014714338852624981,0.014714338852624981
0.0034016991545144535,0.0034016991545144535
-0.00486522985564324,-0.00486522985564324
-0.007910940543596074,-0.007910940543596074
-0.0013844176408400006,-0.0013844176408400006
0.015149440379475387,0.015149440379475387
0.03820982130254685,0.03820982130254685
0.061270202225618305,0.061270202225618305
0.08128487246073693,0.08128487246073693
0.0960783243736507,0.0960783243736507
0.10521545643750921,0.10521545643750921
0.10782606559861163,0.10782606559861163
0.10695586254491082,0.10695586254491082
0.10782606559861163,0.10782606559861163
0.11043667475971407,0.11043667475971407
0.10782606559861163,0.10782606559861163
0.09390281673939868,0.09390281673939868
0.07301794345057924,0.07301794345057924
0.05343837474231102,0.05343837474231102
0.03820982130254685,0.03820982130254685
0.026462080077585916,0.026462080077585916
0.015149440379475387,0.015149440379475387
0.0034016991545144535,0.0034016991545144535
-0.007910940543596074,-0.007910940543596074
-0.016612971080604173,-0.016612971080604173
-0.019658681768557007,-0.019658681768557007
-0.021834189402809033,-0.021834189402809033
-0.030971321466667534,-0.030971321466667534
-0.05359660086288859,-0.05359660086288859
-0.07752718483966087,-0.07752718483966087
-0.09493124591367706,-0.09493124591367706
-0.10058756576273233,-0.10058756576273233
-0.10232797187013394,-0.10232797187013394
-0.10058756576273233,-0.10058756576273233
-0.09580144896737787,-0.09580144896737787
-0.0888398245377714,-0.0888398245377714
-0.08274840316186573,-0.08274840316186573
-0.07752718483966087,-0.07752718483966087
-0.07796228636651127,-0.07796228636651127
-0.0888398245377714,-0.0888398245377714
-0.09710675354792908,-0.09710675354792908
-0.07752718483966087,-0.07752718483966087
-0.022269290929659437,-0.022269290929659437
0.061270202225618305,0.061270202225618305
0.19832718318349585,0.19832718318349585
0.4315416015753129,0.4315416015753129
0.758302848239967,0.758302848239967
1.114215897203598,1.114215897203598
1.452724885093213,1.452724885093213
1.75033432945889,1.75033432945889
1.9226345340916504,1.9226345340916504
1.8312632134530655,1.8312632134530655
1.4592514079959693,1.4592514079959693
0.9867311498364295,0.9867311498364295
0.6177650550672862,0.6177650550672862
0.38542083972916996,0.38542083972916996
0.20789941677420476,0.20789941677420476
0.04995756252750778,0.04995756252750778
-0.057512514604542236,-0.057512514604542236
-0.11233530698769326,-0.11233530698769326
-0.15454015509218252,-0.15454015509218252
-0.2045768306799791,-0.2045768306799791
-0.24460617115021635,-0.24460617115021635
-0.262445333751083,-0.262445333751083
-0.2659261459658862,-0.2659261459658862
-0.262445333751083,-0.262445333751083
-0.25200289710667323,-0.25200289710667323
-0.2393849528280115,-0.2393849528280115
-0.2319882268715546,-0.2319882268715546
-0.22763721160305056,-0.22763721160305056
-0.2237212978613969,-0.2237212978613969
-0.21632457190494003,-0.21632457190494003
-0.21066825205588477,-0.21066825205588477
-0.2045768306799791,-0.2045768306799791
-0.19979071388462463,-0.19979071388462463
-0.19326419098186856,-0.19326419098186856
-0.1863025665522621,-0.1863025665522621
-0.18151644975690764,-0.18151644975690764
-0.17716543448840358,-0.17716543448840358
-0.1697687085319467,-0.1697687085319467
-0.1606315764680882,-0.1606315764680882
-0.15845606883383617,-0.15845606883383617
-0.16672299784399386,-0.16672299784399386
-0.18151644975690764,-0.18151644975690764
-0.19152378487446695,-0.19152378487446695
-0.19326419098186856,-0.19326419098186856
-0.18804297265966372,-0.18804297265966372
-0.18151644975690764,-0.18151644975690764
-0.17498992685415157,-0.17498992685415157
-0.1697687085319467,-0.1697687085319467
-0.1684634039513955,-0.1684634039513955
-0.1697687085319467,-0.1697687085319467
-0.16802830242454508,-0.16802830242454508
-0.15845606883383617,-0.15845606883383617
-0.14670832760887526,-0.14670832760887526
-0.14670832760887526,-0.14670832760887526
-0.1619368810486394,-0.1619368810486394
-0.18151644975690764,-0.18151644975690764
-0.19152378487446695,-0.19152378487446695
-0.19326419098186856,-0.19326419098186856
-0.19326419098186856,-0.19326419098186856
-0.19326419098186856,-0.19326419098186856
-0.1854323634985613,-0.1854323634985613
-0.1697687085319467,-0.1697687085319467
-0.1510593428773793,-0.1510593428773793
-0.13539568791076473,-0.13539568791076473
-0.12277774363210298,-0.12277774363210298
-0.11233530698769326,-0.11233530698769326
-0.10058756576273233,-0.10058756576273233
-0.0888398245377714,-0.0888398245377714
-0.07970269247391289,-0.07970269247391289
-0.07752718483966087,-0.07752718483966087
-0.08231330163501531,-0.08231330163501531
-0.0888398245377714,-0.0888398245377714
-0.09145043369887382,-0.09145043369887382
-0.0888398245377714,-0.0888398245377714
-0.08405370774241694,-0.08405370774241694
-0.07752718483966087,-0.07752718483966087
-0.06751984972210155,-0.06751984972210155
-0.0544668039165894,-0.0544668039165894
-0.040543555057376446,-0.040543555057376446
-0.030971321466667534,-0.030971321466667534
-0.028360712305565104,-0.028360712305565104
-0.030971321466667534,-0.030971321466667534
-0.03445213368147077,-0.03445213368147077
-0.030971321466667534,-0.030971321466667534
-0.017483174134304984,-0.017483174134304984
0.0034016991545144535,0.0034016991545144535
0.02428657244333389,0.02428657244333389
0.03820982130254685,0.03820982130254685
0.04517144573215333,0.04517144573215333
0.04995756252750778,0.04995756252750778
0.05517878084971264,0.05517878084971264
0.061270202225618305,0.061270202225618305
0.0699722327626264,0.0699722327626264
0.08433058314868977,0.08433058314868977
0.10608565949121002,0.10608565949121002
0.1308864465216831,0.1308864465216831
0.15481703049845535,0.15481703049845535
0.17700720836782602,0.17700720836782602
0.19658677707609423,0.19658677707609423
0.2118153305158584,0.2118153305158584
0.22312797021396893,0.22312797021396893
0.23487571143892988,0.23487571143892988
0.24792875724444202,0.24792875724444202
0.2579360923620013,0.2579360923620013
0.264027513737907,0.264027513737907
0.26968383358696224,0.26968383358696224
0.2744699503823167,0.2744699503823167
0.26968383358696224,0.26968383358696224
0.250104264878694,0.250104264878694
0.22312797021396893,0.22312797021396893
0.19919738623719666,0.19919738623719666
0.17700720836782602,0.17700720836782602
0.15090111675680173,0.15090111675680173
0.11913870529672216,0.11913870529672216
0.08824649689034342,0.08824649689034342
0.061270202225618305,0.061270202225618305
0.040820430463649277,0.040820430463649277
0.026462080077585916,0.026462080077585916
0.0164547449600266,0.0164547449600266
0.0034016991545144535,0.0034016991545144535
-0.014002361919501743,-0.014002361919501743
-0.030971321466667534,-0.030971321466667534
-0.04097865658422685,-0.04097865658422685
-0.042719062691628465,-0.042719062691628465
-0.038803148949974824,-0.038803148949974824
-0.030971321466667534,-0.030971321466667534
-0.02618520467131308,-0.02618520467131308
-0.030971321466667534,-0.030971321466667534
-0.04489457032588049,-0.04489457032588049
-0.0544668039165894,-0.0544668039165894
-0.054031702389739,-0.054031702389739
-0.0544668039165894,-0.0544668039165894
-0.06795495124895196,-0.06795495124895196
-0.0888398245377714,-0.0888398245377714
-0.10580878408493719,-0.10580878408493719
-0.11233530698769326,-0.11233530698769326
-0.11451081462194528,-0.11451081462194528
-0.11233530698769326,-0.11233530698769326
-0.1079842917191892,-0.1079842917191892
-0.10058756576273233,-0.10058756576273233
-0.09145043369887382,-0.09145043369887382
-0.07752718483966087,-0.07752718483966087
-0.0627337329267471,-0.0627337329267471
-0.0544668039165894,-0.0544668039165894
-0.05490190544343981,-0.05490190544343981
-0.0544668039165894,-0.0544668039165894
-0.042719062691628465,-0.042719062691628465
-0.019658681768557007,-0.019658681768557007
0.01558454190632579,0.01558454190632579
0.07301794345057924,0.07301794345057924
0.17048068546506995,0.17048068546506995
0.3158045954331052,0.3158045954331052
0.5085545718278346,0.5085545718278346
0.7439444978539036,0.7439444978539036
1.0171882567159578,1.0171882567159578
1.2991340461150203,1.2991340461150203
1.5279974492383332,1.5279974492383332
1.6228495820917215,1.6228495820917215
1.5388749874095933,1.5388749874095933
1.2991340461150203,1.2991340461150203
0.9893417589975319,0.9893417589975319
0.6978237360077607,0.6978237360077607
0.4711358405186997,0.4711358405186997
0.30449195573499466,0.30449195573499466
0.17309129462617237,0.17309129462617237
0.061270202225618305,0.061270202225618305
-0.03053621993981713,-0.03053621993981713
-0.10058756576273233,-0.10058756576273233
-0.14888383524312726,-0.14888383524312726
-0.18151644975690764,-0.18151644975690764
-0.20240132304572708,-0.20240132304572708
-0.21632457190494003,-0.21632457190494003
-0.22459150091509772,-0.22459150091509772
-0.22763721160305056,-0.22763721160305056
-0.2311180238178538,-0.2311180238178538
-0.2393849528280115,-0.2393849528280115
-0.2502624909992716,-0.2502624909992716
-0.25113269405297245,-0.25113269405297245
-0.24112535893541312,-0.24112535893541312
-0.22763721160305056,-0.22763721160305056
-0.22154579022714488,-0.22154579022714488
-0.21632457190494003,-0.21632457190494003
-0.20849274442163274,-0.20849274442163274
-0.2045768306799791,-0.2045768306799791
-0.20936294747533354,-0.20936294747533354
-0.21632457190494003,-0.21632457190494003
-0.21719477495864084,-0.21719477495864084
-0.21632457190494003,-0.21632457190494003
-0.21762987648549126,-0.21762987648549126
-0.21632457190494003,-0.21632457190494003
-0.20240132304572708,-0.20240132304572708
-0.18151644975690764,-0.18151644975690764
-0.161501779521789,-0.161501779521789
-0.14670832760887526,-0.14670832760887526
-0.13670099249131593,-0.13670099249131593
-0.13539568791076473,-0.13539568791076473
-0.14453281997462322,-0.14453281997462322
-0.15845606883383617,-0.15845606883383617
-0.16672299784399386,-0.16672299784399386
-0.1697687085319467,-0.1697687085319467
-0.17368462227360035,-0.17368462227360035
-0.18151644975690764,-0.18151644975690764
-0.18891317571336452,-0.18891317571336452
-0.19326419098186856,-0.19326419098186856
-0.19369929250871898,-0.19369929250871898
-0.19326419098186856,-0.19326419098186856
-0.1863025665522621,-0.1863025665522621
-0.1697687085319467,-0.1697687085319467
-0.14540302302832403,-0.14540302302832403
-0.12364794668580378,-0.12364794668580378
-0.11015979935344124,-0.11015979935344124
-0.10058756576273233,-0.10058756576273233
-0.08535901232296815,-0.08535901232296815
-0.06577944361469992,-0.06577944361469992
-0.05185619475548697,-0.05185619475548697
-0.0544668039165894,-0.0544668039165894
-0.07361127109800722,-0.07361127109800722
-0.10058756576273233,-0.10058756576273233
-0.12321284515895338,-0.12321284515895338
-0.13539568791076473,-0.13539568791076473
-0.13713609401816634,-0.13713609401816634
-0.13539568791076473,-0.13539568791076473
-0.13104467264226066,-0.13104467264226066
-0.12364794668580378,-0.12364794668580378
-0.11233530698769326,-0.11233530698769326
-0.10058756576273233,-0.10058756576273233
-0.0892749260646218,-0.0892749260646218
-0.07752718483966087,-0.07752718483966087
-0.06447413903414871,-0.06447413903414871
-0.0544668039165894,-0.0544668039165894
-0.04619987490643171,-0.04619987490643171
-0.030971321466667534,-0.030971321466667534
-0.0039950268019424305,-0.0039950268019424305
0.026462080077585916,0.026462080077585916
0.046911851839554944,0.046911851839554944
0.04995756252750778,0.04995756252750778
0.03733961824884604,0.03733961824884604
0.015149440379475387,0.015149440379475387
-0.004430128328792835,-0.004430128328792835
-0.007910940543596074,-0.007910940543596074
0.006447409842467288,0.006447409842467288
0.026462080077585916,0.026462080077585916
0.04386614115160211,0.04386614115160211
0.061270202225618305,0.061270202225618305
0.08433058314868977,0.08433058314868977
0.10782606559861163,0.10782606559861163
0.12566522819947823,0.12566522819947823
0.14219908621979363,0.14219908621979363
0.16177865492806184,0.16177865492806184
0.17700720836782602,0.17700720836782602
0.18135822363633006,0.18135822363633006
0.17700720836782602,0.17700720836782602
0.17483170073357399,0.17483170073357399
0.17700720836782602,0.17700720836782602
0.17918271600207805,0.17918271600207805
0.17700720836782602,0.17700720836782602
0.16917538088451872,0.16917538088451872
0.15394682744475455,0.15394682744475455
0.1321917511022343,0.1321917511022343
0.10782606559861163,0.10782606559861163
0.08433058314868977,0.08433058314868977
0.061270202225618305,0.061270202225618305
0.039515125883098065,0.039515125883098065
0.026462080077585916,0.026462080077585916
0.030813095346089964,0.030813095346089964
0.04995756252750778,0.04995756252750778
0.06866692818207519,0.06866692818207519
0.07301794345057924,0.07301794345057924
0.06257550680616952,0.06257550680616952
0.04995756252750778,0.04995756252750778
0.04212573504420049,0.04212573504420049
0.03820982130254685,0.03820982130254685
0.03559921214144442,0.03559921214144442
0.03820982130254685,0.03820982130254685
0.04908735947380697,0.04908735947380697
0.061270202225618305,0.061270202225618305
0.06866692818207519,0.06866692818207519
0.07301794345057924,0.07301794345057924
0.0786742632996345,0.0786742632996345
0.08433058314868977,0.08433058314868977
0.08607098925609138,0.08607098925609138
0.08433058314868977,0.08433058314868977
0.08433058314868977,0.08433058314868977
0.08433058314868977,0.08433058314868977
0.08128487246073693,0.08128487246073693
0.07301794345057924,0.07301794345057924
0.061705303752468715,0.061705303752468715
0.04995756252750778,0.04995756252750778
0.04038532893679887,0.04038532893679887
0.03820982130254685,0.03820982130254685
0.043431039624751706,0.043431039624751706
0.04995756252750778,0.04995756252750778
0.05474367932286223,0.05474367932286223
0.061270202225618305,0.061270202225618305
0.07258284192372884,0.07258284192372884
0.08433058314868977,0.08433058314868977
0.08911669994404423,0.08911669994404423
0.08433058314868977,0.08433058314868977
0.07649875566538247,0.07649875566538247
0.07301794345057924,0.07301794345057924
0.07649875566538247,0.07649875566538247
0.08433058314868977,0.08433058314868977
0.09303261368569787,0.09303261368569787
0.0960783243736507,0.0960783243736507
0.08694119230979219,0.08694119230979219
0.061270202225618305,0.061270202225618305
0.027767384658137127,0.027767384658137127
0.0034016991545144535,0.0034016991545144535
-0.0018195191676904057,-0.0018195191676904057
0.0034016991545144535,0.0034016991545144535
0.006447409842467288,0.006447409842467288
0.0034016991545144535,0.0034016991545144535
0.0038368006813648582,0.0038368006813648582
0.015149440379475387,0.015149440379475387
0.036904516721995635,0.036904516721995635
0.061270202225618305,0.061270202225618305
0.07649875566538247,0.07649875566538247
0.07301794345057924,0.07301794345057924
0.052133070161759804,0.052133070161759804
0.026462080077585916,0.026462080077585916
0.012538831218372957,0.012538831218372957
0.015149440379475387,0.015149440379475387
0.027332283131286723,0.027332283131286723
0.03820982130254685,0.03820982130254685
0.041690633517350084,0.041690633517350084
0.03820982130254685,0.03820982130254685
0.03559921214144442,0.03559921214144442
0.03820982130254685,0.03820982130254685
0.04212573504420049,0.04212573504420049
0.03820982130254685,0.03820982130254685
0.026462080077585916,0.026462080077585916
0.015149440379475387,0.015149440379475387
0.009058019003569718,0.009058019003569718
0.0034016991545144535,0.0034016991545144535
-0.0018195191676904057,-0.0018195191676904057
0.0034016991545144535,0.0034016991545144535
0.02428657244333389,0.02428657244333389
0.04995756252750778,0.04995756252750778
0.06605631902097277,0.06605631902097277
0.07301794345057924,0.07301794345057924
0.07562855261168167,0.07562855261168167
0.07301794345057924,0.07301794345057924
0.06257550680616952,0.06257550680616952
0.04995756252750778,0.04995756252750778
0.0425608365710509,0.0425608365710509
0.03820982130254685,0.03820982130254685
0.02950779076553875,0.02950779076553875
0.015149440379475387,0.015149440379475387
0.0038368006813648582,0.0038368006813648582
0.0034016991545144535,0.0034016991545144535
0.01906535412112903,0.01906535412112903
0.04995756252750778,0.04995756252750778
0.08955180147089463,0.08955180147089463
0.1308864465216831,0.1308864465216831
0.17222109157247156,0.17222109157247156
0.2118153305158584,0.2118153305158584
0.2383565236537331,0.2383565236537331
0.23487571143892988,0.23487571143892988
0.19963248776404707,0.19963248776404707
0.15394682744475455,0.15394682744475455
0.122184415984675,0.122184415984675
0.10782606559861163,0.10782606559861163
0.09738362895420191,0.09738362895420191
0.08433058314868977,0.08433058314868977
0.07475834955798086,0.07475834955798086
0.07301794345057924,0.07301794345057924
0.07562855261168167,0.07562855261168167
0.07301794345057924,0.07301794345057924
0.05952979611821669,0.05952979611821669
0.03820982130254685,0.03820982130254685
0.017760049540577815,0.017760049540577815
0.0034016991545144535,0.0034016991545144535
-0.0039950268019424305,-0.0039950268019424305
-0.007910940543596074,-0.007910940543596074
-0.014002361919501743,-0.014002361919501743
-0.019658681768557007,-0.019658681768557007
-0.023574595510210652,-0.023574595510210652
-0.019658681768557007,-0.019658681768557007
-0.014002361919501743,-0.014002361919501743
-0.007910940543596074,-0.007910940543596074
-0.0005142145871391909,-0.0005142145871391909
0.015149440379475387,0.015149440379475387
0.03298860298034199,0.03298860298034199
0.03820982130254685,0.03820982130254685
0.02428657244333389,0.02428657244333389
0.0034016991545144535,0.0034016991545144535
-0.00486522985564324,-0.00486522985564324
0.0034016991545144535,0.0034016991545144535
0.02080576022853065,0.02080576022853065
0.04995756252750778,0.04995756252750778
0.1226195175115254,0.1226195175115254
0.28099647328507277,0.28099647328507277
0.5390116787073629,0.5390116787073629
0.8709941436942219,0.8709941436942219
1.2351741216680108,1.2351741216680108
1.565416180547468,1.565416180547468
1.7586012584690478,1.7586012584690478
1.7155262073108577,1.7155262073108577
1.4392367377608506,1.4392367377608506
1.0563473941324943,1.0563473941324943
0.7108767818132729,0.7108767818132729
0.45460198249838435,0.45460198249838435
0.26707322442585985,0.26707322442585985
0.1308864465216831,0.1308864465216831
0.04821715642010616,0.04821715642010616
0.0034016991545144535,0.0034016991545144535
-0.033581930627769964,-0.033581930627769964
-0.07752718483966087,-0.07752718483966087
-0.12060223599785094,-0.12060223599785094
-0.15845606883383617,-0.15845606883383617
-0.1884780741865141,-0.1884780741865141
-0.2045768306799791,-0.2045768306799791
-0.20370662762627828,-0.20370662762627828
-0.19326419098186856,-0.19326419098186856
-0.18238665281060845,-0.18238665281060845
-0.1697687085319467,-0.1697687085319467
-0.15671566272643456,-0.15671566272643456
-0.14670832760887526,-0.14670832760887526
-0.14714342913572565,-0.14714342913572565
-0.14670832760887526,-0.14670832760887526
-0.1419222108135208,-0.1419222108135208
-0.13539568791076473,-0.13539568791076473
-0.13713609401816634,-0.13713609401816634
-0.14670832760887526,-0.14670832760887526
-0.15541035814588333,-0.15541035814588333
-0.15845606883383617,-0.15845606883383617
-0.15802096730698578,-0.15802096730698578
-0.15845606883383617,-0.15845606883383617
-0.15932627188753698,-0.15932627188753698
-0.15845606883383617,-0.15845606883383617
-0.15366995203848172,-0.15366995203848172
-0.14670832760887526,-0.14670832760887526
-0.13626589096446554,-0.13626589096446554
-0.12364794668580378,-0.12364794668580378
-0.11320551004139406,-0.11320551004139406
-0.11233530698769326,-0.11233530698769326
-0.12190754057840217,-0.12190754057840217
-0.13539568791076473,-0.13539568791076473
-0.14061690623296957,-0.14061690623296957
-0.13539568791076473,-0.13539568791076473
-0.12321284515895338,-0.12321284515895338
-0.11233530698769326,-0.11233530698769326
-0.10450347950438596,-0.10450347950438596
-0.10058756576273233,-0.10058756576273233
-0.09928226118218111,-0.09928226118218111
-0.10058756576273233,-0.10058756576273233
-0.10145776881643313,-0.10145776881643313
-0.10058756576273233,-0.10058756576273233
-0.09623655049422827,-0.09623655049422827
-0.0888398245377714,-0.0888398245377714
-0.07578677873225924,-0.07578677873225924
-0.0544668039165894,-0.0544668039165894
-0.028360712305565104,-0.028360712305565104
-0.007910940543596074,-0.007910940543596074
0.0020963945739632386,0.0020963945739632386
0.0034016991545144535,0.0034016991545144535
-0.005300331382493645,-0.005300331382493645
-0.030971321466667534,-0.030971321466667534
-0.06926025582950317,-0.06926025582950317
-0.10058756576273233,-0.10058756576273233
-0.10928959629974042,-0.10928959629974042
-0.10058756576273233,-0.10058756576273233
-0.08840472301092099,-0.08840472301092099
-0.07752718483966087,-0.07752718483966087
-0.0627337329267471,-0.0627337329267471
-0.042719062691628465,-0.042719062691628465
-0.02270439245650984,-0.02270439245650984
-0.007910940543596074,-0.007910940543596074
0.0007910899934120239,0.0007910899934120239
0.0034016991545144535,0.0034016991545144535
0.0029665976276640484,0.0029665976276640484
0.0034016991545144535,0.0034016991545144535
0.011668628164672146,0.011668628164672146
0.026462080077585916,0.026462080077585916
0.04212573504420049,0.04212573504420049
0.04995756252750778,0.04995756252750778
0.049522461000657374,0.049522461000657374
0.04995756252750778,0.04995756252750778
0.0603999991719175,0.0603999991719175
0.08433058314868977,0.08433058314868977
0.1147876900282181,0.1147876900282181
0.14219908621979363,0.14219908621979363
0.16612967019656588,0.16612967019656588
0.18875494959278694,0.18875494959278694
0.20659411219365356,0.20659411219365356
0.2118153305158584,0.2118153305158584
0.20615901066680314,0.20615901066680314
0.2000675892908975,0.2000675892908975
0.20050269081774788,0.20050269081774788
0.2000675892908975,0.2000675892908975
0.1944112694418422,0.1944112694418422
0.18875494959278694,0.18875494959278694
0.18875494959278694,0.18875494959278694
0.18875494959278694,0.18875494959278694
0.18266352821688128,0.18266352821688128
0.17700720836782602,0.17700720836782602
0.1774423098946764,0.1774423098946764
0.17700720836782602,0.17700720836782602
0.1674349747771171,0.1674349747771171
0.15394682744475455,0.15394682744475455
0.14611499996144728,0.14611499996144728
0.14219908621979363,0.14219908621979363
0.13741296942443917,0.13741296942443917
0.1308864465216831,0.1308864465216831
0.12523012667262784,0.12523012667262784
0.11913870529672216,0.11913870529672216
0.11174197934026528,0.11174197934026528
0.10782606559861163,0.10782606559861163
0.10303994880325718,0.10303994880325718
0.08433058314868977,0.08433058314868977
0.046041648785854136,0.046041648785854136
0.0034016991545144535,0.0034016991545144535
-0.02009378329540741,-0.02009378329540741
-0.019658681768557007,-0.019658681768557007
-0.007040737489895265,-0.007040737489895265
0.0034016991545144535,0.0034016991545144535
0.006882511369317693,0.006882511369317693
0.0034016991545144535,0.0034016991545144535
-0.0035599252750920254,-0.0035599252750920254
-0.007910940543596074,-0.007910940543596074
-0.00573543290934405,-0.00573543290934405
0.0034016991545144535,0.0034016991545144535
0.015149440379475387,0.015149440379475387
0.026462080077585916,0.026462080077585916
0.03777471977569644,0.03777471977569644
0.04995756252750778,0.04995756252750778
0.06214040527931912,0.06214040527931912
0.07301794345057924,0.07301794345057924
0.08084977093388653,0.08084977093388653
0.08433058314868977,0.08433058314868977
0.08215507551443775,0.08215507551443775
0.07301794345057924,0.07301794345057924
0.06344570985987033,0.06344570985987033
0.061270202225618305,0.061270202225618305
0.06823182665522479,0.06823182665522479
0.07301794345057924,0.07301794345057924
0.06605631902097277,0.06605631902097277
0.04995756252750778,0.04995756252750778
0.03472900908774361,0.03472900908774361
0.026462080077585916,0.026462080077585916
0.024721673970184294,0.024721673970184294
0.026462080077585916,0.026462080077585916
0.03211839992664118,0.03211839992664118
0.03820982130254685,0.03820982130254685
0.044301242678452514,0.044301242678452514
0.04995756252750778,0.04995756252750778
0.05300327321546061,0.05300327321546061
0.04995756252750778,0.04995756252750778
0.039515125883098065,0.039515125883098065
0.026462080077585916,0.026462080077585916
0.014714338852624981,0.014714338852624981
0.0034016991545144535,0.0034016991545144535
-0.00573543290934405,-0.00573543290934405
-0.007910940543596074,-0.007910940543596074
-0.0026897222213912155,-0.0026897222213912155
0.0034016991545144535,0.0034016991545144535
0.005142105261916073,0.005142105261916073
0.0034016991545144535,0.0034016991545144535
0.0034016991545144535,0.0034016991545144535
0.0034016991545144535,0.0034016991545144535
0.0029665976276640484,0.0029665976276640484
0.0034016991545144535,0.0034016991545144535
0.008622917476719312,0.008622917476719312
0.015149440379475387,0.015149440379475387
0.02080576022853065,0.02080576022853065
0.026462080077585916,0.026462080077585916
0.03342370450719239,0.03342370450719239
0.03820982130254685,0.03820982130254685
0.041690633517350084,0.041690633517350084
0.04995756252750778,0.04995756252750778
0.06692652207467358,0.06692652207467358
0.08433058314868977,0.08433058314868977
0.09433791826624909,0.09433791826624909
0.0960783243736507,0.0960783243736507
0.09955913658845394,0.09955913658845394
0.10782606559861163,0.10782606559861163
0.11652809613561974,0.11652809613561974
0.11913870529672216,0.11913870529672216
0.11217708086711568,0.11217708086711568
0.0960783243736507,0.0960783243736507
0.0773689587190833,0.0773689587190833
0.061270202225618305,0.061270202225618305
0.04995756252750778,0.04995756252750778
0.03820982130254685,0.03820982130254685
0.02602697855073551,0.02602697855073551
0.015149440379475387,0.015149440379475387
0.005577206788766478,0.005577206788766478
-0.007910940543596074,-0.007910940543596074
-0.02705540772501389,-0.02705540772501389
-0.042719062691628465,-0.042719062691628465
-0.05098599170178616,-0.05098599170178616
-0.0544668039165894,-0.0544668039165894
-0.06142842834619588,-0.06142842834619588
-0.06577944361469992,-0.06577944361469992
-0.06708474819525115,-0.06708474819525115
-0.06577944361469992,-0.06577944361469992
-0.07056556041005438,-0.07056556041005438
-0.07752718483966087,-0.07752718483966087
-0.08361860621556653,-0.08361860621556653
-0.0888398245377714,-0.0888398245377714
-0.09580144896737787,-0.09580144896737787
-0.10058756576273233,-0.10058756576273233
-0.09797695660162989,-0.09797695660162989
-0.0888398245377714,-0.0888398245377714
-0.07361127109800722,-0.07361127109800722
-0.042719062691628465,-0.042719062691628465
0.02254616633593227,0.02254616633593227
0.14219908621979363,0.14219908621979363
0.33886497635617663,0.33886497635617663
0.6282074917116959,0.6282074917116959
1.002394804803044,1.002394804803044
1.403123311032267,1.403123311032267
1.7333653699117244,1.7333653699117244
1.8891317165241692,1.8891317165241692
1.8169048630670022,1.8169048630670022
1.5419206980975462,1.5419206980975462
1.1629472682108435,1.1629472682108435
0.7900652597000466,0.7900652597000466
0.4911505107538184,0.4911505107538184
0.26968383358696224,0.26968383358696224
0.10086444116900516,0.10086444116900516
-0.030971321466667534,-0.030971321466667534
-0.124953251266355,-0.124953251266355
-0.18151644975690764,-0.18151644975690764
-0.21066825205588477,-0.21066825205588477
-0.22763721160305056,-0.22763721160305056
-0.2402551558817123,-0.2402551558817123
-0.25113269405297245,-0.25113269405297245
-0.25548370932147646,-0.25548370932147646
-0.25113269405297245,-0.25113269405297245
-0.2393849528280115,-0.2393849528280115
-0.22763721160305056,-0.22763721160305056
-0.22154579022714488,-0.22154579022714488
-0.21632457190494003,-0.21632457190494003
-0.214149064270688,-0.214149064270688
-0.21632457190494003,-0.21632457190494003
-0.22459150091509772,-0.22459150091509772
-0.22763721160305056,-0.22763721160305056
-0.2237212978613969,-0.2237212978613969
-0.21632457190494003,-0.21632457190494003
-0.21110335358273516,-0.21110335358273516
-0.2045768306799791,-0.2045768306799791
-0.19282908945501817,-0.19282908945501817
-0.18151644975690764,-0.18151644975690764
-0.17498992685415157,-0.17498992685415157
-0.1697687085319467,-0.1697687085319467
-0.16237198257548982,-0.16237198257548982
-0.15845606883383617,-0.15845606883383617
-0.1619368810486394,-0.1619368810486394
-0.1697687085319467,-0.1697687085319467
-0.17542502838100196,-0.17542502838100196
-0.18151644975690764,-0.18151644975690764
-0.18891317571336452,-0.18891317571336452
-0.19326419098186856,-0.19326419098186856
-0.1884780741865141,-0.1884780741865141
-0.18151644975690764,-0.18151644975690764
-0.1793409421226556,-0.1793409421226556
-0.18151644975690764,-0.18151644975690764
-0.18195155128375803,-0.18195155128375803
-0.18151644975690764,-0.18151644975690764
-0.18195155128375803,-0.18195155128375803
-0.18151644975690764,-0.18151644975690764
-0.1767303329615532,-0.1767303329615532
-0.1697687085319467,-0.1697687085319467
-0.16411238868289144,-0.16411238868289144
-0.15845606883383617,-0.15845606883383617
-0.14801363218942645,-0.14801363218942645
-0.13539568791076473,-0.13539568791076473
-0.1262585558469062,-0.1262585558469062
-0.12364794668580378,-0.12364794668580378
-0.12060223599785094,-0.12060223599785094
-0.11233530698769326,-0.11233530698769326
-0.0988471596553307,-0.0988471596553307
-0.0888398245377714,-0.0888398245377714
-0.08361860621556653,-0.08361860621556653
-0.07752718483966087,-0.07752718483966087
-0.06577944361469992,-0.06577944361469992
-0.0544668039165894,-0.0544668039165894
-0.05011578864808535,-0.05011578864808535
-0.0544668039165894,-0.0544668039165894
-0.06055822529249507,-0.06055822529249507
-0.06577944361469992,-0.06577944361469992
-0.07143576346375519,-0.07143576346375519
-0.07752718483966087,-0.07752718483966087
-0.08013779400076329,-0.08013779400076329
-0.07752718483966087,-0.07752718483966087
-0.07143576346375519,-0.07143576346375519
-0.06577944361469992,-0.06577944361469992
-0.060993326819345474,-0.060993326819345474
-0.0544668039165894,-0.0544668039165894
-0.04402436727217968,-0.04402436727217968
-0.030971321466667534,-0.030971321466667534
-0.015742768026903362,-0.015742768026903362
0.0034016991545144535,0.0034016991545144535
0.02689718160443632,0.02689718160443632
0.04995756252750778,0.04995756252750778
0.06866692818207519,0.06866692818207519
0.08433058314868977,0.08433058314868977
0.10086444116900516,0.10086444116900516
0.11913870529672216,0.11913870529672216
0.13741296942443917,0.13741296942443917
0.15394682744475455,0.15394682744475455
0.17091578699192034,0.17091578699192034
0.18875494959278694,0.18875494959278694
0.2039835030325511,0.2039835030325511
0.2118153305158584,0.2118153305158584
0.20963982288160637,0.20963982288160637
0.2000675892908975,0.2000675892908975
0.18831984806593655,0.18831984806593655
0.17700720836782602,0.17700720836782602
0.16612967019656588,0.16612967019656588
0.15394682744475455,0.15394682744475455
0.14219908621979363,0.14219908621979363
0.1308864465216831,0.1308864465216831
0.12000890835042297,0.12000890835042297
0.10782606559861163,0.10782606559861163
0.09477301979309949,0.09477301979309949
0.08433058314868977,0.08433058314868977
0.0786742632996345,0.0786742632996345
0.07301794345057924,0.07301794345057924
0.06388081138672073,0.06388081138672073
0.04995756252750778,0.04995756252750778
0.03255350145349158,0.03255350145349158
0.015149440379475387,0.015149440379475387
0.0007910899934120239,0.0007910899934120239
-0.007910940543596074,-0.007910940543596074
-0.013132158865800934,-0.013132158865800934
-0.019658681768557007,-0.019658681768557007
-0.027490509251864297,-0.027490509251864297
-0.030971321466667534,-0.030971321466667534
-0.02966601688611632,-0.02966601688611632
-0.030971321466667534,-0.030971321466667534
-0.04141375811107725,-0.04141375811107725
-0.0544668039165894,-0.0544668039165894
-0.05881781918509345,-0.05881781918509345
-0.0544668039165894,-0.0544668039165894
-0.050550890174935754,-0.050550890174935754
-0.0544668039165894,-0.0544668039165894
-0.06534434208784952,-0.06534434208784952
-0.07752718483966087,-0.07752718483966087
-0.08318350468871613,-0.08318350468871613
-0.07752718483966087,-0.07752718483966087
-0.06142842834619588,-0.06142842834619588
-0.042719062691628465,-0.042719062691628465
-0.0279256107787147,-0.0279256107787147
-0.019658681768557007,-0.019658681768557007
-0.017048072607454577,-0.017048072607454577
-0.019658681768557007,-0.019658681768557007
-0.025750103144462678,-0.025750103144462678
-0.030971321466667534,-0.030971321466667534
-0.02966601688611632,-0.02966601688611632
-0.019658681768557007,-0.019658681768557007
-0.00573543290934405,-0.00573543290934405
0.0034016991545144535,0.0034016991545144535
0.005577206788766478,0.005577206788766478
0.0034016991545144535,0.0034016991545144535
0.0029665976276640484,0.0029665976276640484
0.0034016991545144535,0.0034016991545144535
0.0038368006813648582,0.0038368006813648582
0.0034016991545144535,0.0034016991545144535
0.0038368006813648582,0.0038368006813648582
0.0034016991545144535,0.0034016991545144535
0.0029665976276640484,0.0029665976276640484
0.0034016991545144535,0.0034016991545144535
0.008187815949868907,0.008187815949868907
0.015149440379475387,0.015149440379475387
0.01906535412112903,0.01906535412112903
0.015149440379475387,0.015149440379475387
0.0073176128961680974,0.0073176128961680974
0.0034016991545144535,0.0034016991545144535
0.004271902208215263,0.004271902208215263
0.0034016991545144535,0.0034016991545144535
0.0012261915202624288,0.0012261915202624288
0.0034016991545144535,0.0034016991545144535
0.011668628164672146,0.011668628164672146
0.015149440379475387,0.015149440379475387
0.009058019003569718,0.009058019003569718
0.0034016991545144535,0.0034016991545144535
0.010363323584120933,0.010363323584120933
0.026462080077585916,0.026462080077585916
0.03820982130254685,0.03820982130254685
0.03820982130254685,0.03820982130254685
0.03516411061459401,0.03516411061459401
0.03820982130254685,0.03820982130254685
0.048652257946956566,0.048652257946956566
0.061270202225618305,0.061270202225618305
0.07345304497742965,0.07345304497742965
0.08433058314868977,0.08433058314868977
0.0960783243736507,0.0960783243736507
0.10782606559861163,0.10782606559861163
0.11957380682357256,0.11957380682357256
0.1308864465216831,0.1308864465216831
0.13697786789758876,0.13697786789758876
0.1308864465216831,0.1308864465216831
0.11043667475971407,0.11043667475971407
0.08433058314868977,0.08433058314868977
0.06344570985987033,0.06344570985987033
0.04995756252750778,0.04995756252750778
0.0425608365710509,0.0425608365710509
0.03820982130254685,0.03820982130254685
0.03516411061459401,0.03516411061459401
0.026462080077585916,0.026462080077585916
0.010798425110971337,0.010798425110971337
-0.007910940543596074,-0.007910940543596074
-0.02270439245650984,-0.02270439245650984
-0.030971321466667534,-0.030971321466667534
-0.03749784436942361,-0.03749784436942361
-0.042719062691628465,-0.042719062691628465
-0.05011578864808535,-0.05011578864808535
-0.0544668039165894,-0.0544668039165894
-0.05707741307769183,-0.05707741307769183
-0.0544668039165894,-0.0544668039165894
-0.05229129628233738,-0.05229129628233738
-0.0544668039165894,-0.0544668039165894
-0.05794761613139264,-0.05794761613139264
-0.0544668039165894,-0.0544668039165894
-0.04184885963792766,-0.04184885963792766
-0.030971321466667534,-0.030971321466667534
-0.03053621993981713,-0.03053621993981713
-0.030971321466667534,-0.030971321466667534
-0.00921624512414729,-0.00921624512414729
0.04995756252750778,0.04995756252750778
0.1495958121762505,0.1495958121762505
0.29274421451003374,0.29274421451003374
0.49941743976397607,0.49941743976397607
0.7900652597000466,0.7900652597000466
1.1507644254590321,1.1507644254590321
1.507547677476364,1.507547677476364
1.7520747355662918,1.7520747355662918
1.796455091305033,1.796455091305033
1.6250250897259735,1.6250250897259735
1.2991340461150203,1.2991340461150203
0.9245116314968216,0.9245116314968216
0.5933993695636636,0.5933993695636636
0.34756700689318476,0.34756700689318476
0.17700720836782602,0.17700720836782602
0.056484085430263856,0.056484085430263856
-0.030971321466667534,-0.030971321466667534
-0.09275573827942503,-0.09275573827942503
-0.13539568791076473,-0.13539568791076473
-0.16454749020974185,-0.16454749020974185
-0.18151644975690764,-0.18151644975690764
-0.18499726197171087,-0.18499726197171087
-0.18151644975690764,-0.18151644975690764
-0.17977604364950603,-0.17977604364950603
-0.18151644975690764,-0.18151644975690764
-0.18325685586430926,-0.18325685586430926
-0.18151644975690764,-0.18151644975690764
-0.17716543448840358,-0.17716543448840358
-0.1697687085319467,-0.1697687085319467
-0.16759320089769467,-0.16759320089769467
-0.1697687085319467,-0.1697687085319467
-0.17455482532730116,-0.17455482532730116
-0.1697687085319467,-0.1697687085319467
-0.1601964749412378,-0.1601964749412378
-0.15845606883383617,-0.15845606883383617
-0.1697687085319467,-0.1697687085319467
-0.18151644975690764,-0.18151644975690764
-0.18021114517635642,-0.18021114517635642
-0.1697687085319467,-0.1697687085319467
-0.161501779521789,-0.161501779521789
-0.15845606883383617,-0.15845606883383617
-0.15628056119958414,-0.15628056119958414
-0.15845606883383617,-0.15845606883383617
-0.16802830242454508,-0.16802830242454508
-0.18151644975690764,-0.18151644975690764
-0.19021848029391575,-0.19021848029391575
-0.19326419098186856,-0.19326419098186856
-0.19369929250871898,-0.19369929250871898
-0.19326419098186856,-0.19326419098186856
-0.1854323634985613,-0.1854323634985613
-0.1697687085319467,-0.1697687085319467
-0.15062424135052888,-0.15062424135052888
-0.13539568791076473,-0.13539568791076473
-0.12669365737375662,-0.12669365737375662
-0.12364794668580378,-0.12364794668580378
-0.12321284515895338,-0.12321284515895338
-0.12364794668580378,-0.12364794668580378
-0.12408304821265419,-0.12408304821265419
-0.12364794668580378,-0.12364794668580378
-0.11973203294415014,-0.11973203294415014
-0.11233530698769326,-0.11233530698769326
-0.10450347950438596,-0.10450347950438596
-0.10058756576273233,-0.10058756576273233
-0.10015246423588192,-0.10015246423588192
-0.10058756576273233,-0.10058756576273233
-0.09971736270903152,-0.09971736270903152
-0.10058756576273233,-0.10058756576273233
-0.10189287034328354,-0.10189287034328354
-0.10058756576273233,-0.10058756576273233
-0.09145043369887382,-0.09145043369887382
-0.07752718483966087,-0.07752718483966087
-0.06403903750729831,-0.06403903750729831
-0.0544668039165894,-0.0544668039165894
-0.04445946879903009,-0.04445946879903009
-0.030971321466667534,-0.030971321466667534
-0.016612971080604173,-0.016612971080604173
-0.007910940543596074,-0.007910940543596074
-0.007040737489895265,-0.007040737489895265
-0.007910940543596074,-0.007910940543596074
-0.00486522985564324,-0.00486522985564324
0.0034016991545144535,0.0034016991545144535
0.014714338852624981,0.014714338852624981
0.026462080077585916,0.026462080077585916
0.03603431366829482,0.03603431366829482
0.03820982130254685,0.03820982130254685
0.03298860298034199,0.03298860298034199
0.026462080077585916,0.026462080077585916
0.027767384658137127,0.027767384658137127
0.03820982130254685,0.03820982130254685
0.05430857779601183,0.05430857779601183
0.07301794345057924,0.07301794345057924
0.09433791826624909,0.09433791826624909
0.11913870529672216,0.11913870529672216
0.14742030454199848,0.14742030454199848
0.17700720836782602,0.17700720836782602
0.20659411219365356,0.20659411219365356
0.23487571143892988,0.23487571143892988
0.2605467015231038,0.2605467015231038
0.28099647328507277,0.28099647328507277
0.2988356358859394,0.2988356358859394
0.3158045954331052,0.3158045954331052
0.3345139610876726,0.3345139610876726
0.3506127175811376,0.3506127175811376
0.3601849511718465,0.3601849511718465
0.3619253572792481,0.3619253572792481
0.35583393590334245,0.35583393590334245
0.33886497635617663,0.33886497635617663
0.3092780725303491,0.3092780725303491
0.26968383358696224,0.26968383358696224
0.22704388395562258,0.22704388395562258
0.18875494959278694,0.18875494959278694
0.1569925381327074,0.1569925381327074
0.1308864465216831,0.1308864465216831
0.10739096407176123,0.10739096407176123
0.08433058314868977,0.08433058314868977
0.061270202225618305,0.061270202225618305
0.03820982130254685,0.03820982130254685
0.01819515106742822,0.01819515106742822
0.0034016991545144535,0.0034016991545144535
-0.004430128328792835,-0.004430128328792835
-0.007910940543596074,-0.007910940543596074
-0.01182685428524972,-0.01182685428524972
-0.019658681768557007,-0.019658681768557007
-0.0279256107787147,-0.0279256107787147
-0.030971321466667534,-0.030971321466667534
-0.030101118412966726,-0.030101118412966726
-0.030971321466667534,-0.030971321466667534
-0.037932945896274016,-0.037932945896274016
-0.042719062691628465,-0.042719062691628465
-0.03923825047682523,-0.03923825047682523
-0.030971321466667534,-0.030971321466667534
-0.027490509251864297,-0.027490509251864297
-0.030971321466667534,-0.030971321466667534
-0.04141375811107725,-0.04141375811107725
-0.0544668039165894,-0.0544668039165894
-0.06926025582950317,-0.06926025582950317
-0.07752718483966087,-0.07752718483966087
-0.07622188025910964,-0.07622188025910964
-0.06577944361469992,-0.06577944361469992
-0.05707741307769183,-0.05707741307769183
-0.0544668039165894,-0.0544668039165894
-0.055772108497140614,-0.055772108497140614
-0.0544668039165894,-0.0544668039165894
-0.045764773379581306,-0.045764773379581306
-0.030971321466667534,-0.030971321466667534
-0.014002361919501743,-0.014002361919501743
0.0034016991545144535,0.0034016991545144535
0.02863758771183794,0.02863758771183794
0.07301794345057924,0.07301794345057924
0.1495958121762505,0.1495958121762505
0.26968383358696224,0.26968383358696224
0.4489456626493291,0.4489456626493291
0.6978237360077607,0.6978237360077607
1.0032650078567449,1.0032650078567449
1.3108817873399812,1.3108817873399812
1.5323484645068373,1.5323484645068373
1.5884765614705394,1.5884765614705394
1.4588163064691189,1.4588163064691189
1.1951447811977733,1.1951447811977733
0.8927492200367421,0.8927492200367421
0.6282074917116959,0.6282074917116959
0.42675548477995845,0.42675548477995845
0.26968383358696224,0.26968383358696224
0.13654276637073837,0.13654276637073837
0.026462080077585916,0.026462080077585916
-0.05098599170178616,-0.05098599170178616
-0.10058756576273233,-0.10058756576273233
-0.13365528180336309,-0.13365528180336309
-0.15845606883383617,-0.15845606883383617
-0.17107401311249792,-0.17107401311249792
-0.1697687085319467,-0.1697687085319467
-0.16237198257548982,-0.16237198257548982
-0.15845606883383617,-0.15845606883383617
-0.1597613734143874,-0.1597613734143874
-0.15845606883383617,-0.15845606883383617
-0.1527997489847809,-0.1527997489847809
-0.14670832760887526,-0.14670832760887526
-0.15018913982367849,-0.15018913982367849
-0.15845606883383617,-0.15845606883383617
-0.16411238868289144,-0.16411238868289144
-0.15845606883383617,-0.15845606883383617
-0.14627322608202484,-0.14627322608202484
-0.13539568791076473,-0.13539568791076473
-0.13147977416911108,-0.13147977416911108
-0.13539568791076473,-0.13539568791076473
-0.1419222108135208,-0.1419222108135208
-0.14670832760887526,-0.14670832760887526
-0.15062424135052888,-0.15062424135052888
-0.15845606883383617,-0.15845606883383617
-0.1706389115856475,-0.1706389115856475
-0.18151644975690764,-0.18151644975690764
-0.18151644975690764,-0.18151644975690764
-0.1697687085319467,-0.1697687085319467
-0.1519295459310801,-0.1519295459310801
-0.13539568791076473,-0.13539568791076473
-0.12234264210525257,-0.12234264210525257
-0.11233530698769326,-0.11233530698769326
-0.10406837797753556,-0.10406837797753556
-0.10058756576273233,-0.10058756576273233
-0.10058756576273233,-0.10058756576273233
-0.10058756576273233,-0.10058756576273233
-0.09580144896737787,-0.09580144896737787
-0.0888398245377714,-0.0888398245377714
-0.08535901232296815,-0.08535901232296815
-0.0888398245377714,-0.0888398245377714
-0.09536634744052747,-0.09536634744052747
-0.10058756576273233,-0.10058756576273233
-0.10145776881643313,-0.10145776881643313
-0.10058756576273233,-0.10058756576273233
-0.09667165202107868,-0.09667165202107868
-0.0888398245377714,-0.0888398245377714
-0.07665698178596005,-0.07665698178596005
-0.06577944361469992,-0.06577944361469992
-0.05881781918509345,-0.05881781918509345
-0.0544668039165894,-0.0544668039165894
-0.04881048406753414,-0.04881048406753414
-0.042719062691628465,-0.042719062691628465
-0.0366276413157228,-0.0366276413157228
-0.030971321466667534,-0.030971321466667534
-0.027490509251864297,-0.027490509251864297
-0.030971321466667534,-0.030971321466667534
-0.042719062691628465,-0.042719062691628465
-0.0544668039165894,-0.0544668039165894
-0.057512514604542236,-0.057512514604542236
-0.0544668039165894,-0.0544668039165894
-0.05185619475548697,-0.05185619475548697
-0.0544668039165894,-0.0544668039165894
-0.05664231155084143,-0.05664231155084143
-0.0544668039165894,-0.0544668039165894
-0.04489457032588049,-0.04489457032588049
-0.030971321466667534,-0.030971321466667534
-0.017483174134304984,-0.017483174134304984
-0.007910940543596074,-0.007910940543596074
-0.0026897222213912155,-0.0026897222213912155
0.0034016991545144535,0.0034016991545144535
0.01732494801372741,0.01732494801372741
0.03820982130254685,0.03820982130254685
0.06257550680616952,0.06257550680616952
0.08433058314868977,0.08433058314868977
0.09955913658845394,0.09955913658845394
0.10782606559861163,0.10782606559861163
0.11261218239396609,0.11261218239396609
0.11913870529672216,0.11913870529672216
0.12697053278002945,0.12697053278002945
0.1308864465216831,0.1308864465216831
0.1308864465216831,0.1308864465216831
0.1308864465216831,0.1308864465216831
0.13262685262908472,0.13262685262908472
0.1308864465216831,0.1308864465216831
0.12435992361892702,0.12435992361892702
0.11913870529672216,0.11913870529672216
0.11957380682357256,0.11957380682357256
0.11913870529672216,0.11913870529672216
0.11087177628656447,0.11087177628656447
0.0960783243736507,0.0960783243736507
0.08302527856813856,0.08302527856813856
0.07301794345057924,0.07301794345057924
0.06214040527931912,0.06214040527931912
0.04995756252750778,0.04995756252750778
0.04386614115160211,0.04386614115160211
0.04995756252750778,0.04995756252750778
0.06301060833301993,0.06301060833301993
0.07301794345057924,0.07301794345057924
0.07475834955798086,0.07475834955798086
0.07301794345057924,0.07301794345057924
0.07258284192372884,0.07258284192372884
0.07301794345057924,0.07301794345057924
0.07258284192372884,0.07258284192372884
0.07301794345057924,0.07301794345057924
0.07432324803113045,0.07432324803113045
0.07301794345057924,0.07301794345057924
0.06736162360152398,0.06736162360152398
0.061270202225618305,0.061270202225618305
0.0603999991719175,0.0603999991719175
0.061270202225618305,0.061270202225618305
0.05822449153766547,0.05822449153766547
0.04995756252750778,0.04995756252750778
0.04212573504420049,0.04212573504420049
0.03820982130254685,0.03820982130254685
0.03472900908774361,0.03472900908774361
0.026462080077585916,0.026462080077585916
0.017760049540577815,0.017760049540577815
0.015149440379475387,0.015149440379475387
0.02080576022853065,0.02080576022853065
0.026462080077585916,0.026462080077585916
0.027332283131286723,0.027332283131286723
0.026462080077585916,0.026462080077585916
0.030813095346089964,0.030813095346089964
0.03820982130254685,0.03820982130254685
0.04212573504420049,0.04212573504420049
0.03820982130254685,0.03820982130254685
0.031248196872940368,0.031248196872940368
0.026462080077585916,0.026462080077585916
0.02602697855073551,0.02602697855073551
0.026462080077585916,0.026462080077585916
0.023851470916483486,0.023851470916483486
0.015149440379475387,0.015149440379475387
0.0025314961008136437,0.0025314961008136437
-0.007910940543596074,-0.007910940543596074
-0.011391752758399314,-0.011391752758399314
-0.007910940543596074,-0.007910940543596074
-0.0018195191676904057,-0.0018195191676904057
0.0034016991545144535,0.0034016991545144535
0.009058019003569718,0.009058019003569718
0.015149440379475387,0.015149440379475387
0.02167596328223146,0.02167596328223146
0.026462080077585916,0.026462080077585916
0.031248196872940368,0.031248196872940368
0.03820982130254685,0.03820982130254685
0.04647675031270454,0.04647675031270454
0.04995756252750778,0.04995756252750778
0.04560654725900373,0.04560654725900373
0.03820982130254685,0.03820982130254685
0.03255350145349158,0.03255350145349158
0.026462080077585916,0.026462080077585916
0.019500455647979434,0.019500455647979434
0.015149440379475387,0.015149440379475387
0.01558454190632579,0.01558454190632579
0.015149440379475387,0.015149440379475387
0.009928222057270527,0.009928222057270527
0.0034016991545144535,0.0034016991545144535
0.0016612930471128337,0.0016612930471128337
0.0034016991545144535,0.0034016991545144535
0.007752714423018503,0.007752714423018503
0.015149440379475387,0.015149440379475387
0.023851470916483486,0.023851470916483486
0.026462080077585916,0.026462080077585916
0.021240861755381056,0.021240861755381056
0.015149440379475387,0.015149440379475387
0.014714338852624981,0.014714338852624981
0.015149440379475387,0.015149440379475387
0.010363323584120933,0.010363323584120933
0.0034016991545144535,0.0034016991545144535
0.0012261915202624288,0.0012261915202624288
0.0034016991545144535,0.0034016991545144535
0.0047070037350656685,0.0047070037350656685
0.0034016991545144535,0.0034016991545144535
0.0029665976276640484,0.0029665976276640484
0.0034016991545144535,0.0034016991545144535
0.0038368006813648582,0.0038368006813648582
0.0034016991545144535,0.0034016991545144535
0.0034016991545144535,0.0034016991545144535
0.0034016991545144535,0.0034016991545144535
0.0034016991545144535,0.0034016991545144535
0.0034016991545144535,0.0034016991545144535
0.0038368006813648582,0.0038368006813648582
0.0034016991545144535,0.0034016991545144535
0.0029665976276640484,0.0029665976276640484
0.0034016991545144535,0.0034016991545144535
0.007752714423018503,0.007752714423018503
0.015149440379475387,0.015149440379475387
0.02254616633593227,0.02254616633593227
0.026462080077585916,0.026462080077585916
0.02689718160443632,0.02689718160443632
0.026462080077585916,0.026462080077585916
0.029942892292389153,0.029942892292389153
0.03820982130254685,0.03820982130254685
0.049522461000657374,0.049522461000657374
0.061270202225618305,0.061270202225618305
0.07606365413853207,0.07606365413853207
0.0960783243736507,0.0960783243736507
0.11739829918932054,0.11739829918932054
0.1308864465216831,0.1308864465216831
0.1330619541559351,0.1330619541559351
0.1308864465216831,0.1308864465216831
0.12784073583373026,0.12784073583373026
0.11913870529672216,0.11913870529672216
0.10216974574955637,0.10216974574955637
0.08433058314868977,0.08433058314868977
0.07562855261168167,0.07562855261168167
0.07301794345057924,0.07301794345057924
0.0691020297089256,0.0691020297089256
0.061270202225618305,0.061270202225618305
0.0516979686349094,0.0516979686349094
0.03820982130254685,0.03820982130254685
0.02080576022853065,0.02080576022853065
0.0034016991545144535,0.0034016991545144535
-0.010086448177848099,-0.010086448177848099
-0.019658681768557007,-0.019658681768557007
-0.03140642299351794,-0.03140642299351794
-0.042719062691628465,-0.042719062691628465
-0.05229129628233738,-0.05229129628233738
-0.0544668039165894,-0.0544668039165894
-0.05490190544343981,-0.05490190544343981
-0.0544668039165894,-0.0544668039165894
-0.0544668039165894,-0.0544668039165894
-0.0544668039165894,-0.0544668039165894
-0.0544668039165894,-0.0544668039165894
-0.0544668039165894,-0.0544668039165894
-0.05359660086288859,-0.05359660086288859
-0.0544668039165894,-0.0544668039165894
-0.053161499336038184,-0.053161499336038184
-0.042719062691628465,-0.042719062691628465
-0.01617786955375377,-0.01617786955375377
0.03820982130254685,0.03820982130254685
0.15351172591790416,0.15351172591790416
0.3619253572792481,0.3619253572792481
0.6612752077523267,0.6612752077523267
1.009791530759501,1.009791530759501
1.3700555949916362,1.3700555949916362
1.6924658263877863,1.6924658263877863
1.8721627569770034,1.8721627569770034
1.7851424516069225,1.7851424516069225
1.4305347072238426,1.4305347072238426
0.9754185101383189,0.9754185101383189
0.606887516896026,0.606887516896026
0.37367309850420904,0.37367309850420904
0.21486104120381125,0.21486104120381125
0.08433058314868977,0.08433058314868977
-0.010086448177848099,-0.010086448177848099
-0.06577944361469992,-0.06577944361469992
-0.10624388561178759,-0.10624388561178759
-0.14670832760887526,-0.14670832760887526
-0.17890584059580522,-0.17890584059580522
-0.19326419098186856,-0.19326419098186856
-0.1945694955624198,-0.1945694955624198
-0.19326419098186856,-0.19326419098186856
-0.19282908945501817,-0.19282908945501817
-0.19326419098186856,-0.19326419098186856
-0.19326419098186856,-0.19326419098186856
-0.19326419098186856,-0.19326419098186856
-0.19500459708927018,-0.19500459708927018
-0.19326419098186856,-0.19326419098186856
-0.1884780741865141,-0.1884780741865141
-0.18151644975690764,-0.18151644975690764
-0.17977604364950603,-0.17977604364950603
-0.18151644975690764,-0.18151644975690764
-0.18325685586430926,-0.18325685586430926
-0.18151644975690764,-0.18151644975690764
-0.17629523143470277,-0.17629523143470277
-0.1697687085319467,-0.1697687085319467
-0.16280708410234024,-0.16280708410234024
-0.15845606883383617,-0.15845606883383617
-0.15715076425328497,-0.15715076425328497
-0.15845606883383617,-0.15845606883383617
-0.1588911703606866,-0.1588911703606866
-0.15845606883383617,-0.15845606883383617
-0.15715076425328497,-0.15715076425328497
-0.15845606883383617,-0.15845606883383617
-0.15932627188753698,-0.15932627188753698
-0.15845606883383617,-0.15845606883383617
-0.15671566272643456,-0.15671566272643456
-0.15845606883383617,-0.15845606883383617
-0.1610666779949386,-0.1610666779949386
-0.15845606883383617,-0.15845606883383617
-0.14670832760887526,-0.14670832760887526
-0.13539568791076473,-0.13539568791076473
-0.13147977416911108,-0.13147977416911108
-0.13539568791076473,-0.13539568791076473
-0.13713609401816634,-0.13713609401816634
-0.13539568791076473,-0.13539568791076473
-0.1332201802765127,-0.1332201802765127
-0.13539568791076473,-0.13539568791076473
-0.13757119554501673,-0.13757119554501673
-0.13539568791076473,-0.13539568791076473
-0.1253883527932054,-0.1253883527932054
-0.11233530698769326,-0.11233530698769326
-0.10232797187013394,-0.10232797187013394
-0.10058756576273233,-0.10058756576273233
-0.10232797187013394,-0.10232797187013394
-0.10058756576273233,-0.10058756576273233
-0.09362594133312585,-0.09362594133312585
-0.0888398245377714,-0.0888398245377714
-0.0892749260646218,-0.0892749260646218
-0.0888398245377714,-0.0888398245377714
-0.08361860621556653,-0.08361860621556653
-0.07752718483966087,-0.07752718483966087
-0.07274106804430641,-0.07274106804430641
-0.06577944361469992,-0.06577944361469992
-0.054031702389739,-0.054031702389739
-0.042719062691628465,-0.042719062691628465
-0.03575743826202199,-0.03575743826202199
-0.030971321466667534,-0.030971321466667534
-0.024444798563911463,-0.024444798563911463
-0.019658681768557007,-0.019658681768557007
-0.019223580241706603,-0.019223580241706603
-0.019658681768557007,-0.019658681768557007
-0.014872564973202553,-0.014872564973202553
-0.007910940543596074,-0.007910940543596074
-0.0031248237482416202,-0.0031248237482416202
0.0034016991545144535,0.0034016991545144535
0.017760049540577815,0.017760049540577815
0.03820982130254685,0.03820982130254685
0.05778939001081507,0.05778939001081507
0.07301794345057924,0.07301794345057924
0.08476568467554017,0.08476568467554017
0.0960783243736507,0.0960783243736507
0.11043667475971407,0.11043667475971407
0.1308864465216831,0.1308864465216831
0.15568723355215616,0.15568723355215616
0.17700720836782602,0.17700720836782602
0.19093045722703897,0.19093045722703897
0.2000675892908975,0.2000675892908975
0.20833451830105518,0.20833451830105518
0.2118153305158584,0.2118153305158584
0.20746431524735437,0.20746431524735437
0.2000675892908975,0.2000675892908975
0.1944112694418422,0.1944112694418422
0.18875494959278694,0.18875494959278694
0.18179332516318047,0.18179332516318047
0.17700720836782602,0.17700720836782602
0.1743965992067236,0.1743965992067236
0.1656945686697155,0.1656945686697155
0.14829050759569928,0.14829050759569928
0.1308864465216831,0.1308864465216831
0.11957380682357256,0.11957380682357256
0.10782606559861163,0.10782606559861163
0.08998690299774503,0.08998690299774503
0.07301794345057924,0.07301794345057924
0.06518611596727195,0.06518611596727195
0.061270202225618305,0.061270202225618305
0.05256817168861021,0.05256817168861021
0.03820982130254685,0.03820982130254685
0.0251567754970347,0.0251567754970347
0.015149440379475387,0.015149440379475387
0.0073176128961680974,0.0073176128961680974
0.0034016991545144535,0.0034016991545144535
0.004271902208215263,0.004271902208215263
0.0034016991545144535,0.0034016991545144535
-0.0022546206945408104,-0.0022546206945408104
-0.007910940543596074,-0.007910940543596074
-0.008781143597296884,-0.008781143597296884
-0.007910940543596074,-0.007910940543596074
-0.01182685428524972,-0.01182685428524972
-0.019658681768557007,-0.019658681768557007
-0.02618520467131308,-0.02618520467131308
-0.030971321466667534,-0.030971321466667534
-0.03401703215462037,-0.03401703215462037
-0.030971321466667534,-0.030971321466667534
-0.020963986349108222,-0.020963986349108222
-0.007910940543596074,-0.007910940543596074
0.00035598846656161894,0.00035598846656161894
0.0034016991545144535,0.0034016991545144535
0.004271902208215263,0.004271902208215263
0.0034016991545144535,0.0034016991545144535
0.0029665976276640484,0.0029665976276640484
0.0034016991545144535,0.0034016991545144535
0.0047070037350656685,0.0047070037350656685
0.0034016991545144535,0.0034016991545144535
0.0012261915202624288,0.0012261915202624288
0.0034016991545144535,0.0034016991545144535
0.010798425110971337,0.010798425110971337
0.015149440379475387,0.015149440379475387
0.010798425110971337,0.010798425110971337
0.0034016991545144535,0.0034016991545144535
0.0012261915202624288,0.0012261915202624288
0.0034016991545144535,0.0034016991545144535
0.0047070037350656685,0.0047070037350656685
0.0034016991545144535,0.0034016991545144535
0.0029665976276640484,0.0029665976276640484
0.0034016991545144535,0.0034016991545144535
0.004271902208215263,0.004271902208215263
0.0034016991545144535,0.0034016991545144535
0.0034016991545144535,0.0034016991545144535
0.0034016991545144535,0.0034016991545144535
0.0038368006813648582,0.0038368006813648582
0.0034016991545144535,0.0034016991545144535
0.0034016991545144535,0.0034016991545144535
0.0034016991545144535,0.0034016991545144535
0.0038368006813648582,0.0038368006813648582
0.0034016991545144535,0.0034016991545144535
0.0034016991545144535,0.0034016991545144535
0.0034016991545144535,0.0034016991545144535
0.0034016991545144535,0.0034016991545144535
0.0034016991545144535,0.0034016991545144535
0.0038368006813648582,0.0038368006813648582
0.0034016991545144535,0.0034016991545144535
0.0034016991545144535,0.0034016991545144535
0.0034016991545144535,0.0034016991545144535
0.0038368006813648582,0.0038368006813648582
0.0034016991545144535,0.0034016991545144535
0.0029665976276640484,0.0029665976276640484
0.0034016991545144535,0.0034016991545144535
0.007752714423018503,0.007752714423018503
0.015149440379475387,0.015149440379475387
0.025591877023885105,0.025591877023885105
0.03820982130254685,0.03820982130254685
0.05082776558120859,0.05082776558120859
0.061270202225618305,0.061270202225618305
0.07127753734317763,0.07127753734317763
0.08433058314868977,0.08433058314868977
0.10216974574955637,0.10216974574955637
0.11913870529672216,0.11913870529672216
0.12958114194113188,0.12958114194113188
0.1308864465216831,0.1308864465216831
0.12348972056522621,0.12348972056522621
0.10782606559861163,0.10782606559861163
0.08868159841719382,0.08868159841719382
0.07301794345057924,0.07301794345057924
0.06214040527931912,0.06214040527931912
0.04995756252750778,0.04995756252750778
0.03559921214144442,0.03559921214144442
0.026462080077585916,0.026462080077585916
0.02689718160443632,0.02689718160443632
0.026462080077585916,0.026462080077585916
0.015149440379475387,0.015149440379475387
-0.007910940543596074,-0.007910940543596074
-0.033581930627769964,-0.033581930627769964
-0.0544668039165894,-0.0544668039165894
-0.06969535735635357,-0.06969535735635357
-0.07752718483966087,-0.07752718483966087
-0.08013779400076329,-0.08013779400076329
-0.07752718483966087,-0.07752718483966087
-0.07709208331281045,-0.07709208331281045
-0.07752718483966087,-0.07752718483966087
-0.07926759094706248,-0.07926759094706248
-0.07752718483966087,-0.07752718483966087
-0.07274106804430641,-0.07274106804430641
-0.06577944361469992,-0.06577944361469992
-0.05881781918509345,-0.05881781918509345
-0.0544668039165894,-0.0544668039165894
-0.054031702389739,-0.054031702389739
-0.0544668039165894,-0.0544668039165894
-0.04358926574532928,-0.04358926574532928
-0.007910940543596074,-0.007910940543596074
0.06605631902097277,0.06605631902097277
0.18875494959278694,0.18875494959278694
0.3745433015579098,0.3745433015579098
0.6399552329366569,0.6399552329366569
0.9832503376216263,0.9832503376216263
1.357002549186124,1.357002549186124
1.6667948363036125,1.6667948363036125
1.808202832529994,1.808202832529994
1.726403745482118,1.726403745482118
1.4496791744052604,1.4496791744052604
1.0746216582602113,1.0746216582602113
0.7091363757058712,0.7091363757058712
0.421969367984604,0.421969367984604
0.22312797021396893,0.22312797021396893
0.08998690299774503,0.08998690299774503
-0.007910940543596074,-0.007910940543596074
-0.08274840316186573,-0.08274840316186573
-0.13539568791076473,-0.13539568791076473
-0.16541769326344266,-0.16541769326344266
-0.18151644975690764,-0.18151644975690764
-0.18978337876706533,-0.18978337876706533
-0.19326419098186856,-0.19326419098186856
-0.19282908945501817,-0.19282908945501817
-0.19326419098186856,-0.19326419098186856
-0.1945694955624198,-0.1945694955624198
-0.19326419098186856,-0.19326419098186856
-0.1876078711328133,-0.1876078711328133
-0.18151644975690764,-0.18151644975690764
-0.18108134823005723,-0.18108134823005723
-0.18151644975690764,-0.18151644975690764
-0.18195155128375803,-0.18195155128375803
-0.18151644975690764,-0.18151644975690764
-0.1863025665522621,-0.1863025665522621
-0.19326419098186856,-0.19326419098186856
-0.195874800142971,-0.195874800142971
-0.19326419098186856,-0.19326419098186856
-0.1871727696059629,-0.1871727696059629
-0.18151644975690764,-0.18151644975690764
-0.17586012990785238,-0.17586012990785238
-0.1697687085319467,-0.1697687085319467
-0.16367728715604105,-0.16367728715604105
-0.15845606883383617,-0.15845606883383617
-0.15584545967273375,-0.15584545967273375
-0.15845606883383617,-0.15845606883383617
-0.16411238868289144,-0.16411238868289144
-0.1697687085319467,-0.1697687085319467
-0.17194421616619873,-0.17194421616619873
-0.1697687085319467,-0.1697687085319467
-0.16454749020974185,-0.16454749020974185
-0.15845606883383617,-0.15845606883383617
-0.1514944444042297,-0.1514944444042297
-0.14670832760887526,-0.14670832760887526
-0.14540302302832403,-0.14540302302832403
-0.14670832760887526,-0.14670832760887526
-0.14801363218942645,-0.14801363218942645
-0.14670832760887526,-0.14670832760887526
-0.1419222108135208,-0.1419222108135208
-0.13539568791076473,-0.13539568791076473
-0.12843406348115824,-0.12843406348115824
-0.12364794668580378,-0.12364794668580378
-0.11842672836359892,-0.11842672836359892
-0.11233530698769326,-0.11233530698769326
-0.10450347950438596,-0.10450347950438596
-0.10058756576273233,-0.10058756576273233
-0.10015246423588192,-0.10015246423588192
-0.10058756576273233,-0.10058756576273233
-0.09667165202107868,-0.09667165202107868
-0.0888398245377714,-0.0888398245377714
-0.0814430985813145,-0.0814430985813145
-0.07752718483966087,-0.07752718483966087
-0.07665698178596005,-0.07665698178596005
-0.07752718483966087,-0.07752718483966087
-0.07491657567855843,-0.07491657567855843
-0.06577944361469992,-0.06577944361469992
-0.053161499336038184,-0.053161499336038184
-0.042719062691628465,-0.042719062691628465
-0.0366276413157228,-0.0366276413157228
-0.030971321466667534,-0.030971321466667534
-0.024009697037061056,-0.024009697037061056
-0.019658681768557007,-0.019658681768557007
-0.019658681768557007,-0.019658681768557007
-0.019658681768557007,-0.019658681768557007
-0.014437463446352149,-0.014437463446352149
-0.007910940543596074,-0.007910940543596074
-0.0031248237482416202,-0.0031248237482416202
0.0034016991545144535,0.0034016991545144535
0.014714338852624981,0.014714338852624981
0.026462080077585916,0.026462080077585916
0.036904516721995635,0.036904516721995635
0.04995756252750778,0.04995756252750778
0.07084243581632721,0.07084243581632721
0.0960783243736507,0.0960783243736507
0.11957380682357256,0.11957380682357256
0.14219908621979363,0.14219908621979363
0.1665647717234163,0.1665647717234163
0.18875494959278694,0.18875494959278694
0.20659411219365356,0.20659411219365356
0.22312797021396893,0.22312797021396893
0.24227243739538676,0.24227243739538676
0.2579360923620013,0.2579360923620013
0.26924873206011185,0.26924873206011185
0.28099647328507277,0.28099647328507277
0.29622502672483697,0.29622502672483697
0.30449195573499466,0.30449195573499466
0.29491972214428575,0.29491972214428575
0.26968383358696224,0.26968383358696224
0.24009692976113473,0.24009692976113473
0.2118153305158584,0.2118153305158584
0.1835337312705821,0.1835337312705821
0.15394682744475455,0.15394682744475455
0.12435992361892702,0.12435992361892702
0.0960783243736507,0.0960783243736507
0.0704073342894768,0.0704073342894768
0.04995756252750778,0.04995756252750778
0.03603431366829482,0.03603431366829482
0.026462080077585916,0.026462080077585916
0.01732494801372741,0.01732494801372741
0.0034016991545144535,0.0034016991545144535
-0.013567260392651338,-0.013567260392651338
-0.030971321466667534,-0.030971321466667534
-0.04489457032588049,-0.04489457032588049
-0.0544668039165894,-0.0544668039165894
-0.060123123765644666,-0.060123123765644666
-0.06577944361469992,-0.06577944361469992
-0.07491657567855843,-0.07491657567855843
-0.0888398245377714,-0.0888398245377714
-0.10406837797753556,-0.10406837797753556
-0.11233530698769326,-0.11233530698769326
-0.11277040851454366,-0.11277040851454366
-0.11233530698769326,-0.11233530698769326
-0.11364061156824447,-0.11364061156824447
-0.11233530698769326,-0.11233530698769326
-0.10667898713863799,-0.10667898713863799
-0.10058756576273233,-0.10058756576273233
-0.10058756576273233,-0.10058756576273233
-0.10058756576273233,-0.10058756576273233
-0.10102266728958273,-0.10102266728958273
-0.10058756576273233,-0.10058756576273233
-0.10276307339698434,-0.10276307339698434
-0.10058756576273233,-0.10058756576273233
-0.09058023064517301,-0.09058023064517301
-0.07752718483966087,-0.07752718483966087
-0.06969535735635357,-0.06969535735635357
-0.06577944361469992,-0.06577944361469992
-0.058382717658243044,-0.058382717658243044
-0.042719062691628465,-0.042719062691628465
-0.01617786955375377,-0.01617786955375377
0.026462080077585916,0.026462080077585916
0.09912403506160354,0.09912403506160354
0.2118153305158584,0.2118153305158584
0.37410820003105943,0.37410820003105943
0.5933993695636636,0.5933993695636636
0.8722994482747731,0.8722994482747731
1.1833970399728124,1.1833970399728124
1.46012161104967,1.46012161104967
1.611536942393611,1.611536942393611
1.5775990232992794,1.5775990232992794
1.368750290411085,1.368750290411085
1.0637441200889513,1.0637441200889513
0.7552571375520142,0.7552571375520142
0.5033333535056297,0.5033333535056297
0.3158045954331052,0.3158045954331052
0.1752668022604244,0.1752668022604244
0.061270202225618305,0.061270202225618305
-0.030971321466667534,-0.030971321466667534
-0.10058756576273233,-0.10058756576273233
-0.14540302302832403,-0.14540302302832403
-0.1697687085319467,-0.1697687085319467
-0.18282175433745884,-0.18282175433745884
-0.19326419098186856,-0.19326419098186856
-0.2050119322068295,-0.2050119322068295
-0.21632457190494003,-0.21632457190494003
-0.2211106887002945,-0.2211106887002945
-0.21632457190494003,-0.21632457190494003
-0.2050119322068295,-0.2050119322068295
-0.19326419098186856,-0.19326419098186856
-0.1893482772402149,-0.1893482772402149
-0.19326419098186856,-0.19326419098186856
-0.20153111999202628,-0.20153111999202628
-0.2045768306799791,-0.2045768306799791
-0.20109601846517586,-0.20109601846517586
-0.19326419098186856,-0.19326419098186856
-0.18586746502541168,-0.18586746502541168
-0.18151644975690764,-0.18151644975690764
-0.1767303329615532,-0.1767303329615532
-0.1697687085319467,-0.1697687085319467
-0.16237198257548982,-0.16237198257548982
-0.15845606883383617,-0.15845606883383617
-0.15802096730698578,-0.15802096730698578
-0.15845606883383617,-0.15845606883383617
-0.15410505356533213,-0.15410505356533213
-0.14670832760887526,-0.14670832760887526
-0.1423573123403712,-0.1423573123403712
-0.14670832760887526,-0.14670832760887526
-0.15454015509218252,-0.15454015509218252
-0.15845606883383617,-0.15845606883383617
-0.15366995203848172,-0.15366995203848172
-0.14670832760887526,-0.14670832760887526
-0.14105200775982,-0.14105200775982
-0.13539568791076473,-0.13539568791076473
-0.12756386042745743,-0.12756386042745743
-0.12364794668580378,-0.12364794668580378
-0.12712875890060701,-0.12712875890060701
-0.13539568791076473,-0.13539568791076473
-0.13844139859871754,-0.13844139859871754
-0.13539568791076473,-0.13539568791076473
-0.12843406348115824,-0.12843406348115824
-0.12364794668580378,-0.12364794668580378
-0.11886182989044933,-0.11886182989044933
-0.11233530698769326,-0.11233530698769326
-0.10450347950438596,-0.10450347950438596
-0.10058756576273233,-0.10058756576273233
-0.10015246423588192,-0.10015246423588192
-0.10058756576273233,-0.10058756576273233
-0.10015246423588192,-0.10015246423588192
-0.10058756576273233,-0.10058756576273233
-0.10189287034328354,-0.10189287034328354
-0.10058756576273233,-0.10058756576273233
-0.09449614438682666,-0.09449614438682666
-0.0888398245377714,-0.0888398245377714
-0.08753451995722017,-0.08753451995722017
-0.0888398245377714,-0.0888398245377714
-0.0892749260646218,-0.0892749260646218
-0.0888398245377714,-0.0888398245377714
-0.0892749260646218,-0.0892749260646218
-0.0888398245377714,-0.0888398245377714
-0.08796962148407057,-0.08796962148407057
-0.0888398245377714,-0.0888398245377714
-0.09145043369887382,-0.09145043369887382
-0.0888398245377714,-0.0888398245377714
-0.07839738789336168,-0.07839738789336168
-0.06577944361469992,-0.06577944361469992
-0.05881781918509345,-0.05881781918509345
-0.0544668039165894,-0.0544668039165894
-0.045329671852730895,-0.045329671852730895
-0.030971321466667534,-0.030971321466667534
-0.014437463446352149,-0.014437463446352149
0.0034016991545144535,0.0034016991545144535
0.0251567754970347,0.0251567754970347
0.04995756252750778,0.04995756252750778
0.07475834955798086,0.07475834955798086
0.0960783243736507,0.0960783243736507
0.1147876900282181,0.1147876900282181
0.1308864465216831,0.1308864465216831
0.1417639846929432,0.1417639846929432
0.14219908621979363,0.14219908621979363
0.13610766484388795,0.13610766484388795
0.1308864465216831,0.1308864465216831
0.1308864465216831,0.1308864465216831
0.1308864465216831,0.1308864465216831
0.12610032972632865,0.12610032972632865
0.11913870529672216,0.11913870529672216
0.1143525885013677,0.1143525885013677
0.10782606559861163,0.10782606559861163
0.0956432228468003,0.0956432228468003
0.08433058314868977,0.08433058314868977
0.08128487246073693,0.08128487246073693
0.08433058314868977,0.08433058314868977
0.08650609078294179,0.08650609078294179
0.08433058314868977,0.08433058314868977
0.07954446635333531,0.07954446635333531
0.07301794345057924,0.07301794345057924
0.06562121749412236,0.06562121749412236
0.061270202225618305,0.061270202225618305
0.0608351006987679,0.0608351006987679
0.061270202225618305,0.061270202225618305
0.0603999991719175,0.0603999991719175
0.061270202225618305,0.061270202225618305
0.06692652207467358,0.06692652207467358
0.07301794345057924,0.07301794345057924
0.07475834955798086,0.07475834955798086
0.07301794345057924,0.07301794345057924
0.07214774039687843,0.07214774039687843
0.07301794345057924,0.07301794345057924
0.07345304497742965,0.07345304497742965
0.07301794345057924,0.07301794345057924
0.07258284192372884,0.07258284192372884
0.07301794345057924,0.07301794345057924
0.07345304497742965,0.07345304497742965
0.07301794345057924,0.07301794345057924
0.07258284192372884,0.07258284192372884
0.07301794345057924,0.07301794345057924
0.07388814650428005,0.07388814650428005
0.07301794345057924,0.07301794345057924
0.06866692818207519,0.06866692818207519
0.061270202225618305,0.061270202225618305
0.053873476269161426,0.053873476269161426
0.04995756252750778,0.04995756252750778
0.04908735947380697,0.04908735947380697
0.04995756252750778,0.04995756252750778
0.04995756252750778,0.04995756252750778
0.04995756252750778,0.04995756252750778
0.05039266405435818,0.05039266405435818
0.04995756252750778,0.04995756252750778
0.046041648785854136,0.046041648785854136
0.03820982130254685,0.03820982130254685
0.030377993819239557,0.030377993819239557
0.026462080077585916,0.026462080077585916
0.026462080077585916,0.026462080077585916
0.026462080077585916,0.026462080077585916
0.025591877023885105,0.025591877023885105
0.026462080077585916,0.026462080077585916
0.03211839992664118,0.03211839992664118
0.03820982130254685,0.03820982130254685
0.040820430463649277,0.040820430463649277
0.03820982130254685,0.03820982130254685
0.036469415195145224,0.036469415195145224
0.03820982130254685,0.03820982130254685
0.040820430463649277,0.040820430463649277
0.03820982130254685,0.03820982130254685
0.031683298399790776,0.031683298399790776
0.026462080077585916,0.026462080077585916
0.026462080077585916,0.026462080077585916
0.026462080077585916,0.026462080077585916
0.024721673970184294,0.024721673970184294
0.026462080077585916,0.026462080077585916
0.036904516721995635,0.036904516721995635
0.04995756252750778,0.04995756252750778
0.05517878084971264,0.05517878084971264
0.04995756252750778,0.04995756252750778
0.041690633517350084,0.041690633517350084
0.03820982130254685,0.03820982130254685
0.039080024356247654,0.039080024356247654
0.03820982130254685,0.03820982130254685
0.03342370450719239,0.03342370450719239
0.026462080077585916,0.026462080077585916
0.023851470916483486,0.023851470916483486
0.026462080077585916,0.026462080077585916
0.02950779076553875,0.02950779076553875
0.026462080077585916,0.026462080077585916
0.019500455647979434,0.019500455647979434
0.015149440379475387,0.015149440379475387
0.018630252594278626,0.018630252594278626
0.026462080077585916,0.026462080077585916
0.03342370450719239,0.03342370450719239
0.03820982130254685,0.03820982130254685
0.04038532893679887,0.04038532893679887
0.03820982130254685,0.03820982130254685
0.031683298399790776,0.031683298399790776
0.026462080077585916,0.026462080077585916
0.02602697855073551,0.02602697855073551
0.026462080077585916,0.026462080077585916
0.025591877023885105,0.025591877023885105
0.026462080077585916,0.026462080077585916
0.03211839992664118,0.03211839992664118
0.03820982130254685,0.03820982130254685
0.0429959380979013,0.0429959380979013
0.04995756252750778,0.04995756252750778
0.058659593064515875,0.058659593064515875
0.061270202225618305,0.061270202225618305
0.05517878084971264,0.05517878084971264
0.04995756252750778,0.04995756252750778
0.05343837474231102,0.05343837474231102
0.061270202225618305,0.061270202225618305
0.06736162360152398,0.06736162360152398
0.07301794345057924,0.07301794345057924
0.08084977093388653,0.08084977093388653
0.08433058314868977,0.08433058314868977
0.07910936482648491,0.07910936482648491
0.07301794345057924,0.07301794345057924
0.0786742632996345,0.0786742632996345
0.0960783243736507,0.0960783243736507
0.11565789308191893,0.11565789308191893
0.1308864465216831,0.1308864465216831
0.14263418774664402,0.14263418774664402
0.15394682744475455,0.15394682744475455
0.16612967019656588,0.16612967019656588
0.17700720836782602,0.17700720836782602
0.18266352821688128,0.18266352821688128
0.17700720836782602,0.17700720836782602
0.1582978427132586,0.1582978427132586
0.1308864465216831,0.1308864465216831
0.10391015185695798,0.10391015185695798
0.08433058314868977,0.08433058314868977
0.07475834955798086,0.07475834955798086
0.07301794345057924,0.07301794345057924
0.07475834955798086,0.07475834955798086
0.07301794345057924,0.07301794345057924
0.0608351006987679,0.0608351006987679
0.03820982130254685,0.03820982130254685
0.011668628164672146,0.011668628164672146
-0.007910940543596074,-0.007910940543596074
-0.018353377188005792,-0.018353377188005792
-0.019658681768557007,-0.019658681768557007
-0.020528884822257818,-0.020528884822257818
-0.019658681768557007,-0.019658681768557007
-0.02009378329540741,-0.02009378329540741
-0.019658681768557007,-0.019658681768557007
-0.020528884822257818,-0.020528884822257818
-0.019658681768557007,-0.019658681768557007
-0.015742768026903362,-0.015742768026903362
-0.007910940543596074,-0.007910940543596074
-7.911306028878597e-05,-7.911306028878597e-05
0.0034016991545144535,0.0034016991545144535
0.0034016991545144535,0.0034016991545144535
0.0034016991545144535,0.0034016991545144535
0.012103729691522552,0.012103729691522552
0.03820982130254685,0.03820982130254685
0.10042933964215475,0.10042933964215475
0.22312797021396893,0.22312797021396893
0.42936609394106084,0.42936609394106084
0.7208841169308322,0.7208841169308322
1.0663547292500535,1.0663547292500535
1.3918106713341565,1.3918106713341565
1.5936977797927443,1.5936977797927443
1.5884765614705394,1.5884765614705394
1.3757119148406916,1.3757119148406916
1.0445996529075334,1.0445996529075334
0.7139224925012256,0.7139224925012256
0.45460198249838435,0.45460198249838435
0.2762103564897183,0.2762103564897183
0.15394682744475455,0.15394682744475455
0.06431591291357114,0.06431591291357114
-0.007910940543596074,-0.007910940543596074
-0.06490924056099912,-0.06490924056099912
-0.10058756576273233,-0.10058756576273233
-0.11277040851454366,-0.11277040851454366
-0.11233530698769326,-0.11233530698769326
-0.11015979935344124,-0.11015979935344124
-0.11233530698769326,-0.11233530698769326
-0.11668632225619731,-0.11668632225619731
-0.12364794668580378,-0.12364794668580378
-0.13147977416911108,-0.13147977416911108
-0.13539568791076473,-0.13539568791076473
-0.13626589096446554,-0.13626589096446554
-0.13539568791076473,-0.13539568791076473
-0.13713609401816634,-0.13713609401816634
-0.13539568791076473,-0.13539568791076473
-0.12973936806170946,-0.12973936806170946
-0.12364794668580378,-0.12364794668580378
-0.12277774363210298,-0.12277774363210298
-0.12364794668580378,-0.12364794668580378
-0.12016713447100054,-0.12016713447100054
-0.11233530698769326,-0.11233530698769326
-0.10406837797753556,-0.10406837797753556
-0.10058756576273233,-0.10058756576273233
-0.09971736270903152,-0.09971736270903152
-0.10058756576273233,-0.10058756576273233
-0.10102266728958273,-0.10102266728958273
-0.10058756576273233,-0.10058756576273233
-0.09971736270903152,-0.09971736270903152
-0.10058756576273233,-0.10058756576273233
-0.10189287034328354,-0.10189287034328354
-0.10058756576273233,-0.10058756576273233
-0.09493124591367706,-0.09493124591367706
-0.0888398245377714,-0.0888398245377714
-0.08666431690351936,-0.08666431690351936
-0.0888398245377714,-0.0888398245377714
-0.09058023064517301,-0.09058023064517301
-0.0888398245377714,-0.0888398245377714
-0.08361860621556653,-0.08361860621556653
-0.07752718483966087,-0.07752718483966087
-0.07448147415170803,-0.07448147415170803
-0.07752718483966087,-0.07752718483966087
-0.0805728955276137,-0.0805728955276137
-0.07752718483966087,-0.07752718483966087
-0.06969535735635357,-0.06969535735635357
-0.06577944361469992,-0.06577944361469992
-0.06708474819525115,-0.06708474819525115
-0.06577944361469992,-0.06577944361469992
-0.05881781918509345,-0.05881781918509345
-0.0544668039165894,-0.0544668039165894
-0.055772108497140614,-0.055772108497140614
-0.0544668039165894,-0.0544668039165894
-0.042719062691628465,-0.042719062691628465
-0.030971321466667534,-0.030971321466667534
-0.02879581383241551,-0.02879581383241551
-0.030971321466667534,-0.030971321466667534
-0.02705540772501389,-0.02705540772501389
-0.019658681768557007,-0.019658681768557007
-0.017048072607454577,-0.017048072607454577
-0.019658681768557007,-0.019658681768557007
-0.017483174134304984,-0.017483174134304984
-0.007910940543596074,-0.007910940543596074
0.0012261915202624288,0.0012261915202624288
0.0034016991545144535,0.0034016991545144535
0.0020963945739632386,0.0020963945739632386
0.0034016991545144535,0.0034016991545144535
0.009493120530420122,0.009493120530420122
0.015149440379475387,0.015149440379475387
0.019500455647979434,0.019500455647979434
0.026462080077585916,0.026462080077585916
0.03864492282939725,0.03864492282939725
0.04995756252750778,0.04995756252750778
0.05561388237656304,0.05561388237656304
0.061270202225618305,0.061270202225618305
0.07171263887002803,0.07171263887002803
0.08433058314868977,0.08433058314868977
0.0956432228468003,0.0956432228468003
0.10782606559861163,0.10782606559861163
0.12435992361892702,0.12435992361892702
0.14219908621979363,0.14219908621979363
0.15568723355215616,0.15568723355215616
0.1656945686697155,0.1656945686697155
0.1761370053141252,0.1761370053141252
0.18875494959278694,0.18875494959278694
0.20050269081774788,0.20050269081774788
0.2118153305158584,0.2118153305158584
0.22399817326766974,0.22399817326766974
0.23487571143892988,0.23487571143892988
0.23922672670743392,0.23922672670743392
0.23487571143892988,0.23487571143892988
0.227478985482473,0.227478985482473
0.22312797021396893,0.22312797021396893
0.2209524625797169,0.2209524625797169
0.2118153305158584,0.2118153305158584
0.1939761679149918,0.1939761679149918
0.17700720836782602,0.17700720836782602
0.1656945686697155,0.1656945686697155
0.15394682744475455,0.15394682744475455
0.13654276637073837,0.13654276637073837
0.11913870529672216,0.11913870529672216
0.10739096407176123,0.10739096407176123
0.0960783243736507,0.0960783243736507
0.08215507551443775,0.08215507551443775
0.07301794345057924,0.07301794345057924
0.07258284192372884,0.07258284192372884
0.07301794345057924,0.07301794345057924
0.06388081138672073,0.06388081138672073
0.04995756252750778,0.04995756252750778
0.04125553199049968,0.04125553199049968
0.03820982130254685,0.03820982130254685
0.03342370450719239,0.03342370450719239
0.026462080077585916,0.026462080077585916
0.023851470916483486,0.023851470916483486
0.026462080077585916,0.026462080077585916
0.03211839992664118,0.03211839992664118
0.03820982130254685,0.03820982130254685
0.04473634420530292,0.04473634420530292
0.04995756252750778,0.04995756252750778
0.05082776558120859,0.05082776558120859
0.04995756252750778,0.04995756252750778
0.049522461000657374,0.049522461000657374
0.04995756252750778,0.04995756252750778
0.04995756252750778,0.04995756252750778
0.04995756252750778,0.04995756252750778
0.049522461000657374,0.049522461000657374
0.04995756252750778,0.04995756252750778
0.05300327321546061,0.05300327321546061
