ECG,PPG
-0.017853492345295353,-0.017853492345295353
0.30629254338666,0.30629254338666
-0.017853492345295353,-0.017853492345295353
-0.2765686577554871,-0.2765686577554871
-0.1968482870186257,-0.1968482870186257
-0.08478852060549032,-0.08478852060549032
-0.1374340484505875,-0.1374340484505875
-0.2254272878488213,-0.2254272878488213
-0.1968482870186257,-0.1968482870186257
-0.08629267854392167,-0.08629267854392167
0.04156074622274287,0.04156074622274287
0.1348185384054864,0.1348185384054864
0.1603892233588193,0.1603892233588193
0.11752072211352592,0.11752072211352592
0.1009749847907811,0.1009749847907811
0.16866209202019172,0.16866209202019172
0.27921770049489575,0.27921770049489575
0.3393840180321497,0.3393840180321497
0.338631939062934,0.338631939062934
0.31907788586332647,0.31907788586332647
0.338631939062934,0.338631939062934
0.42211270464587375,0.42211270464587375
0.5770409723043025,0.5770409723043025
0.7312171609935156,0.7312171609935156
0.8146979265764555,0.8146979265764555
0.7943917944076323,0.7943917944076323
0.7552836880084173,0.7552836880084173
0.7748377412080247,0.7748377412080247
0.8741121651444936,0.8741121651444936
0.9989572740342956,0.9989572740342956
1.1117691194166466,1.1117691194166466
1.159150094477234,1.159150094477234
1.1117691194166466,1.1117691194166466
0.9891802474344917,0.9891802474344917
0.8741121651444936,0.8741121651444936
0.7846147678078285,0.7846147678078285
0.695869449440379,0.695869449440379
0.6161490787035176,0.6161490787035176
0.6364552108723408,0.6364552108723408
0.7447545824393978,0.7447545824393978
0.8146979265764555,0.8146979265764555
0.7470108193470448,0.7470108193470448
0.6364552108723408,0.6364552108723408
0.6048678941652825,0.6048678941652825
0.6364552108723408,0.6364552108723408
0.5777930512735182,0.5777930512735182
0.3980461776309722,0.3980461776309722
0.21980346192685754,0.21980346192685754
0.1603892233588193,0.1603892233588193
0.12504151180568265,0.12504151180568265
-0.017853492345295353,-0.017853492345295353
-0.2194106560950959,-0.2194106560950959
-0.2562625255866639,-0.2562625255866639
-0.11186336349725456,-0.11186336349725456
-0.017853492345295353,-0.017853492345295353
-0.14345068020431287,-0.14345068020431287
-0.31567676415470214,-0.31567676415470214
-0.332222501477447,-0.332222501477447
-0.2562625255866639,-0.2562625255866639
-0.32620586972372156,-0.32620586972372156
-0.5533337184268551,-0.5533337184268551
-0.7360889079462638,-0.7360889079462638
-0.7323285131001854,-0.7323285131001854
-0.6601289320554807,-0.6601289320554807
-0.6729142745321471,-0.6729142745321471
-0.7676762246533221,-0.7676762246533221
-0.7917427516682236,-0.7917427516682236
-0.6902120908241076,-0.6902120908241076
-0.5533337184268551,-0.5533337184268551
-0.49843195367411086,-0.49843195367411086
-0.49391947985881685,-0.49391947985881685
-0.47436542665920933,-0.47436542665920933
-0.4345052412907786,-0.4345052412907786
-0.4284886095370532,-0.4284886095370532
-0.4345052412907786,-0.4345052412907786
-0.4202157408756808,-0.4202157408756808
-0.3750910027227404,-0.3750910027227404
-0.3104122113701924,-0.3104122113701924
-0.1968482870186257,-0.1968482870186257
-0.0825322836978433,-0.0825322836978433
-0.07801980988254925,-0.07801980988254925
-0.2194106560950959,-0.2194106560950959
-0.3750910027227404,-0.3750910027227404
-0.4533072155211704,-0.4533072155211704
-0.49391947985881685,-0.49391947985881685
-0.5525816394576394,-0.5525816394576394
-0.5533337184268551,-0.5533337184268551
-0.4608280052133272,-0.4608280052133272
-0.3750910027227404,-0.3750910027227404
-0.3961492138607792,-0.3961492138607792
-0.4345052412907786,-0.4345052412907786
-0.36380981818450525,-0.36380981818450525
-0.1968482870186257,-0.1968482870186257
-0.06373030946745145,-0.06373030946745145
-0.017853492345295353,-0.017853492345295353
-0.0652344674058828,-0.0652344674058828
-0.1968482870186257,-0.1968482870186257
-0.3818597134456814,-0.3818597134456814
-0.49391947985881685,-0.49391947985881685
-0.45556345242881746,-0.45556345242881746
-0.31567676415470214,-0.31567676415470214
-0.21339402434137053,-0.21339402434137053
-0.1968482870186257,-0.1968482870186257
-0.24347718310999747,-0.24347718310999747
-0.31567676415470214,-0.31567676415470214
-0.438265636136857,-0.438265636136857
-0.6127479569948933,-0.6127479569948933
-0.8015197782680273,-0.8015197782680273
-0.9105712288043001,-0.9105712288043001
-0.8880088597278298,-0.8880088597278298
-0.7323285131001854,-0.7323285131001854
-0.5157297699660713,-0.5157297699660713
-0.31567676415470214,-0.31567676415470214
-0.19609620804941003,-0.19609620804941003
-0.1374340484505875,-0.1374340484505875
-0.07801980988254925,-0.07801980988254925
0.04156074622274287,0.04156074622274287
0.17392664480470144,0.17392664480470144
0.21980346192685754,0.21980346192685754
0.10548745860607514,0.10548745860607514
-0.07801980988254925,-0.07801980988254925
-0.1855671024803906,-0.1855671024803906
-0.1374340484505875,-0.1374340484505875
-0.07726773091333358,-0.07726773091333358
-0.1374340484505875,-0.1374340484505875
-0.2886019212629379,-0.2886019212629379
-0.31567676415470214,-0.31567676415470214
-0.18406294454195926,-0.18406294454195926
-0.07801980988254925,-0.07801980988254925
-0.159244338557842,-0.159244338557842
-0.31567676415470214,-0.31567676415470214
-0.3886284241686225,-0.3886284241686225
-0.3750910027227404,-0.3750910027227404
-0.3630577392152896,-0.3630577392152896
-0.31567676415470214,-0.31567676415470214
-0.18406294454195926,-0.18406294454195926
0.04156074622274287,0.04156074622274287
0.42888141536881486,0.42888141536881486
1.1711833579846849,1.1711833579846849
2.266210337162706,2.266210337162706
3.431932739447,3.431932739447
4.384064714474043,4.384064714474043
5.097787656259717,5.097787656259717
5.503158220666966,5.503158220666966
5.33544461053187,5.33544461053187
4.4367102423191405,4.4367102423191405
3.134861546606809,3.134861546606809
1.9533454859689854,1.9533454859689854
1.1711833579846849,1.1711833579846849
0.7455066614086134,0.7455066614086134
0.5770409723043025,0.5770409723043025
0.543949497658813,0.543949497658813
0.5168746547670486,0.5168746547670486
0.45069170547606935,0.45069170547606935
0.45746041619901046,0.45746041619901046
0.550718208381754,0.550718208381754
0.5770409723043025,0.5770409723043025
0.44542715269155964,0.44542715269155964
0.338631939062934,0.338631939062934
0.40857528319999165,0.40857528319999165
0.5770409723043025,0.5770409723043025
0.6695466855178305,0.6695466855178305
0.695869449440379,0.695869449440379
0.6462322374721445,0.6462322374721445
0.45746041619901046,0.45746041619901046
0.1325623014978394,0.1325623014978394
-0.07801980988254925,-0.07801980988254925
-0.07275525709803954,-0.07275525709803954
-0.017853492345295353,-0.017853492345295353
-0.10283841586666649,-0.10283841586666649
-0.1968482870186257,-0.1968482870186257
-0.14570691711195988,-0.14570691711195988
-0.017853492345295353,-0.017853492345295353
0.022006693023135352,0.022006693023135352
0.04156074622274287,0.04156074622274287
0.1460997229437215,0.1460997229437215
0.27921770049489575,0.27921770049489575
0.2874905691562682,0.2874905691562682
0.21980346192685754,0.21980346192685754
0.20701811945019108,0.20701811945019108
0.27921770049489575,0.27921770049489575
0.3296069914323459,0.3296069914323459
0.338631939062934,0.338631939062934
0.3446485708166594,0.3446485708166594
0.3980461776309722,0.3980461776309722
0.4920560487829314,0.4920560487829314
0.6364552108723408,0.6364552108723408
0.7785981360541031,0.7785981360541031
0.8741121651444936,0.8741121651444936
0.938038877527826,0.938038877527826
1.0523548808486083,1.0523548808486083
1.1576459365388028,1.1576459365388028
1.1117691194166466,1.1117691194166466
0.9026911659746892,0.9026911659746892
0.7552836880084173,0.7552836880084173
0.7928876364692009,0.7928876364692009
0.8741121651444936,0.8741121651444936
0.7838626888386129,0.7838626888386129
0.5770409723043025,0.5770409723043025
0.4559562582605791,0.4559562582605791
0.5168746547670486,0.5168746547670486
0.6507447112874386,0.6507447112874386
0.7552836880084173,0.7552836880084173
0.8139458476072398,0.8139458476072398
0.8741121651444936,0.8741121651444936
0.9365347195893946,0.9365347195893946
0.9929406422805701,0.9929406422805701
1.016255090326256,1.016255090326256
0.9929406422805701,0.9929406422805701
0.8959224552517482,0.8959224552517482
0.7552836880084173,0.7552836880084173
0.6304385791186154,0.6304385791186154
0.5770409723043025,0.5770409723043025
0.511610101982539,0.511610101982539
0.338631939062934,0.338631939062934
0.04607322003803691,0.04607322003803691
-0.1968482870186257,-0.1968482870186257
-0.30138726373960434,-0.30138726373960434
-0.31567676415470214,-0.31567676415470214
-0.3908846610762695,-0.3908846610762695
-0.49391947985881685,-0.49391947985881685
-0.5059527433662676,-0.5059527433662676
-0.3750910027227404,-0.3750910027227404
-0.2825852895092125,-0.2825852895092125
-0.3750910027227404,-0.3750910027227404
-0.5698794557495999,-0.5698794557495999
-0.6127479569948933,-0.6127479569948933
-0.47586958459764067,-0.47586958459764067
-0.3750910027227404,-0.3750910027227404
-0.442778109952151,-0.442778109952151
-0.4345052412907786,-0.4345052412907786
-0.02687843997588344,-0.02687843997588344
0.8146979265764555,0.8146979265764555
1.8194754294485955,1.8194754294485955
2.777624036229364,2.777624036229364
3.6500356405195453,3.6500356405195453
4.4434789530420815,4.4434789530420815
5.027844312122659,5.027844312122659
5.216616133395794,5.216616133395794
4.881940992094819,4.881940992094819
4.086241442664636,4.086241442664636
3.054389096900732,3.054389096900732
2.0639010944436893,2.0639010944436893
1.2463912549062521,1.2463912549062521
0.5770409723043025,0.5770409723043025
-0.013341018530001312,-0.013341018530001312
-0.49391947985881685,-0.49391947985881685
-0.8000156203295961,-0.8000156203295961
-0.9105712288043001,-0.9105712288043001
-0.897033807358418,-0.897033807358418
-0.8511569902362618,-0.8511569902362618
-0.8526611481746932,-0.8526611481746932
-0.9105712288043001,-0.9105712288043001
-0.9782583360337107,-0.9782583360337107
-0.9699854673723383,-0.9699854673723383
-0.8857526228201829,-0.8857526228201829
-0.7917427516682236,-0.7917427516682236
-0.7834698830068512,-0.7834698830068512
-0.8511569902362618,-0.8511569902362618
-0.9714896253107697,-0.9714896253107697
-1.0888139445084148,-1.0888139445084148
-1.185080052568021,-1.185080052568021
-1.2076424216444912,-1.2076424216444912
-1.1775592628758642,-1.1775592628758642
-1.148228183076453,-1.148228183076453
-1.1888404474140994,-1.1888404474140994
-1.2670566602125295,-1.2670566602125295
-1.3121813983654698,-1.3121813983654698
-1.2670566602125295,-1.2670566602125295
-1.1610135255531193,-1.1610135255531193
-1.0293997059403766,-1.0293997059403766
-0.8887609386970455,-0.8887609386970455
-0.7323285131001854,-0.7323285131001854
-0.6059792462719522,-0.6059792462719522
-0.5533337184268551,-0.5533337184268551
-0.5480691656423453,-0.5480691656423453
-0.49391947985881685,-0.49391947985881685
-0.3946450559223479,-0.3946450559223479
-0.3750910027227404,-0.3750910027227404
-0.5375400600733259,-0.5375400600733259
-0.7917427516682236,-0.7917427516682236
-0.9647209145878286,-0.9647209145878286
-0.9699854673723383,-0.9699854673723383
-0.8759755962203791,-0.8759755962203791
-0.7917427516682236,-0.7917427516682236
-0.8030239362064587,-0.8030239362064587
-0.9105712288043001,-0.9105712288043001
-1.04444128532469,-1.04444128532469
-1.0888139445084148,-1.0888139445084148
-1.0023248630486123,-1.0023248630486123
-0.8511569902362618,-0.8511569902362618
-0.7669241456841064,-0.7669241456841064
-0.7917427516682236,-0.7917427516682236
-0.8353633318827327,-0.8353633318827327
-0.7917427516682236,-0.7917427516682236
-0.7180390126850876,-0.7180390126850876
-0.7323285131001854,-0.7323285131001854
-0.7970073044527334,-0.7970073044527334
-0.7323285131001854,-0.7323285131001854
-0.5601024291497961,-0.5601024291497961
-0.49391947985881685,-0.49391947985881685
-0.6037230093643052,-0.6037230093643052
-0.6127479569948933,-0.6127479569948933
-0.3826117924148971,-0.3826117924148971
-0.1374340484505875,-0.1374340484505875
-0.19910452392627273,-0.19910452392627273
-0.49391947985881685,-0.49391947985881685
-0.7300722761925383,-0.7300722761925383
-0.7917427516682236,-0.7917427516682236
-0.8308508580674386,-0.8308508580674386
-0.9105712288043001,-0.9105712288043001
-0.903802518081359,-0.903802518081359
-0.7323285131001854,-0.7323285131001854
-0.6052271673027365,-0.6052271673027365
-0.7323285131001854,-0.7323285131001854
-0.9436627034497898,-0.9436627034497898
-0.7917427516682236,-0.7917427516682236
-0.12916117978921507,-0.12916117978921507
0.7552836880084173,0.7552836880084173
1.620174502606442,1.620174502606442
2.599381320525249,2.599381320525249
3.731260169194838,3.731260169194838
4.562307430178158,4.562307430178158
4.515678534086786,4.515678534086786
3.6101754551511145,3.6101754551511145
2.4354281052362325,2.4354281052362325
1.5284208683621299,1.5284208683621299
0.9636095624811588,0.9636095624811588
0.5770409723043025,0.5770409723043025
0.2807218584333271,0.2807218584333271
0.1009749847907811,0.1009749847907811
-0.020109729252942375,-0.020109729252942375
-0.1968482870186257,-0.1968482870186257
-0.44052187304450396,-0.44052187304450396
-0.6127479569948933,-0.6127479569948933
-0.6691538796860688,-0.6691538796860688
-0.7323285131001854,-0.7323285131001854
-0.8932734125123396,-0.8932734125123396
-1.0293997059403766,-1.0293997059403766
-1.0399288115093959,-1.0399288115093959
-1.0293997059403766,-1.0293997059403766
-1.1580052096762568,-1.1580052096762568
-1.3272229777497833,-1.3272229777497833
-1.3354958464111557,-1.3354958464111557
-1.148228183076453,-1.148228183076453
-0.9970603102641026,-0.9970603102641026
-1.0293997059403766,-1.0293997059403766
-1.187336289475668,-1.187336289475668
-1.2670566602125295,-1.2670566602125295
-1.194105000198609,-1.194105000198609
-1.0293997059403766,-1.0293997059403766
-0.8857526228201829,-0.8857526228201829
-0.7917427516682236,-0.7917427516682236
-0.7586512770227339,-0.7586512770227339
-0.7917427516682236,-0.7917427516682236
-0.873719359312732,-0.873719359312732
-0.9105712288043001,-0.9105712288043001
-0.8451403584825364,-0.8451403584825364
-0.7323285131001854,-0.7323285131001854
-0.691716248762539,-0.691716248762539
-0.7323285131001854,-0.7323285131001854
-0.7533867242382243,-0.7533867242382243
-0.6729142745321471,-0.6729142745321471
-0.5503254025499924,-0.5503254025499924
-0.49391947985881685,-0.49391947985881685
-0.5413004549194043,-0.5413004549194043
-0.6127479569948933,-0.6127479569948933
-0.652608142363324,-0.652608142363324
-0.6729142745321471,-0.6729142745321471
-0.7135265388697936,-0.7135265388697936
-0.7323285131001854,-0.7323285131001854
-0.6571206161786181,-0.6571206161786181
-0.49391947985881685,-0.49391947985881685
-0.36907437096901496,-0.36907437096901496
-0.3750910027227404,-0.3750910027227404
-0.4803820584129347,-0.4803820584129347
-0.5533337184268551,-0.5533337184268551
-0.5413004549194043,-0.5413004549194043
-0.49391947985881685,-0.49391947985881685
-0.46985295284391526,-0.46985295284391526
-0.4345052412907786,-0.4345052412907786
-0.35553694952313286,-0.35553694952313286
-0.2562625255866639,-0.2562625255866639
-0.18857541835725328,-0.18857541835725328
-0.1374340484505875,-0.1374340484505875
-0.08930099442078436,-0.08930099442078436
-0.07801980988254925,-0.07801980988254925
-0.14721107505039124,-0.14721107505039124
-0.2562625255866639,-0.2562625255866639
-0.34049537013881936,-0.34049537013881936
-0.3750910027227404,-0.3750910027227404
-0.38336387138411276,-0.38336387138411276
-0.3750910027227404,-0.3750910027227404
-0.3946450559223479,-0.3946450559223479
-0.49391947985881685,-0.49391947985881685
-0.6759225904090098,-0.6759225904090098
-0.8511569902362618,-0.8511569902362618
-0.9617125987109659,-0.9617125987109659
-1.0293997059403766,-1.0293997059403766
-1.1008472080158656,-1.1008472080158656
-1.148228183076453,-1.148228183076453
-1.1512364989533157,-1.1512364989533157
-1.148228183076453,-1.148228183076453
-1.2031299478291972,-1.2031299478291972
-1.2670566602125295,-1.2670566602125295
-1.239981817320765,-1.239981817320765
-1.0888139445084148,-1.0888139445084148
-0.9399023086037114,-0.9399023086037114
-0.9105712288043001,-0.9105712288043001
-0.9872832836642987,-0.9872832836642987
-1.0293997059403766,-1.0293997059403766
-0.9880353626335144,-0.9880353626335144
-0.9699854673723383,-0.9699854673723383
-1.1219054191539044,-1.1219054191539044
-1.3866372163178216,-1.3866372163178216
-1.5460779577915444,-1.5460779577915444
-1.4460514548858598,-1.4460514548858598
-1.2144111323674323,-1.2144111323674323
-1.0888139445084148,-1.0888139445084148
-1.1632697624607664,-1.1632697624607664
-1.2670566602125295,-1.2670566602125295
-1.2422380542284122,-1.2422380542284122
-1.0888139445084148,-1.0888139445084148
-0.9647209145878286,-0.9647209145878286
-0.9105712288043001,-0.9105712288043001
-0.8594298588976342,-0.8594298588976342
-0.7323285131001854,-0.7323285131001854
-0.6022188514258738,-0.6022188514258738
-0.5533337184268551,-0.5533337184268551
-0.5601024291497961,-0.5601024291497961
-0.49391947985881685,-0.49391947985881685
-0.3675702130305836,-0.3675702130305836
-0.31567676415470214,-0.31567676415470214
-0.3953971348915636,-0.3953971348915636
-0.4345052412907786,-0.4345052412907786
-0.25851876249431094,-0.25851876249431094
0.1603892233588193,0.1603892233588193
0.7710773463619464,0.7710773463619464
1.587835106930168,1.587835106930168
2.5474878716493676,2.5474878716493676
3.431932739447,3.431932739447
4.01780225646601,4.01780225646601
4.2644841583687505,4.2644841583687505
4.18476378763189,4.18476378763189
3.729756011256407,3.729756011256407
2.9137503296574008,2.9137503296574008
2.0044868558756512,2.0044868558756512
1.3441615209042899,1.3441615209042899
1.0523548808486083,1.0523548808486083
0.9327743247433162,0.9327743247433162
0.7552836880084173,0.7552836880084173
0.4732540745525396,0.4732540745525396
0.21980346192685754,0.21980346192685754
0.06863558911450712,0.06863558911450712
-0.017853492345295353,-0.017853492345295353
-0.11261544246647025,-0.11261544246647025
-0.1968482870186257,-0.1968482870186257
-0.25851876249431094,-0.25851876249431094
-0.31567676415470214,-0.31567676415470214
-0.37584308169195607,-0.37584308169195607
-0.3750910027227404,-0.3750910027227404
-0.34049537013881936,-0.34049537013881936
-0.3750910027227404,-0.3750910027227404
-0.5405483759501886,-0.5405483759501886
-0.6729142745321471,-0.6729142745321471
-0.6405748788558732,-0.6405748788558732
-0.49391947985881685,-0.49391947985881685
-0.4345052412907786,-0.4345052412907786
-0.49391947985881685,-0.49391947985881685
-0.5691273767803842,-0.5691273767803842
-0.5533337184268551,-0.5533337184268551
-0.4856466111974444,-0.4856466111974444
-0.4345052412907786,-0.4345052412907786
-0.4533072155211704,-0.4533072155211704
-0.49391947985881685,-0.49391947985881685
-0.477373742536072,-0.477373742536072
-0.3750910027227404,-0.3750910027227404
-0.3397432911696037,-0.3397432911696037
-0.49391947985881685,-0.49391947985881685
-0.6954766436086174,-0.6954766436086174
-0.6127479569948933,-0.6127479569948933
-0.21489818227980187,-0.21489818227980187
0.1603892233588193,0.1603892233588193
0.23108464646509264,0.23108464646509264
0.1603892233588193,0.1603892233588193
0.2062660404809754,0.2062660404809754
0.338631939062934,0.338631939062934
0.32885491246313026,0.32885491246313026
0.1603892233588193,0.1603892233588193
0.003956797761959183,0.003956797761959183
-0.017853492345295353,-0.017853492345295353
0.051337772822546625,0.051337772822546625
0.1603892233588193,0.1603892233588193
0.23785335718803371,0.23785335718803371
0.21980346192685754,0.21980346192685754
0.1092478534521535,0.1092478534521535
0.04156074622274287,0.04156074622274287
0.09345419509862436,0.09345419509862436
0.21980346192685754,0.21980346192685754
0.36645886092391394,0.36645886092391394
0.5770409723043025,0.5770409723043025
0.804168821007436,0.804168821007436
0.8741121651444936,0.8741121651444936
0.70263816016332,0.70263816016332
0.45746041619901046,0.45746041619901046
0.29952383266371896,0.29952383266371896
0.21980346192685754,0.21980346192685754
0.16715793408176038,0.16715793408176038
0.21980346192685754,0.21980346192685754
0.3581859922625415,0.3581859922625415
0.3980461776309722,0.3980461776309722
0.23710127821881805,0.23710127821881805
0.04156074622274287,0.04156074622274287
-0.08403644163627465,-0.08403644163627465
-0.2562625255866639,-0.2562625255866639
-0.5473170866731296,-0.5473170866731296
-0.7323285131001854,-0.7323285131001854
-0.652608142363324,-0.652608142363324
-0.49391947985881685,-0.49391947985881685
-0.5405483759501886,-0.5405483759501886
-0.7323285131001854,-0.7323285131001854
-0.8225779894060662,-0.8225779894060662
-0.7323285131001854,-0.7323285131001854
-0.6157562728717559,-0.6157562728717559
-0.5533337184268551,-0.5533337184268551
-0.4916632429511698,-0.4916632429511698
-0.3750910027227404,-0.3750910027227404
-0.2916102371398006,-0.2916102371398006
-0.31567676415470214,-0.31567676415470214
-0.39013258210705387,-0.39013258210705387
-0.3750910027227404,-0.3750910027227404
-0.3028914216780357,-0.3028914216780357
-0.31567676415470214,-0.31567676415470214
-0.4254802936601905,-0.4254802936601905
-0.4345052412907786,-0.4345052412907786
-0.29236231610901625,-0.29236231610901625
-0.1968482870186257,-0.1968482870186257
-0.2810811315707812,-0.2810811315707812
-0.3750910027227404,-0.3750910027227404
-0.3562890284923485,-0.3562890284923485
-0.3750910027227404,-0.3750910027227404
-0.578904403380188,-0.578904403380188
-0.7917427516682236,-0.7917427516682236
-0.827842542190576,-0.827842542190576
-0.7917427516682236,-0.7917427516682236
-0.8541653061131246,-0.8541653061131246
-0.9105712288043001,-0.9105712288043001
-0.8037760151756744,-0.8037760151756744
-0.6127479569948933,-0.6127479569948933
-0.5194901648121497,-0.5194901648121497
-0.49391947985881685,-0.49391947985881685
-0.4465385047982294,-0.4465385047982294
-0.4345052412907786,-0.4345052412907786
-0.5781523244109723,-0.5781523244109723
-0.7917427516682236,-0.7917427516682236
-0.9022983601429276,-0.9022983601429276
-0.8511569902362618,-0.8511569902362618
-0.7150306968082248,-0.7150306968082248
-0.5533337184268551,-0.5533337184268551
-0.45105097861352345,-0.45105097861352345
-0.49391947985881685,-0.49391947985881685
-0.6729142745321471,-0.6729142745321471
-0.7917427516682236,-0.7917427516682236
-0.7097661440237152,-0.7097661440237152
-0.49391947985881685,-0.49391947985881685
-0.32169339590842755,-0.32169339590842755
-0.2562625255866639,-0.2562625255866639
-0.28709776332450654,-0.28709776332450654
-0.3750910027227404,-0.3750910027227404
-0.44127395201371966,-0.44127395201371966
-0.3750910027227404,-0.3750910027227404
-0.23445223547940938,-0.23445223547940938
-0.1968482870186257,-0.1968482870186257
-0.29236231610901625,-0.29236231610901625
-0.31567676415470214,-0.31567676415470214
-0.18331086557274356,-0.18331086557274356
-0.07801980988254925,-0.07801980988254925
-0.13893820638901883,-0.13893820638901883
-0.1968482870186257,-0.1968482870186257
-0.09080515235921571,-0.09080515235921571
0.04156074622274287,0.04156074622274287
-0.0366554665756872,-0.0366554665756872
-0.2562625255866639,-0.2562625255866639
-0.3765951606611717,-0.3765951606611717
-0.31567676415470214,-0.31567676415470214
-0.21865857712588024,-0.21865857712588024
-0.1968482870186257,-0.1968482870186257
-0.24723757795607584,-0.24723757795607584
-0.31567676415470214,-0.31567676415470214
-0.38486802932254416,-0.38486802932254416
-0.4345052412907786,-0.4345052412907786
-0.48489453222822876,-0.48489453222822876
-0.5533337184268551,-0.5533337184268551
-0.6247812205023441,-0.6247812205023441
-0.6127479569948933,-0.6127479569948933
-0.5014402695509735,-0.5014402695509735
-0.3750910027227404,-0.3750910027227404
-0.37057852890744636,-0.37057852890744636
-0.49391947985881685,-0.49391947985881685
-0.6240291415331284,-0.6240291415331284
-0.6127479569948933,-0.6127479569948933
-0.4856466111974444,-0.4856466111974444
-0.3750910027227404,-0.3750910027227404
-0.3765951606611717,-0.3765951606611717
-0.4345052412907786,-0.4345052412907786
-0.49391947985881685,-0.49391947985881685
-0.5533337184268551,-0.5533337184268551
-0.6187645887486186,-0.6187645887486186
-0.6127479569948933,-0.6127479569948933
-0.509713138212346,-0.509713138212346
-0.3750910027227404,-0.3750910027227404
-0.2825852895092125,-0.2825852895092125
-0.1968482870186257,-0.1968482870186257
-0.10584673174352918,-0.10584673174352918
-0.07801980988254925,-0.07801980988254925
-0.16526097031156742,-0.16526097031156742
-0.2562625255866639,-0.2562625255866639
-0.22016273506431158,-0.22016273506431158
-0.07801980988254925,-0.07801980988254925
0.010725508484900247,0.010725508484900247
-0.017853492345295353,-0.017853492345295353
-0.10584673174352918,-0.10584673174352918
-0.1374340484505875,-0.1374340484505875
-0.11261544246647025,-0.11261544246647025
-0.07801980988254925,-0.07801980988254925
-0.12615286391235236,-0.12615286391235236
-0.2562625255866639,-0.2562625255866639
-0.41570326706038674,-0.41570326706038674
-0.49391947985881685,-0.49391947985881685
-0.4713571107823466,-0.4713571107823466
-0.3750910027227404,-0.3750910027227404
-0.23821263032548776,-0.23821263032548776
-0.07801980988254925,-0.07801980988254925
-0.022365966160589397,-0.022365966160589397
-0.1968482870186257,-0.1968482870186257
-0.5044485854278362,-0.5044485854278362
-0.6127479569948933,-0.6127479569948933
-0.34124744910803506,-0.34124744910803506
0.21980346192685754,0.21980346192685754
0.9606012466042961,0.9606012466042961
1.9450726173076132,1.9450726173076132
3.0852243346385744,3.0852243346385744
4.026827204096598,4.026827204096598
4.474314190779924,4.474314190779924
4.502893191610119,4.502893191610119
4.235905157538555,4.235905157538555
3.6101754551511145,3.6101754551511145
2.612166663001916,2.612166663001916
1.587835106930168,1.587835106930168
0.9094598766976304,0.9094598766976304
0.5770409723043025,0.5770409723043025
0.3123091751403854,0.3123091751403854
0.04156074622274287,0.04156074622274287
-0.07501149400568656,-0.07501149400568656
0.04156074622274287,0.04156074622274287
0.16866209202019172,0.16866209202019172
0.1009749847907811,0.1009749847907811
-0.07200317812882387,-0.07200317812882387
-0.07801980988254925,-0.07801980988254925
0.07540429983744819,0.07540429983744819
0.1009749847907811,0.1009749847907811
-0.14194652226588153,-0.14194652226588153
-0.3750910027227404,-0.3750910027227404
-0.3562890284923485,-0.3562890284923485
-0.1968482870186257,-0.1968482870186257
-0.17879839175744952,-0.17879839175744952
-0.2562625255866639,-0.2562625255866639
-0.22166689300274292,-0.22166689300274292
-0.017853492345295353,-0.017853492345295353
0.14459556500529017,0.14459556500529017
0.1603892233588193,0.1603892233588193
0.10247914272921244,0.10247914272921244
0.1009749847907811,0.1009749847907811
0.13632269634391775,0.13632269634391775
0.1603892233588193,0.1603892233588193
0.1694141709894074,0.1694141709894074
0.21980346192685754,0.21980346192685754
0.26041572626450393,0.26041572626450393
0.21980346192685754,0.21980346192685754
0.14233932809764316,0.14233932809764316
0.21980346192685754,0.21980346192685754
0.47551031146018663,0.47551031146018663
0.695869449440379,0.695869449440379
0.6860924228405753,0.6860924228405753
0.5770409723043025,0.5770409723043025
0.5913304727194003,0.5913304727194003
0.7552836880084173,0.7552836880084173
0.8793767179290034,0.8793767179290034
0.8741121651444936,0.8741121651444936
0.7801022939925345,0.7801022939925345
0.695869449440379,0.695869449440379
0.656761343041164,0.656761343041164
0.695869449440379,0.695869449440379
0.7846147678078285,0.7846147678078285
0.8741121651444936,0.8741121651444936
0.9132202715437087,0.9132202715437087
0.9335264037125319,0.9335264037125319
0.947063825158414,0.947063825158414
0.9335264037125319,0.9335264037125319
0.8492935591603764,0.8492935591603764
0.7552836880084173,0.7552836880084173
0.7500191352239075,0.7500191352239075
0.8741121651444936,0.8741121651444936
0.9974531160958642,0.9974531160958642
0.9929406422805701,0.9929406422805701
0.8899058234980228,0.8899058234980228
0.8741121651444936,0.8741121651444936
0.9959489581574328,0.9959489581574328
1.1117691194166466,1.1117691194166466
1.0508507229101771,1.0508507229101771
0.8741121651444936,0.8741121651444936
0.7507712141931232,0.7507712141931232
0.7552836880084173,0.7552836880084173
0.765060714608221,0.765060714608221
0.695869449440379,0.695869449440379
0.6086282890113609,0.6086282890113609
0.6364552108723408,0.6364552108723408
0.7206880554244962,0.7206880554244962
0.695869449440379,0.695869449440379
0.4973206015674411,0.4973206015674411
0.27921770049489575,0.27921770049489575
0.14233932809764316,0.14233932809764316
0.04156074622274287,0.04156074622274287
-0.08478852060549032,-0.08478852060549032
-0.1374340484505875,-0.1374340484505875
-0.07501149400568656,-0.07501149400568656
-0.017853492345295353,-0.017853492345295353
-0.09531762617450974,-0.09531762617450974
-0.1968482870186257,-0.1968482870186257
-0.17804631278823385,-0.17804631278823385
-0.07801980988254925,-0.07801980988254925
-0.07726773091333358,-0.07726773091333358
-0.1968482870186257,-0.1968482870186257
-0.3104122113701924,-0.3104122113701924
-0.31567676415470214,-0.31567676415470214
-0.2863456843552909,-0.2863456843552909
-0.31567676415470214,-0.31567676415470214
-0.40216584561450464,-0.40216584561450464
-0.4345052412907786,-0.4345052412907786
-0.37057852890744636,-0.37057852890744636
-0.2562625255866639,-0.2562625255866639
-0.1622526544347047,-0.1622526544347047
-0.07801980988254925,-0.07801980988254925
-0.015597255437648333,-0.015597255437648333
-0.017853492345295353,-0.017853492345295353
-0.09005307339000003,-0.09005307339000003
-0.1374340484505875,-0.1374340484505875
-0.14570691711195988,-0.14570691711195988
-0.1968482870186257,-0.1968482870186257
-0.3194371590007805,-0.3194371590007805
-0.3750910027227404,-0.3750910027227404
-0.29837894786274166,-0.29837894786274166
-0.1968482870186257,-0.1968482870186257
-0.18707126041882194,-0.18707126041882194
-0.1968482870186257,-0.1968482870186257
-0.16526097031156742,-0.16526097031156742
-0.1968482870186257,-0.1968482870186257
-0.4232240567525435,-0.4232240567525435
-0.7323285131001854,-0.7323285131001854
-0.8850005438509672,-0.8850005438509672
-0.7917427516682236,-0.7917427516682236
-0.6074834042103836,-0.6074834042103836
-0.49391947985881685,-0.49391947985881685
-0.481886216351366,-0.481886216351366
-0.49391947985881685,-0.49391947985881685
-0.5127214540892087,-0.5127214540892087
-0.5533337184268551,-0.5533337184268551
-0.6119958780256776,-0.6119958780256776
-0.6127479569948933,-0.6127479569948933
-0.5443087707962669,-0.5443087707962669
-0.49391947985881685,-0.49391947985881685
-0.5886814299799917,-0.5886814299799917
-0.7917427516682236,-0.7917427516682236
-0.9263648871578292,-0.9263648871578292
-0.8511569902362618,-0.8511569902362618
-0.6458394316403829,-0.6458394316403829
-0.49391947985881685,-0.49391947985881685
-0.477373742536072,-0.477373742536072
-0.49391947985881685,-0.49391947985881685
-0.4660925579978369,-0.4660925579978369
-0.4345052412907786,-0.4345052412907786
-0.47887790047450335,-0.47887790047450335
-0.5533337184268551,-0.5533337184268551
-0.5646149029650902,-0.5646149029650902
-0.49391947985881685,-0.49391947985881685
-0.4345052412907786,-0.4345052412907786
-0.4345052412907786,-0.4345052412907786
-0.46985295284391526,-0.46985295284391526
-0.49391947985881685,-0.49391947985881685
-0.5322755072888162,-0.5322755072888162
-0.6127479569948933,-0.6127479569948933
-0.7180390126850876,-0.7180390126850876
-0.7917427516682236,-0.7917427516682236
-0.857925700959203,-0.857925700959203
-0.9699854673723383,-0.9699854673723383
-1.0978388921390028,-1.0978388921390028
-1.0888139445084148,-1.0888139445084148
-0.8834963859125358,-0.8834963859125358
-0.6127479569948933,-0.6127479569948933
-0.477373742536072,-0.477373742536072
-0.49391947985881685,-0.49391947985881685
-0.5352838231656789,-0.5352838231656789
-0.49391947985881685,-0.49391947985881685
-0.4141991091219554,-0.4141991091219554
-0.3750910027227404,-0.3750910027227404
-0.43600939922920995,-0.43600939922920995
-0.5533337184268551,-0.5533337184268551
-0.6661455638092061,-0.6661455638092061
-0.6729142745321471,-0.6729142745321471
-0.5751440085341096,-0.5751440085341096
-0.4345052412907786,-0.4345052412907786
-0.3600494233384269,-0.3600494233384269
-0.3750910027227404,-0.3750910027227404
-0.45029889964430775,-0.45029889964430775
-0.49391947985881685,-0.49391947985881685
-0.442778109952151,-0.442778109952151
-0.31567676415470214,-0.31567676415470214
-0.2908581581705849,-0.2908581581705849
-0.49391947985881685,-0.49391947985881685
-0.7729407774378317,-0.7729407774378317
-0.7323285131001854,-0.7323285131001854
-0.16902136515764576,-0.16902136515764576
0.7552836880084173,0.7552836880084173
1.7465237694346751,1.7465237694346751
2.7182097976613258,2.7182097976613258
3.659812667119349,3.659812667119349
4.4434789530420815,4.4434789530420815
4.836816253941879,4.836816253941879
4.740550145882272,4.740550145882272
4.190780419385614,4.190780419385614
3.3131042623109237,3.3131042623109237
2.2917810221160386,2.2917810221160386
1.4095923912260533,1.4095923912260533
0.8763684020521407,0.8763684020521407
0.695869449440379,0.695869449440379
0.6537530271643013,0.6537530271643013
0.5770409723043025,0.5770409723043025
0.45746041619901046,0.45746041619901046
0.3980461776309722,0.3980461776309722
0.3679630188623453,0.3679630188623453
0.27921770049489575,0.27921770049489575
0.17618288171234847,0.17618288171234847
0.21980346192685754,0.21980346192685754
0.3243424386478362,0.3243424386478362
0.21980346192685754,0.21980346192685754
-0.1081029686511762,-0.1081029686511762
-0.2562625255866639,-0.2562625255866639
-0.053953282867647695,-0.053953282867647695
0.1603892233588193,0.1603892233588193
0.004708876731174857,0.004708876731174857
-0.31567676415470214,-0.31567676415470214
-0.40442208252215167,-0.40442208252215167
-0.1968482870186257,-0.1968482870186257
0.045321141068821236,0.045321141068821236
0.21980346192685754,0.21980346192685754
0.34840896566273777,0.34840896566273777
0.3980461776309722,0.3980461776309722
0.30854878029430705,0.30854878029430705
0.21980346192685754,0.21980346192685754
0.26568027904901365,0.26568027904901365
0.3980461776309722,0.3980461776309722
0.44693131062999103,0.44693131062999103
0.3980461776309722,0.3980461776309722
0.30930085926352274,0.30930085926352274
0.21980346192685754,0.21980346192685754
0.14309140706685883,0.14309140706685883
0.1603892233588193,0.1603892233588193
0.25966364729528824,0.25966364729528824
0.338631939062934,0.338631939062934
0.34239233390901236,0.34239233390901236
0.3980461776309722,0.3980461776309722
0.5680160246737145,0.5680160246737145
0.7552836880084173,0.7552836880084173
0.83650821668371,0.83650821668371
0.8741121651444936,0.8741121651444936
0.9350305616509632,0.9350305616509632
0.9929406422805701,0.9929406422805701
1.0057259847572366,1.0057259847572366
1.0523548808486083,1.0523548808486083
1.1298190146778226,1.1298190146778226
1.1117691194166466,1.1117691194166466
0.94255135134312,0.94255135134312
0.8146979265764555,0.8146979265764555
0.868847612359984,0.868847612359984
0.9929406422805701,0.9929406422805701
0.9824115367115507,0.9824115367115507
0.8741121651444936,0.8741121651444936
0.8244749531762592,0.8244749531762592
0.8741121651444936,0.8741121651444936
0.9064515608207676,0.9064515608207676
0.8741121651444936,0.8741121651444936
0.8101854527611614,0.8101854527611614
0.7552836880084173,0.7552836880084173
0.6815799490252812,0.6815799490252812
0.5770409723043025,0.5770409723043025
0.4160960728921484,0.4160960728921484
0.21980346192685754,0.21980346192685754
0.04607322003803691,0.04607322003803691
-0.017853492345295353,-0.017853492345295353
-0.01860557131451103,-0.01860557131451103
-0.07801980988254925,-0.07801980988254925
-0.2562625255866639,-0.2562625255866639
-0.4345052412907786,-0.4345052412907786
-0.507456901304699,-0.507456901304699
-0.49391947985881685,-0.49391947985881685
-0.5089610592431303,-0.5089610592431303
-0.5533337184268551,-0.5533337184268551
-0.5608545081190118,-0.5608545081190118
-0.49391947985881685,-0.49391947985881685
-0.44954682067509205,-0.44954682067509205
-0.49391947985881685,-0.49391947985881685
-0.587929351010776,-0.587929351010776
-0.6127479569948933,-0.6127479569948933
-0.5683752978111685,-0.5683752978111685
-0.5533337184268551,-0.5533337184268551
-0.6556164582401867,-0.6556164582401867
-0.7917427516682236,-0.7917427516682236
-0.8308508580674386,-0.8308508580674386
-0.7323285131001854,-0.7323285131001854
-0.6097396411180306,-0.6097396411180306
-0.5533337184268551,-0.5533337184268551
-0.5443087707962669,-0.5443087707962669
-0.49391947985881685,-0.49391947985881685
-0.4149511880911711,-0.4149511880911711
-0.3750910027227404,-0.3750910027227404
-0.39013258210705387,-0.39013258210705387
-0.3750910027227404,-0.3750910027227404
-0.31868508003156487,-0.31868508003156487
-0.31567676415470214,-0.31567676415470214
-0.4457864258290137,-0.4457864258290137
-0.6127479569948933,-0.6127479569948933
-0.6759225904090098,-0.6759225904090098
-0.6127479569948933,-0.6127479569948933
-0.5495733235807767,-0.5495733235807767
-0.5533337184268551,-0.5533337184268551
-0.5638628239958745,-0.5638628239958745
-0.49391947985881685,-0.49391947985881685
-0.4111907932450927,-0.4111907932450927
-0.4345052412907786,-0.4345052412907786
-0.5570941132729335,-0.5570941132729335
-0.6127479569948933,-0.6127479569948933
-0.5518295604884237,-0.5518295604884237
-0.49391947985881685,-0.49391947985881685
-0.5300192703811691,-0.5300192703811691
-0.5533337184268551,-0.5533337184268551
-0.5059527433662676,-0.5059527433662676
-0.49391947985881685,-0.49391947985881685
-0.6119958780256776,-0.6119958780256776
-0.7323285131001854,-0.7323285131001854
-0.7466180135152832,-0.7466180135152832
-0.7323285131001854,-0.7323285131001854
-0.7842219619760669,-0.7842219619760669
-0.7917427516682236,-0.7917427516682236
-0.6608810110246964,-0.6608810110246964
-0.49391947985881685,-0.49391947985881685
-0.44052187304450396,-0.44052187304450396
-0.4345052412907786,-0.4345052412907786
-0.3600494233384269,-0.3600494233384269
-0.2562625255866639,-0.2562625255866639
-0.2525021307405856,-0.2525021307405856
-0.31567676415470214,-0.31567676415470214
-0.31266844827783946,-0.31266844827783946
-0.1968482870186257,-0.1968482870186257
-0.07425941503647088,-0.07425941503647088
-0.017853492345295353,-0.017853492345295353
-0.01484517646843266,-0.01484517646843266
-0.017853492345295353,-0.017853492345295353
-0.053953282867647695,-0.053953282867647695
-0.1374340484505875,-0.1374340484505875
-0.21865857712588024,-0.21865857712588024
-0.1968482870186257,-0.1968482870186257
-0.08403644163627465,-0.08403644163627465
-0.017853492345295353,-0.017853492345295353
-0.13893820638901883,-0.13893820638901883
-0.3750910027227404,-0.3750910027227404
-0.5149776909968556,-0.5149776909968556
-0.4345052412907786,-0.4345052412907786
-0.2810811315707812,-0.2810811315707812
-0.2562625255866639,-0.2562625255866639
-0.3608015023076426,-0.3608015023076426
-0.3750910027227404,-0.3750910027227404
-0.20737739258764512,-0.20737739258764512
-0.017853492345295353,-0.017853492345295353
-0.02462220306823642,-0.02462220306823642
-0.1968482870186257,-0.1968482870186257
-0.3525286336462702,-0.3525286336462702
-0.3750910027227404,-0.3750910027227404
-0.3104122113701924,-0.3104122113701924
-0.1968482870186257,-0.1968482870186257
-0.033647150698824506,-0.033647150698824506
0.1603892233588193,0.1603892233588193
0.269440673895092,0.269440673895092
0.21980346192685754,0.21980346192685754
0.06863558911450712,0.06863558911450712
-0.017853492345295353,-0.017853492345295353
0.0001964029158808147,0.0001964029158808147
0.04156074622274287,0.04156074622274287
-0.0020598339917662065,-0.0020598339917662065
-0.07801980988254925,-0.07801980988254925
-0.12615286391235236,-0.12615286391235236
-0.1374340484505875,-0.1374340484505875
-0.17052552309607713,-0.17052552309607713
-0.1968482870186257,-0.1968482870186257
-0.21339402434137053,-0.21339402434137053
-0.2562625255866639,-0.2562625255866639
-0.34049537013881936,-0.34049537013881936
-0.3750910027227404,-0.3750910027227404
-0.3525286336462702,-0.3525286336462702
-0.3750910027227404,-0.3750910027227404
-0.4811341373821504,-0.4811341373821504
-0.49391947985881685,-0.49391947985881685
-0.27882489466313415,-0.27882489466313415
0.1603892233588193,0.1603892233588193
0.8192104003917495,0.8192104003917495
1.7660778226342828,1.7660778226342828
2.818988379536226,2.818988379536226
3.6101754551511145,3.6101754551511145
4.036604230696402,4.036604230696402
4.384064714474043,4.384064714474043
4.675119275560509,4.675119275560509
4.4434789530420815,4.4434789530420815
3.3875600802632753,3.3875600802632753
2.0044868558756512,2.0044868558756512
1.0440820121872358,1.0440820121872358
0.695869449440379,0.695869449440379
0.5710243405505772,0.5710243405505772
0.3980461776309722,0.3980461776309722
0.23033256749587697,0.23033256749587697
0.1603892233588193,0.1603892233588193
0.08518132643725194,0.08518132643725194
-0.07801980988254925,-0.07801980988254925
-0.2479896569252915,-0.2479896569252915
-0.2562625255866639,-0.2562625255866639
-0.10434257380509783,-0.10434257380509783
0.04156074622274287,0.04156074622274287
0.011477587454115921,0.011477587454115921
-0.1374340484505875,-0.1374340484505875
-0.24347718310999747,-0.24347718310999747
-0.1968482870186257,-0.1968482870186257
-0.08854891545156869,-0.08854891545156869
-0.017853492345295353,-0.017853492345295353
-0.03590338760647152,-0.03590338760647152
-0.07801980988254925,-0.07801980988254925
-0.10885504762039187,-0.10885504762039187
-0.07801980988254925,-0.07801980988254925
0.016742140238625636,0.016742140238625636
0.1603892233588193,0.1603892233588193
0.2679365159566607,0.2679365159566607
0.27921770049489575,0.27921770049489575
0.18746406625058357,0.18746406625058357
0.1009749847907811,0.1009749847907811
0.10849577448293783,0.10849577448293783
0.21980346192685754,0.21980346192685754
0.32283828070940485,0.32283828070940485
0.338631939062934,0.338631939062934
0.2754573056488174,0.2754573056488174
0.21980346192685754,0.21980346192685754
0.1867119872813679,0.1867119872813679
0.1603892233588193,0.1603892233588193
0.1468518019129372,0.1468518019129372
0.21980346192685754,0.21980346192685754
0.3589380712317572,0.3589380712317572
0.45746041619901046,0.45746041619901046
0.4243689415535208,0.4243689415535208
0.338631939062934,0.338631939062934
0.30253214854058164,0.30253214854058164
0.338631939062934,0.338631939062934
0.3867649930927371,0.3867649930927371
0.45746041619901046,0.45746041619901046
0.5574869191046951,0.5574869191046951
0.6364552108723408,0.6364552108723408
0.5958429465346944,0.5958429465346944
0.45746041619901046,0.45746041619901046
0.32885491246313026,0.32885491246313026
0.338631939062934,0.338631939062934
0.5221392075515584,0.5221392075515584
0.8146979265764555,0.8146979265764555
1.0320487486797851,1.0320487486797851
1.0523548808486083,1.0523548808486083
0.949320062066061,0.949320062066061
0.9335264037125319,0.9335264037125319
1.0275362748644912,1.0275362748644912
1.0523548808486083,1.0523548808486083
0.9026911659746892,0.9026911659746892
0.7552836880084173,0.7552836880084173
0.7703252673927307,0.7703252673927307
0.8741121651444936,0.8741121651444936
0.8703517702984153,0.8703517702984153
0.7552836880084173,0.7552836880084173
0.6274302632417527,0.6274302632417527
0.5168746547670486,0.5168746547670486
0.35743391329332586,0.35743391329332586
0.1603892233588193,0.1603892233588193
-0.031390913791177484,-0.031390913791177484
-0.1968482870186257,-0.1968482870186257
-0.3457599229233291,-0.3457599229233291
-0.4345052412907786,-0.4345052412907786
-0.46458840005940555,-0.46458840005940555
-0.49391947985881685,-0.49391947985881685
-0.5721356926572468,-0.5721356926572468
-0.6127479569948933,-0.6127479569948933
-0.5397962969809729,-0.5397962969809729
-0.3750910027227404,-0.3750910027227404
-0.24197302517156613,-0.24197302517156613
-0.1968482870186257,-0.1968482870186257
-0.23670847238705642,-0.23670847238705642
-0.31567676415470214,-0.31567676415470214
-0.4149511880911711,-0.4149511880911711
-0.49391947985881685,-0.49391947985881685
-0.5458129287346983,-0.5458129287346983
-0.5533337184268551,-0.5533337184268551
-0.5194901648121497,-0.5194901648121497
-0.4345052412907786,-0.4345052412907786
-0.3630577392152896,-0.3630577392152896
-0.3750910027227404,-0.3750910027227404
-0.475117505628425,-0.475117505628425
-0.5533337184268551,-0.5533337184268551
-0.5473170866731296,-0.5473170866731296
-0.49391947985881685,-0.49391947985881685
-0.4766216635668563,-0.4766216635668563
-0.49391947985881685,-0.49391947985881685
-0.5209943227505811,-0.5209943227505811
-0.5533337184268551,-0.5533337184268551
-0.6044750883335208,-0.6044750883335208
-0.6127479569948933,-0.6127479569948933
-0.516481848935287,-0.516481848935287
-0.31567676415470214,-0.31567676415470214
-0.11637583731254861,-0.11637583731254861
-0.017853492345295353,-0.017853492345295353
-0.06297823049823578,-0.06297823049823578
-0.1968482870186257,-0.1968482870186257
-0.3284621066313686,-0.3284621066313686
-0.3750910027227404,-0.3750910027227404
-0.34500784395411344,-0.34500784395411344
-0.31567676415470214,-0.31567676415470214
-0.3893805031378382,-0.3893805031378382
-0.5533337184268551,-0.5533337184268551
-0.6872037749472449,-0.6872037749472449
-0.6729142745321471,-0.6729142745321471
-0.5751440085341096,-0.5751440085341096
-0.5533337184268551,-0.5533337184268551
-0.6571206161786181,-0.6571206161786181
-0.7323285131001854,-0.7323285131001854
-0.6699059586552845,-0.6699059586552845
-0.5533337184268551,-0.5533337184268551
-0.5698794557495999,-0.5698794557495999
-0.7323285131001854,-0.7323285131001854
-0.8910171756046925,-0.8910171756046925
-0.9105712288043001,-0.9105712288043001
-0.8443882795133207,-0.8443882795133207
-0.7917427516682236,-0.7917427516682236
-0.7594033559919496,-0.7594033559919496
-0.6729142745321471,-0.6729142745321471
-0.581160640287835,-0.581160640287835
-0.6127479569948933,-0.6127479569948933
-0.7714366194994005,-0.7714366194994005
-0.8511569902362618,-0.8511569902362618
-0.724055644438813,-0.724055644438813
-0.49391947985881685,-0.49391947985881685
-0.3427516070464664,-0.3427516070464664
-0.2562625255866639,-0.2562625255866639
-0.11487167937411727,-0.11487167937411727
0.1009749847907811,0.1009749847907811
0.25740741038764126,0.25740741038764126
0.27921770049489575,0.27921770049489575
0.21980346192685754,0.21980346192685754
0.1603892233588193,0.1603892233588193
0.07164390499136981,0.07164390499136981
-0.07801980988254925,-0.07801980988254925
-0.20812947155686082,-0.20812947155686082
-0.1968482870186257,-0.1968482870186257
-0.1284091008199994,-0.1284091008199994
-0.1968482870186257,-0.1968482870186257
-0.4239761357217592,-0.4239761357217592
-0.5533337184268551,-0.5533337184268551
-0.4856466111974444,-0.4856466111974444
-0.4345052412907786,-0.4345052412907786
-0.6646414058707748,-0.6646414058707748
-1.0293997059403766,-1.0293997059403766
-1.1858321315372367,-1.1858321315372367
-1.0293997059403766,-1.0293997059403766
-0.8421320426056738,-0.8421320426056738
-0.8511569902362618,-0.8511569902362618
-0.9541918090188092,-0.9541918090188092
-0.9105712288043001,-0.9105712288043001
-0.7887344357913609,-0.7887344357913609
-0.8511569902362618,-0.8511569902362618
-1.081293154816258,-1.081293154816258
-1.0293997059403766,-1.0293997059403766
-0.38787634519940684,-0.38787634519940684
0.6364552108723408,0.6364552108723408
1.6254390553909517,1.6254390553909517
2.4805528433891726,2.4805528433891726
3.283773182511512,3.283773182511512
3.9674129655285597,3.9674129655285597
4.305848501675613,4.305848501675613
4.205069919800713,4.205069919800713
3.678614641349741,3.678614641349741
2.777624036229364,2.777624036229364
1.6788366622052646,1.6788366622052646
0.7552836880084173,0.7552836880084173
0.2468783048186218,0.2468783048186218
0.04156074622274287,0.04156074622274287
-0.1426986012350972,-0.1426986012350972
-0.3750910027227404,-0.3750910027227404
-0.5367879811041102,-0.5367879811041102
-0.5533337184268551,-0.5533337184268551
-0.5134735330584244,-0.5134735330584244
-0.49391947985881685,-0.49391947985881685
-0.47286126872077794,-0.47286126872077794
-0.3750910027227404,-0.3750910027227404
-0.2427251041407818,-0.2427251041407818
-0.1968482870186257,-0.1968482870186257
-0.3141726062162708,-0.3141726062162708
-0.49391947985881685,-0.49391947985881685
-0.6165083518409716,-0.6165083518409716
-0.6127479569948933,-0.6127479569948933
-0.5262588755350908,-0.5262588755350908
-0.3750910027227404,-0.3750910027227404
-0.24046886723313476,-0.24046886723313476
-0.1968482870186257,-0.1968482870186257
-0.2750644998170558,-0.2750644998170558
-0.3750910027227404,-0.3750910027227404
-0.44428226789058234,-0.44428226789058234
-0.49391947985881685,-0.49391947985881685
-0.5232505596582281,-0.5232505596582281
-0.4345052412907786,-0.4345052412907786
-0.23595639341784075,-0.23595639341784075
-0.07801980988254925,-0.07801980988254925
-0.08102812575941194,-0.08102812575941194
-0.1374340484505875,-0.1374340484505875
-0.09757386308215676,-0.09757386308215676
0.04156074622274287,0.04156074622274287
0.14008309118999612,0.14008309118999612
0.1603892233588193,0.1603892233588193
0.16565377614332905,0.16565377614332905
0.21980346192685754,0.21980346192685754
0.267184436987445,0.267184436987445
0.27921770049489575,0.27921770049489575
0.3123091751403854,0.3123091751403854
0.45746041619901046,0.45746041619901046
0.6379593688107721,0.6379593688107721
0.695869449440379,0.695869449440379
0.5800492881811653,0.5800492881811653
0.45746041619901046,0.45746041619901046
0.4552041792913634,0.4552041792913634
0.5168746547670486,0.5168746547670486
0.5063455491980292,0.5063455491980292
0.45746041619901046,0.45746041619901046
0.4935602067213628,0.4935602067213628
0.6364552108723408,0.6364552108723408
0.7206880554244962,0.7206880554244962
0.6364552108723408,0.6364552108723408
0.45971665310665744,0.45971665310665744
0.3980461776309722,0.3980461776309722
0.5274037603360681,0.5274037603360681
0.7552836880084173,0.7552836880084173
0.9252535350511595,0.9252535350511595
0.9929406422805701,0.9929406422805701
0.9636095624811588,0.9636095624811588
0.8741121651444936,0.8741121651444936
0.7785981360541031,0.7785981360541031
0.7552836880084173,0.7552836880084173
0.7387379506856724,0.7387379506856724
0.5770409723043025,0.5770409723043025
0.22882840955744563,0.22882840955744563
-0.07801980988254925,-0.07801980988254925
-0.12690494288156803,-0.12690494288156803
0.04156074622274287,0.04156074622274287
0.18069535552764251,0.18069535552764251
0.1603892233588193,0.1603892233588193
0.02952748271529209,0.02952748271529209
-0.07801980988254925,-0.07801980988254925
-0.09606970514372543,-0.09606970514372543
-0.017853492345295353,-0.017853492345295353
0.06412311529921308,0.06412311529921308
0.04156074622274287,0.04156074622274287
-0.1254007849431367,-0.1254007849431367
-0.31567676415470214,-0.31567676415470214
-0.40743039839901435,-0.40743039839901435
-0.3750910027227404,-0.3750910027227404
-0.3134205272470551,-0.3134205272470551
-0.31567676415470214,-0.31567676415470214
-0.4660925579978369,-0.4660925579978369
-0.7323285131001854,-0.7323285131001854
-0.9421585455113584,-0.9421585455113584
-0.9105712288043001,-0.9105712288043001
-0.730824355161754,-0.730824355161754
-0.6729142745321471,-0.6729142745321471
-0.8143051207446939,-0.8143051207446939
-0.9105712288043001,-0.9105712288043001
-0.8225779894060662,-0.8225779894060662
-0.7323285131001854,-0.7323285131001854
-0.8361154108519484,-0.8361154108519484
-0.9699854673723383,-0.9699854673723383
-0.8797359910664574,-0.8797359910664574
-0.6127479569948933,-0.6127479569948933
-0.46458840005940555,-0.46458840005940555
-0.5533337184268551,-0.5533337184268551
-0.7571471190843027,-0.7571471190843027
-0.9105712288043001,-0.9105712288043001
-0.9790104150029264,-0.9790104150029264
-0.9699854673723383,-0.9699854673723383
-0.9022983601429276,-0.9022983601429276
-0.7917427516682236,-0.7917427516682236
-0.6834433801011666,-0.6834433801011666
-0.6127479569948933,-0.6127479569948933
-0.6277895363792068,-0.6277895363792068
-0.7323285131001854,-0.7323285131001854
-0.864694411682144,-0.864694411682144
-0.9105712288043001,-0.9105712288043001
-0.8413799636364581,-0.8413799636364581
-0.7323285131001854,-0.7323285131001854
-0.693972485670186,-0.693972485670186
-0.7323285131001854,-0.7323285131001854
-0.7684283036225378,-0.7684283036225378
-0.7323285131001854,-0.7323285131001854
-0.6714101165937159,-0.6714101165937159
-0.6729142745321471,-0.6729142745321471
-0.7481221714537145,-0.7481221714537145
-0.7917427516682236,-0.7917427516682236
-0.7345847500078324,-0.7345847500078324
-0.6127479569948933,-0.6127479569948933
-0.5232505596582281,-0.5232505596582281
-0.49391947985881685,-0.49391947985881685
-0.5307713493503848,-0.5307713493503848
-0.6127479569948933,-0.6127479569948933
-0.6751705114397942,-0.6751705114397942
-0.6127479569948933,-0.6127479569948933
-0.46383632109018985,-0.46383632109018985
-0.3750910027227404,-0.3750910027227404
-0.40818247736823,-0.40818247736823
-0.4345052412907786,-0.4345052412907786
-0.3916367400454852,-0.3916367400454852
-0.3750910027227404,-0.3750910027227404
-0.45029889964430775,-0.45029889964430775
-0.49391947985881685,-0.49391947985881685
-0.4608280052133272,-0.4608280052133272
-0.49391947985881685,-0.49391947985881685
-0.6766746693782255,-0.6766746693782255
-0.7917427516682236,-0.7917427516682236
-0.6300457732868537,-0.6300457732868537
-0.31567676415470214,-0.31567676415470214
-0.1660130492807831,-0.1660130492807831
-0.2562625255866639,-0.2562625255866639
-0.38787634519940684,-0.38787634519940684
-0.3750910027227404,-0.3750910027227404
-0.265287473217252,-0.265287473217252
-0.1968482870186257,-0.1968482870186257
-0.2374605513562721,-0.2374605513562721
-0.31567676415470214,-0.31567676415470214
-0.336734975292741,-0.336734975292741
-0.2562625255866639,-0.2562625255866639
-0.1426986012350972,-0.1426986012350972
-0.07801980988254925,-0.07801980988254925
-0.10359049483588216,-0.10359049483588216
-0.1968482870186257,-0.1968482870186257
-0.34500784395411344,-0.34500784395411344
-0.49391947985881685,-0.49391947985881685
-0.5841689561646977,-0.5841689561646977
-0.5533337184268551,-0.5533337184268551
-0.48715076913587574,-0.48715076913587574
-0.49391947985881685,-0.49391947985881685
-0.622524983594697,-0.622524983594697
-0.7323285131001854,-0.7323285131001854
-0.6977328805162644,-0.6977328805162644
-0.5533337184268551,-0.5533337184268551
-0.5172339279045027,-0.5172339279045027
-0.6729142745321471,-0.6729142745321471
-0.827842542190576,-0.827842542190576
-0.7323285131001854,-0.7323285131001854
-0.49391947985881685,-0.49391947985881685
-0.4345052412907786,-0.4345052412907786
-0.585673114103129,-0.585673114103129
-0.49391947985881685,-0.49391947985881685
0.19423277697352465,0.19423277697352465
1.290763914089977,1.290763914089977
2.3218641808846656,2.3218641808846656
3.134861546606809,3.134861546606809
3.868138541592091,3.868138541592091
4.562307430178158,4.562307430178158
4.960909283862465,4.960909283862465
4.799964384450311,4.799964384450311
4.032843835850323,4.032843835850323
2.8964525133654404,2.8964525133654404
1.774350691295655,1.774350691295655
0.9929406422805701,0.9929406422805701
0.5785451302427339,0.5785451302427339
0.338631939062934,0.338631939062934
0.13557061737470208,0.13557061737470208
0.04156074622274287,0.04156074622274287
0.09119795819097734,0.09119795819097734
0.1603892233588193,0.1603892233588193
0.11977695902117294,0.11977695902117294
0.04156074622274287,0.04156074622274287
0.02802332477686074,0.02802332477686074
0.04156074622274287,0.04156074622274287
-0.042672098329412586,-0.042672098329412586
-0.1968482870186257,-0.1968482870186257
-0.3134205272470551,-0.3134205272470551
-0.31567676415470214,-0.31567676415470214
-0.25851876249431094,-0.25851876249431094
-0.1968482870186257,-0.1968482870186257
-0.2314439196025467,-0.2314439196025467
-0.3750910027227404,-0.3750910027227404
-0.5330275862580318,-0.5330275862580318
-0.49391947985881685,-0.49391947985881685
-0.2540062886790169,-0.2540062886790169
-0.017853492345295353,-0.017853492345295353
0.015237982300194288,0.015237982300194288
-0.07801980988254925,-0.07801980988254925
-0.14345068020431287,-0.14345068020431287
-0.1374340484505875,-0.1374340484505875
-0.12389662700470536,-0.12389662700470536
-0.07801980988254925,-0.07801980988254925
0.045321141068821236,0.045321141068821236
0.21980346192685754,0.21980346192685754
0.3303590704015616,0.3303590704015616
0.338631939062934,0.338631939062934
0.26191988420293527,0.26191988420293527
0.1603892233588193,0.1603892233588193
0.08292508952960492,0.08292508952960492
0.1009749847907811,0.1009749847907811
0.20551396151175974,0.20551396151175974
0.338631939062934,0.338631939062934
0.43640220506097155,0.43640220506097155
0.5168746547670486,0.5168746547670486
0.5725284984890086,0.5725284984890086
0.5770409723043025,0.5770409723043025
0.5274037603360681,0.5274037603360681
0.5168746547670486,0.5168746547670486
0.5762888933350869,0.5762888933350869
0.6364552108723408,0.6364552108723408
0.5996033413807728,0.5996033413807728
0.5168746547670486,0.5168746547670486
0.5086017861056763,0.5086017861056763
0.6364552108723408,0.6364552108723408
0.799656347192142,0.799656347192142
0.8741121651444936,0.8741121651444936
0.8139458476072398,0.8139458476072398
0.695869449440379,0.695869449440379
0.5868179989041064,0.5868179989041064
0.5168746547670486,0.5168746547670486
0.4875435749676374,0.4875435749676374
0.5168746547670486,0.5168746547670486
0.5635035508584204,0.5635035508584204
0.5770409723043025,0.5770409723043025
0.5567348401354794,0.5567348401354794
0.5770409723043025,0.5770409723043025
0.5868179989041064,0.5868179989041064
0.45746041619901046,0.45746041619901046
0.17919119758921115,0.17919119758921115
-0.017853492345295353,-0.017853492345295353
0.016742140238625636,0.016742140238625636
0.1603892233588193,0.1603892233588193
0.1603892233588193,0.1603892233588193
-0.017853492345295353,-0.017853492345295353
-0.23520431444862505,-0.23520431444862505
-0.3750910027227404,-0.3750910027227404
-0.46910087387469956,-0.46910087387469956
-0.5533337184268551,-0.5533337184268551
-0.6330540891637164,-0.6330540891637164
-0.6729142745321471,-0.6729142745321471
-0.6676497217476375,-0.6676497217476375
-0.6127479569948933,-0.6127479569948933
-0.54205253388862,-0.54205253388862
-0.49391947985881685,-0.49391947985881685
-0.5255067965658751,-0.5255067965658751
-0.6127479569948933,-0.6127479569948933
-0.6714101165937159,-0.6714101165937159
-0.6127479569948933,-0.6127479569948933
-0.5127214540892087,-0.5127214540892087
-0.49391947985881685,-0.49391947985881685
-0.5608545081190118,-0.5608545081190118
-0.5533337184268551,-0.5533337184268551
-0.438265636136857,-0.438265636136857
-0.3750910027227404,-0.3750910027227404
-0.5067048223354833,-0.5067048223354833
-0.7323285131001854,-0.7323285131001854
-0.9105712288043001,-0.9105712288043001
-1.0293997059403766,-1.0293997059403766
-1.1241616560615515,-1.1241616560615515
-1.0888139445084148,-1.0888139445084148
-0.8391237267288111,-0.8391237267288111
-0.49391947985881685,-0.49391947985881685
-0.31567676415470214,-0.31567676415470214
-0.3750910027227404,-0.3750910027227404
-0.4999361116125422,-0.4999361116125422
-0.49391947985881685,-0.49391947985881685
-0.3961492138607792,-0.3961492138607792
-0.3750910027227404,-0.3750910027227404
-0.49316740088960115,-0.49316740088960115
-0.6127479569948933,-0.6127479569948933
-0.6210208256562657,-0.6210208256562657
-0.5533337184268551,-0.5533337184268551
-0.5149776909968556,-0.5149776909968556
-0.49391947985881685,-0.49391947985881685
-0.44202603098293536,-0.44202603098293536
-0.3750910027227404,-0.3750910027227404
-0.3750910027227404,-0.3750910027227404
-0.4345052412907786,-0.4345052412907786
-0.4916632429511698,-0.4916632429511698
-0.49391947985881685,-0.49391947985881685
-0.4525551365519548,-0.4525551365519548
-0.3750910027227404,-0.3750910027227404
-0.3036435006472514,-0.3036435006472514
-0.31567676415470214,-0.31567676415470214
-0.49918403264332656,-0.49918403264332656
-0.7917427516682236,-0.7917427516682236
-0.9932999154180242,-0.9932999154180242
-0.9105712288043001,-0.9105712288043001
-0.6007146934874424,-0.6007146934874424
-0.31567676415470214,-0.31567676415470214
-0.260774999401958,-0.260774999401958
-0.3750910027227404,-0.3750910027227404
-0.4713571107823466,-0.4713571107823466
-0.4345052412907786,-0.4345052412907786
-0.31642884312391784,-0.31642884312391784
-0.1968482870186257,-0.1968482870186257
-0.13292157463529344,-0.13292157463529344
-0.1374340484505875,-0.1374340484505875
-0.2021128398031354,-0.2021128398031354
-0.2562625255866639,-0.2562625255866639
-0.2231710509411743,-0.2231710509411743
-0.07801980988254925,-0.07801980988254925
0.08518132643725194,0.08518132643725194
0.1603892233588193,0.1603892233588193
0.11827280108274159,0.11827280108274159
0.04156074622274287,0.04156074622274287
-0.022365966160589397,-0.022365966160589397
-0.07801980988254925,-0.07801980988254925
-0.122392469066274,-0.122392469066274
-0.07801980988254925,-0.07801980988254925
0.051337772822546625,0.051337772822546625
0.1603892233588193,0.1603892233588193
0.12128111695960428,0.12128111695960428
-0.017853492345295353,-0.017853492345295353
-0.18180670763431223,-0.18180670763431223
-0.31567676415470214,-0.31567676415470214
-0.4202157408756808,-0.4202157408756808
-0.4345052412907786,-0.4345052412907786
-0.37283476581509334,-0.37283476581509334
-0.31567676415470214,-0.31567676415470214
-0.3089080534317611,-0.3089080534317611
-0.2562625255866639,-0.2562625255866639
-0.13592989051215612,-0.13592989051215612
-0.07801980988254925,-0.07801980988254925
-0.1855671024803906,-0.1855671024803906
-0.31567676415470214,-0.31567676415470214
-0.260774999401958,-0.260774999401958
0.1009749847907811,0.1009749847907811
0.8034167420382203,0.8034167420382203
1.8262441401715366,1.8262441401715366
2.90171706614995,2.90171706614995
3.669589693719153,3.669589693719153
4.069695705341891,4.069695705341891
4.384064714474043,4.384064714474043
4.629994537407568,4.629994537407568
4.384064714474043,4.384064714474043
3.380791369540334,3.380791369540334
2.0639010944436893,2.0639010944436893
1.078677644771157,1.078677644771157
0.5770409723043025,0.5770409723043025
0.24236583100332776,0.24236583100332776
-0.07801980988254925,-0.07801980988254925
-0.2427251041407818,-0.2427251041407818
-0.1374340484505875,-0.1374340484505875
0.07390014189901684,0.07390014189901684
0.1603892233588193,0.1603892233588193
0.030279561684507763,0.030279561684507763
-0.1968482870186257,-0.1968482870186257
-0.3600494233384269,-0.3600494233384269
-0.3750910027227404,-0.3750910027227404
-0.3231975538468589,-0.3231975538468589
-0.31567676415470214,-0.31567676415470214
-0.40442208252215167,-0.40442208252215167
-0.49391947985881685,-0.49391947985881685
-0.49918403264332656,-0.49918403264332656
-0.3750910027227404,-0.3750910027227404
-0.2111377874337235,-0.2111377874337235
-0.07801980988254925,-0.07801980988254925
-0.016349334406864008,-0.016349334406864008
0.04156074622274287,0.04156074622274287
0.12729774871332966,0.12729774871332966
0.21980346192685754,0.21980346192685754
0.232588804403524,0.232588804403524
0.1603892233588193,0.1603892233588193
0.07615637880666386,0.07615637880666386
0.1009749847907811,0.1009749847907811
0.2543990945107785,0.2543990945107785
0.45746041619901046,0.45746041619901046
0.5627514718892047,0.5627514718892047
0.5168746547670486,0.5168746547670486
0.37548380855450203,0.37548380855450203
0.27921770049489575,0.27921770049489575
0.3100529382327384,0.3100529382327384
0.45746041619901046,0.45746041619901046
0.6123886838574393,0.6123886838574393
0.695869449440379,0.695869449440379
0.6973736073788104,0.6973736073788104
0.695869449440379,0.695869449440379
0.7342254768703784,0.7342254768703784
0.8146979265764555,0.8146979265764555
0.8861454286519445,0.8861454286519445
0.9335264037125319,0.9335264037125319
0.9320222457741005,0.9320222457741005
0.8741121651444936,0.8741121651444936
0.7567878459468486,0.7567878459468486
0.6364552108723408,0.6364552108723408
0.5492140504433226,0.5492140504433226
0.5168746547670486,0.5168746547670486
0.5289079182744995,0.5289079182744995
0.5770409723043025,0.5770409723043025
0.5913304727194003,0.5913304727194003
0.5168746547670486,0.5168746547670486
0.3875170720619528,0.3875170720619528
0.338631939062934,0.338631939062934
0.39955033556940356,0.39955033556940356
0.45746041619901046,0.45746041619901046
0.3957899407233252,0.3957899407233252
0.27921770049489575,0.27921770049489575
0.21604306708077917,0.21604306708077917
0.21980346192685754,0.21980346192685754
0.1919765400658776,0.1919765400658776
0.1009749847907811,0.1009749847907811
-0.009580623683922944,-0.009580623683922944
-0.07801980988254925,-0.07801980988254925
-0.12916117978921507,-0.12916117978921507
-0.1968482870186257,-0.1968482870186257
-0.2893540002321536,-0.2893540002321536
-0.3750910027227404,-0.3750910027227404
-0.47887790047450335,-0.47887790047450335
-0.6127479569948933,-0.6127479569948933
-0.7157827757774405,-0.7157827757774405
-0.6729142745321471,-0.6729142745321471
-0.5382921390425416,-0.5382921390425416
-0.49391947985881685,-0.49391947985881685
-0.613500035964109,-0.613500035964109
-0.7323285131001854,-0.7323285131001854
-0.7421055396999892,-0.7421055396999892
-0.7323285131001854,-0.7323285131001854
-0.8067843310525371,-0.8067843310525371
-0.8511569902362618,-0.8511569902362618
-0.75413880320744,-0.75413880320744
-0.6127479569948933,-0.6127479569948933
-0.613500035964109,-0.613500035964109
-0.7323285131001854,-0.7323285131001854
-0.8308508580674386,-0.8308508580674386
-0.8511569902362618,-0.8511569902362618
-0.8406278846672424,-0.8406278846672424
-0.7917427516682236,-0.7917427516682236
-0.6834433801011666,-0.6834433801011666
-0.5533337184268551,-0.5533337184268551
-0.48790284810509144,-0.48790284810509144
-0.49391947985881685,-0.49391947985881685
-0.5345317441964632,-0.5345317441964632
-0.5533337184268551,-0.5533337184268551
-0.5067048223354833,-0.5067048223354833
-0.3750910027227404,-0.3750910027227404
-0.27882489466313415,-0.27882489466313415
-0.3750910027227404,-0.3750910027227404
-0.6518560633941083,-0.6518560633941083
-0.8511569902362618,-0.8511569902362618
-0.7706845405301848,-0.7706845405301848
-0.49391947985881685,-0.49391947985881685
-0.31191636930862376,-0.31191636930862376
-0.3750910027227404,-0.3750910027227404
-0.5894335089492074,-0.5894335089492074
-0.7323285131001854,-0.7323285131001854
-0.6879558539164606,-0.6879558539164606
-0.49391947985881685,-0.49391947985881685
-0.2901060792013692,-0.2901060792013692
-0.1968482870186257,-0.1968482870186257
-0.2855936053860752,-0.2855936053860752
-0.49391947985881685,-0.49391947985881685
-0.6533602213325397,-0.6533602213325397
-0.6127479569948933,-0.6127479569948933
-0.4630842421209742,-0.4630842421209742
-0.4345052412907786,-0.4345052412907786
-0.613500035964109,-0.613500035964109
-0.7917427516682236,-0.7917427516682236
-0.7759490933146944,-0.7759490933146944
-0.6127479569948933,-0.6127479569948933
-0.46985295284391526,-0.46985295284391526
-0.3750910027227404,-0.3750910027227404
-0.30665181652411405,-0.30665181652411405
-0.31567676415470214,-0.31567676415470214
-0.4533072155211704,-0.4533072155211704
-0.6127479569948933,-0.6127479569948933
-0.6714101165937159,-0.6714101165937159
-0.6127479569948933,-0.6127479569948933
-0.5052006643970519,-0.5052006643970519
-0.3750910027227404,-0.3750910027227404
-0.2848415264168595,-0.2848415264168595
-0.31567676415470214,-0.31567676415470214
-0.4623321631517585,-0.4623321631517585
-0.5533337184268551,-0.5533337184268551
-0.49767987470489516,-0.49767987470489516
-0.4345052412907786,-0.4345052412907786
-0.6037230093643052,-0.6037230093643052
-0.9699854673723383,-0.9699854673723383
-1.198617474013903,-1.198617474013903
-1.0293997059403766,-1.0293997059403766
-0.6714101165937159,-0.6714101165937159
-0.5533337184268551,-0.5533337184268551
-0.7736928564070474,-0.7736928564070474
-0.9699854673723383,-0.9699854673723383
-0.8962817283892023,-0.8962817283892023
-0.7323285131001854,-0.7323285131001854
-0.7338326710386167,-0.7338326710386167
-0.7917427516682236,-0.7917427516682236
-0.6969808015470488,-0.6969808015470488
-0.49391947985881685,-0.49391947985881685
-0.39238881901470085,-0.39238881901470085
-0.3750910027227404,-0.3750910027227404
-0.3435036860156821,-0.3435036860156821
-0.31567676415470214,-0.31567676415470214
-0.4254802936601905,-0.4254802936601905
-0.6127479569948933,-0.6127479569948933
-0.7458659345460675,-0.7458659345460675
-0.7917427516682236,-0.7917427516682236
-0.8428841215748895,-0.8428841215748895
-0.9105712288043001,-0.9105712288043001
-0.9414064665421427,-0.9414064665421427
-0.9105712288043001,-0.9105712288043001
-0.8564215430207716,-0.8564215430207716
-0.7917427516682236,-0.7917427516682236
-0.700741196393127,-0.700741196393127
-0.49391947985881685,-0.49391947985881685
-0.03740754554490287,-0.03740754554490287
0.7552836880084173,0.7552836880084173
1.7420112956193812,1.7420112956193812
2.6587955590932872,2.6587955590932872
3.358229000463864,3.358229000463864
3.9079987269605216,3.9079987269605216
4.320138002090711,4.320138002090711
4.384064714474043,4.384064714474043
3.841815777669542,3.841815777669542
2.777624036229364,2.777624036229364
1.6126537129142853,1.6126537129142853
0.7552836880084173,0.7552836880084173
0.2536470155415629,0.2536470155415629
-0.07801980988254925,-0.07801980988254925
-0.35553694952313286,-0.35553694952313286
-0.49391947985881685,-0.49391947985881685
-0.4525551365519548,-0.4525551365519548
-0.3750910027227404,-0.3750910027227404
-0.442778109952151,-0.442778109952151
-0.6127479569948933,-0.6127479569948933
-0.6999891174239115,-0.6999891174239115
-0.6127479569948933,-0.6127479569948933
-0.48790284810509144,-0.48790284810509144
-0.49391947985881685,-0.49391947985881685
-0.6811871431935196,-0.6811871431935196
-0.9105712288043001,-0.9105712288043001
-1.0316559428480236,-1.0316559428480236
-0.9699854673723383,-0.9699854673723383
-0.8458924374517521,-0.8458924374517521
-0.7917427516682236,-0.7917427516682236
-0.8541653061131246,-0.8541653061131246
-0.9105712288043001,-0.9105712288043001
-0.8782318331280261,-0.8782318331280261
-0.7917427516682236,-0.7917427516682236
-0.7947510675450863,-0.7947510675450863
-0.9105712288043001,-0.9105712288043001
-1.0038290209870435,-1.0038290209870435
-0.9105712288043001,-0.9105712288043001
-0.6932204067009704,-0.6932204067009704
-0.5533337184268551,-0.5533337184268551
-0.5819127192570507,-0.5819127192570507
-0.6127479569948933,-0.6127479569948933
-0.5067048223354833,-0.5067048223354833
-0.31567676415470214,-0.31567676415470214
-0.2051211556799981,-0.2051211556799981
-0.1968482870186257,-0.1968482870186257
-0.22768352475646833,-0.22768352475646833
-0.2562625255866639,-0.2562625255866639
-0.30138726373960434,-0.30138726373960434
-0.31567676415470214,-0.31567676415470214
-0.24046886723313476,-0.24046886723313476
-0.07801980988254925,-0.07801980988254925
0.07164390499136981,0.07164390499136981
0.1603892233588193,0.1603892233588193
0.22506801471136725,0.22506801471136725
0.338631939062934,0.338631939062934
0.47551031146018663,0.47551031146018663
0.5770409723043025,0.5770409723043025
0.6439760005644976,0.6439760005644976
0.7552836880084173,0.7552836880084173
0.8891537445288071,0.8891537445288071
0.9335264037125319,0.9335264037125319
0.8432769274066511,0.8432769274066511
0.7552836880084173,0.7552836880084173
0.767316951515868,0.767316951515868
0.8146979265764555,0.8146979265764555
0.7906313995615539,0.7906313995615539
0.7552836880084173,0.7552836880084173
0.7966480313152793,0.7966480313152793
0.8741121651444936,0.8741121651444936
0.8432769274066511,0.8432769274066511
0.695869449440379,0.695869449440379
0.5416932607511659,0.5416932607511659
0.45746041619901046,0.45746041619901046
0.3642026240162669,0.3642026240162669
0.1603892233588193,0.1603892233588193
-0.17052552309607713,-0.17052552309607713
-0.49391947985881685,-0.49391947985881685
-0.6608810110246964,-0.6608810110246964
-0.6127479569948933,-0.6127479569948933
-0.46910087387469956,-0.46910087387469956
-0.3750910027227404,-0.3750910027227404
-0.3893805031378382,-0.3893805031378382
-0.4345052412907786,-0.4345052412907786
-0.4660925579978369,-0.4660925579978369
-0.49391947985881685,-0.49391947985881685
-0.5435566918270512,-0.5435566918270512
-0.5533337184268551,-0.5533337184268551
-0.48414245325901306,-0.48414245325901306
-0.3750910027227404,-0.3750910027227404
-0.3510244757078388,-0.3510244757078388
-0.4345052412907786,-0.4345052412907786
-0.5270109545043065,-0.5270109545043065
-0.49391947985881685,-0.49391947985881685
-0.3765951606611717,-0.3765951606611717
-0.31567676415470214,-0.31567676415470214
-0.38787634519940684,-0.38787634519940684
-0.49391947985881685,-0.49391947985881685
-0.5495733235807767,-0.5495733235807767
-0.5533337184268551,-0.5533337184268551
-0.5134735330584244,-0.5134735330584244
-0.3750910027227404,-0.3750910027227404
-0.20963362949529216,-0.20963362949529216
-0.1968482870186257,-0.1968482870186257
-0.38787634519940684,-0.38787634519940684
-0.5533337184268551,-0.5533337184268551
-0.5315234283196005,-0.5315234283196005
-0.4345052412907786,-0.4345052412907786
-0.45556345242881746,-0.45556345242881746
-0.5533337184268551,-0.5533337184268551
-0.6104917200872463,-0.6104917200872463
-0.6127479569948933,-0.6127479569948933
-0.5984584565797955,-0.5984584565797955
-0.49391947985881685,-0.49391947985881685
-0.3051476585856827,-0.3051476585856827
-0.1968482870186257,-0.1968482870186257
-0.29236231610901625,-0.29236231610901625
-0.4345052412907786,-0.4345052412907786
-0.4172074249988181,-0.4172074249988181
-0.2562625255866639,-0.2562625255866639
-0.14570691711195988,-0.14570691711195988
-0.1374340484505875,-0.1374340484505875
-0.12314454803548967,-0.12314454803548967
-0.017853492345295353,-0.017853492345295353
0.0806688526219579,0.0806688526219579
0.04156074622274287,0.04156074622274287
-0.15849225958862634,-0.15849225958862634
-0.3750910027227404,-0.3750910027227404
-0.47586958459764067,-0.47586958459764067
-0.4345052412907786,-0.4345052412907786
-0.3510244757078388,-0.3510244757078388
-0.31567676415470214,-0.31567676415470214
-0.37584308169195607,-0.37584308169195607
-0.49391947985881685,-0.49391947985881685
-0.5826647982262663,-0.5826647982262663
-0.5533337184268551,-0.5533337184268551
-0.4465385047982294,-0.4465385047982294
-0.3750910027227404,-0.3750910027227404
-0.4006616876760733,-0.4006616876760733
-0.4345052412907786,-0.4345052412907786
-0.3953971348915636,-0.3953971348915636
-0.31567676415470214,-0.31567676415470214
-0.3247017117852902,-0.3247017117852902
-0.4345052412907786,-0.4345052412907786
-0.5307713493503848,-0.5307713493503848
-0.49391947985881685,-0.49391947985881685
-0.38486802932254416,-0.38486802932254416
-0.31567676415470214,-0.31567676415470214
-0.2848415264168595,-0.2848415264168595
-0.1968482870186257,-0.1968482870186257
-0.13818612741980316,-0.13818612741980316
-0.31567676415470214,-0.31567676415470214
-0.6969808015470488,-0.6969808015470488
-0.9105712288043001,-0.9105712288043001
-0.7458659345460675,-0.7458659345460675
-0.4345052412907786,-0.4345052412907786
-0.3201892379699962,-0.3201892379699962
-0.3750910027227404,-0.3750910027227404
-0.36380981818450525,-0.36380981818450525
-0.1968482870186257,-0.1968482870186257
-0.0013077550225505327,-0.0013077550225505327
0.1603892233588193,0.1603892233588193
0.25139077863391585,0.25139077863391585
0.21980346192685754,0.21980346192685754
-0.010332702653138617,-0.010332702653138617
-0.31567676415470214,-0.31567676415470214
-0.518738085842934,-0.518738085842934
-0.5533337184268551,-0.5533337184268551
-0.5691273767803842,-0.5691273767803842
-0.6729142745321471,-0.6729142745321471
-0.7857261199144983,-0.7857261199144983
-0.7323285131001854,-0.7323285131001854
-0.5616065870882274,-0.5616065870882274
-0.49391947985881685,-0.49391947985881685
-0.5999626145182269,-0.5999626145182269
-0.6127479569948933,-0.6127479569948933
-0.2765686577554871,-0.2765686577554871
0.3980461776309722,0.3980461776309722
1.2539120445984089,1.2539120445984089
2.2421438101478044,2.2421438101478044
3.280012787665434,3.280012787665434
4.145655681232674,4.145655681232674
4.644284037822666,4.644284037822666
4.799964384450311,4.799964384450311
4.628490379469137,4.628490379469137
4.026827204096598,4.026827204096598
3.0024956480248504,3.0024956480248504
1.9450726173076132,1.9450726173076132
1.2922680720284083,1.2922680720284083
1.1117691194166466,1.1117691194166466
1.0861984344633138,1.0861984344633138
0.9335264037125319,0.9335264037125319
0.6018595782884197,0.6018595782884197
0.21980346192685754,0.21980346192685754
-0.08779683648235301,-0.08779683648235301
-0.2562625255866639,-0.2562625255866639
-0.3465120018925448,-0.3465120018925448
-0.4345052412907786,-0.4345052412907786
-0.518738085842934,-0.518738085842934
-0.49391947985881685,-0.49391947985881685
-0.3540327915847015,-0.3540327915847015
-0.1968482870186257,-0.1968482870186257
-0.12690494288156803,-0.12690494288156803
-0.07801980988254925,-0.07801980988254925
0.018246298177056985,0.018246298177056985
0.1603892233588193,0.1603892233588193
0.23183672543430833,0.23183672543430833
0.21980346192685754,0.21980346192685754
0.1701662499586231,0.1701662499586231
0.1603892233588193,0.1603892233588193
0.16715793408176038,0.16715793408176038
0.1603892233588193,0.1603892233588193
0.13707477531313345,0.13707477531313345
0.1603892233588193,0.1603892233588193
0.23710127821881805,0.23710127821881805
0.338631939062934,0.338631939062934
0.41383983598450136,0.41383983598450136
0.45746041619901046,0.45746041619901046
0.43790636299940294,0.43790636299940294
0.338631939062934,0.338631939062934
0.2040098035733284,0.2040098035733284
0.1603892233588193,0.1603892233588193
0.23559712028038668,0.23559712028038668
0.338631939062934,0.338631939062934
0.3589380712317572,0.3589380712317572
0.338631939062934,0.338631939062934
0.3544255974164631,0.3544255974164631
0.3980461776309722,0.3980461776309722
0.35668183432411016,0.35668183432411016
0.21980346192685754,0.21980346192685754
0.10999993242136918,0.10999993242136918
0.1603892233588193,0.1603892233588193
0.304036306479013,0.304036306479013
0.3980461776309722,0.3980461776309722
0.4213606256766581,0.4213606256766581
0.5168746547670486,0.5168746547670486
0.7139193447015552,0.7139193447015552
0.8741121651444936,0.8741121651444936
0.8891537445288071,0.8891537445288071
0.8741121651444936,0.8741121651444936
0.938038877527826,0.938038877527826
0.9929406422805701,0.9929406422805701
0.8553101909141019,0.8553101909141019
0.5770409723043025,0.5770409723043025
0.40030241453861926,0.40030241453861926
0.45746041619901046,0.45746041619901046
0.5544786032278324,0.5544786032278324
0.45746041619901046,0.45746041619901046
0.19573693491195598,0.19573693491195598
0.04156074622274287,0.04156074622274287
0.09195003716019301,0.09195003716019301
0.1603892233588193,0.1603892233588193
0.036296193438233156,0.036296193438233156
-0.1968482870186257,-0.1968482870186257
-0.34425576498489774,-0.34425576498489774
-0.3750910027227404,-0.3750910027227404
-0.43525732025999425,-0.43525732025999425
-0.5533337184268551,-0.5533337184268551
-0.6240291415331284,-0.6240291415331284
-0.5533337184268551,-0.5533337184268551
-0.41570326706038674,-0.41570326706038674
-0.31567676415470214,-0.31567676415470214
-0.2991310268319573,-0.2991310268319573
-0.31567676415470214,-0.31567676415470214
-0.336734975292741,-0.336734975292741
-0.3750910027227404,-0.3750910027227404
-0.47812582150528765,-0.47812582150528765
-0.6127479569948933,-0.6127479569948933
-0.6969808015470488,-0.6969808015470488
-0.6729142745321471,-0.6729142745321471
-0.6127479569948933,-0.6127479569948933
-0.6127479569948933,-0.6127479569948933
-0.6947245646394017,-0.6947245646394017
-0.7323285131001854,-0.7323285131001854
-0.6142521149333247,-0.6142521149333247
-0.3750910027227404,-0.3750910027227404
-0.22617936681803696,-0.22617936681803696
-0.31567676415470214,-0.31567676415470214
-0.5623586660574431,-0.5623586660574431
-0.7323285131001854,-0.7323285131001854
-0.7488742504229302,-0.7488742504229302
-0.7323285131001854,-0.7323285131001854
-0.7804615671299885,-0.7804615671299885
-0.7917427516682236,-0.7917427516682236
-0.6661455638092061,-0.6661455638092061
-0.49391947985881685,-0.49391947985881685
-0.477373742536072,-0.477373742536072
-0.6127479569948933,-0.6127479569948933
-0.6766746693782255,-0.6766746693782255
-0.49391947985881685,-0.49391947985881685
-0.21790649815666457,-0.21790649815666457
-0.1374340484505875,-0.1374340484505875
-0.32695794869293726,-0.32695794869293726
-0.5533337184268551,-0.5533337184268551
-0.6315499312252851,-0.6315499312252851
-0.6127479569948933,-0.6127479569948933
-0.6360624050405792,-0.6360624050405792
-0.6729142745321471,-0.6729142745321471
-0.6518560633941083,-0.6518560633941083
-0.6127479569948933,-0.6127479569948933
-0.654864379270971,-0.654864379270971
-0.7323285131001854,-0.7323285131001854
-0.7421055396999892,-0.7421055396999892
-0.6729142745321471,-0.6729142745321471
-0.62026874668705,-0.62026874668705
-0.6127479569948933,-0.6127479569948933
-0.6165083518409716,-0.6165083518409716
-0.6127479569948933,-0.6127479569948933
-0.6571206161786181,-0.6571206161786181
-0.7323285131001854,-0.7323285131001854
-0.7323285131001854,-0.7323285131001854
-0.5533337184268551,-0.5533337184268551
-0.27280826290940874,-0.27280826290940874
-0.07801980988254925,-0.07801980988254925
-0.08554059957470599,-0.08554059957470599
-0.1968482870186257,-0.1968482870186257
-0.26378331527882065,-0.26378331527882065
-0.2562625255866639,-0.2562625255866639
-0.267543710124899,-0.267543710124899
-0.31567676415470214,-0.31567676415470214
-0.3141726062162708,-0.3141726062162708
-0.1968482870186257,-0.1968482870186257
-0.056961598744510386,-0.056961598744510386
-0.017853492345295353,-0.017853492345295353
-0.07501149400568656,-0.07501149400568656
-0.07801980988254925,-0.07801980988254925
0.0378003513766645,0.0378003513766645
0.1603892233588193,0.1603892233588193
0.11601656417509457,0.11601656417509457
-0.07801980988254925,-0.07801980988254925
-0.22918768269489967,-0.22918768269489967
-0.1968482870186257,-0.1968482870186257
-0.11787999525097996,-0.11787999525097996
-0.1968482870186257,-0.1968482870186257
-0.44428226789058234,-0.44428226789058234
-0.6127479569948933,-0.6127479569948933
-0.6082354831795992,-0.6082354831795992
-0.5533337184268551,-0.5533337184268551
-0.5886814299799917,-0.5886814299799917
-0.6127479569948933,-0.6127479569948933
-0.5661190609035215,-0.5661190609035215
-0.5533337184268551,-0.5533337184268551
-0.661633089993912,-0.661633089993912
-0.7323285131001854,-0.7323285131001854
-0.6676497217476375,-0.6676497217476375
-0.6127479569948933,-0.6127479569948933
-0.7142786178390093,-0.7142786178390093
-0.7917427516682236,-0.7917427516682236
-0.5946980617337171,-0.5946980617337171
-0.07801980988254925,-0.07801980988254925
0.6838361859329283,0.6838361859329283
1.7066635840662445,1.7066635840662445
2.8896838026424994,2.8896838026424994
3.9079987269605216,3.9079987269605216
4.4750662697491395,4.4750662697491395
4.621721668746196,4.621721668746196
4.432197768503846,4.432197768503846
3.848584488392483,3.848584488392483
2.871633907381323,2.871633907381323
1.8262441401715366,1.8262441401715366
1.0643881443560592,1.0643881443560592
0.6364552108723408,0.6364552108723408
0.36194638710861987,0.36194638710861987
0.1603892233588193,0.1603892233588193
0.024262929930782374,0.024262929930782374
-0.07801980988254925,-0.07801980988254925
-0.15849225958862634,-0.15849225958862634
-0.1374340484505875,-0.1374340484505875
-0.0366554665756872,-0.0366554665756872
-0.017853492345295353,-0.017853492345295353
-0.15021939092725392,-0.15021939092725392
-0.2562625255866639,-0.2562625255866639
-0.23294807754097804,-0.23294807754097804
-0.1968482870186257,-0.1968482870186257
-0.2855936053860752,-0.2855936053860752
-0.3750910027227404,-0.3750910027227404
-0.3600494233384269,-0.3600494233384269
-0.31567676415470214,-0.31567676415470214
-0.3908846610762695,-0.3908846610762695
-0.49391947985881685,-0.49391947985881685
-0.4999361116125422,-0.4999361116125422
-0.4345052412907786,-0.4345052412907786
-0.44052187304450396,-0.44052187304450396
-0.49391947985881685,-0.49391947985881685
-0.4803820584129347,-0.4803820584129347
-0.3750910027227404,-0.3750910027227404
-0.31868508003156487,-0.31868508003156487
-0.3750910027227404,-0.3750910027227404
-0.4487947417058764,-0.4487947417058764
-0.3750910027227404,-0.3750910027227404
-0.1622526544347047,-0.1622526544347047
0.04156074622274287,0.04156074622274287
0.09571043200627138,0.09571043200627138
0.04156074622274287,0.04156074622274287
-0.03214299276039315,-0.03214299276039315
-0.07801980988254925,-0.07801980988254925
-0.10584673174352918,-0.10584673174352918
-0.07801980988254925,-0.07801980988254925
-0.0020598339917662065,-0.0020598339917662065
0.04156074622274287,0.04156074622274287
-0.03815962451411854,-0.03815962451411854
-0.1968482870186257,-0.1968482870186257
-0.3397432911696037,-0.3397432911696037
-0.3750910027227404,-0.3750910027227404
-0.2525021307405856,-0.2525021307405856
0.04156074622274287,0.04156074622274287
0.3499131236011691,0.3499131236011691
0.45746041619901046,0.45746041619901046
0.32885491246313026,0.32885491246313026
0.21980346192685754,0.21980346192685754
0.3326153073092086,0.3326153073092086
0.5770409723043025,0.5770409723043025
0.6943652915019477,0.6943652915019477
0.6364552108723408,0.6364552108723408
0.5642556298276361,0.5642556298276361
0.6364552108723408,0.6364552108723408
0.804168821007436,0.804168821007436
0.9335264037125319,0.9335264037125319
0.9260056140203752,0.9260056140203752
0.8146979265764555,0.8146979265764555
0.6748112383023401,0.6748112383023401
0.5770409723043025,0.5770409723043025
0.511610101982539,0.511610101982539
0.45746041619901046,0.45746041619901046
0.39955033556940356,0.39955033556940356
0.338631939062934,0.338631939062934
0.23033256749587697,0.23033256749587697
0.04156074622274287,0.04156074622274287
-0.1998566028954884,-0.1998566028954884
-0.3750910027227404,-0.3750910027227404
-0.42171989881411215,-0.42171989881411215
-0.3750910027227404,-0.3750910027227404
-0.3487682388001918,-0.3487682388001918
-0.3750910027227404,-0.3750910027227404
-0.40667831942979865,-0.40667831942979865
-0.3750910027227404,-0.3750910027227404
-0.32094131693921185,-0.32094131693921185
-0.31567676415470214,-0.31567676415470214
-0.3938929769531322,-0.3938929769531322
-0.49391947985881685,-0.49391947985881685
-0.585673114103129,-0.585673114103129
-0.6729142745321471,-0.6729142745321471
-0.7646679087764594,-0.7646679087764594
-0.7917427516682236,-0.7917427516682236
-0.7082619860852838,-0.7082619860852838
-0.5533337184268551,-0.5533337184268551
-0.43525732025999425,-0.43525732025999425
-0.3750910027227404,-0.3750910027227404
-0.3314704225082313,-0.3314704225082313
-0.2562625255866639,-0.2562625255866639
-0.1765421548498025,-0.1765421548498025
-0.1374340484505875,-0.1374340484505875
-0.19007957629568464,-0.19007957629568464
-0.31567676415470214,-0.31567676415470214
-0.41194287221430836,-0.41194287221430836
-0.3750910027227404,-0.3750910027227404
-0.2916102371398006,-0.2916102371398006
-0.31567676415470214,-0.31567676415470214
-0.4292406885062689,-0.4292406885062689
-0.4345052412907786,-0.4345052412907786
-0.338991212200388,-0.338991212200388
-0.3750910027227404,-0.3750910027227404
-0.6067313252411679,-0.6067313252411679
-0.7323285131001854,-0.7323285131001854
-0.5743919295648939,-0.5743919295648939
-0.3750910027227404,-0.3750910027227404
-0.4292406885062689,-0.4292406885062689
-0.6127479569948933,-0.6127479569948933
-0.650351905455677,-0.650351905455677
-0.5533337184268551,-0.5533337184268551
-0.5698794557495999,-0.5698794557495999
-0.7323285131001854,-0.7323285131001854
-0.8338591739443013,-0.8338591739443013
-0.7323285131001854,-0.7323285131001854
-0.5458129287346983,-0.5458129287346983
-0.4345052412907786,-0.4345052412907786
-0.4149511880911711,-0.4149511880911711
-0.3750910027227404,-0.3750910027227404
-0.295370631985879,-0.295370631985879
-0.2562625255866639,-0.2562625255866639
-0.3111642903394081,-0.3111642903394081
-0.3750910027227404,-0.3750910027227404
-0.3893805031378382,-0.3893805031378382
-0.3750910027227404,-0.3750910027227404
-0.33523081735430965,-0.33523081735430965
-0.1968482870186257,-0.1968482870186257
-0.0366554665756872,-0.0366554665756872
-0.07801980988254925,-0.07801980988254925
-0.3826117924148971,-0.3826117924148971
-0.6729142745321471,-0.6729142745321471
-0.7165348547466562,-0.7165348547466562
-0.6127479569948933,-0.6127479569948933
-0.585673114103129,-0.585673114103129
-0.6127479569948933,-0.6127479569948933
-0.5736398505956782,-0.5736398505956782
-0.49391947985881685,-0.49391947985881685
-0.5014402695509735,-0.5014402695509735
-0.5533337184268551,-0.5533337184268551
-0.4999361116125422,-0.4999361116125422
-0.31567676415470214,-0.31567676415470214
-0.18707126041882194,-0.18707126041882194
-0.2562625255866639,-0.2562625255866639
-0.46534047902862125,-0.46534047902862125
-0.6127479569948933,-0.6127479569948933
-0.6044750883335208,-0.6044750883335208
-0.49391947985881685,-0.49391947985881685
-0.38787634519940684,-0.38787634519940684
-0.31567676415470214,-0.31567676415470214
-0.3051476585856827,-0.3051476585856827
-0.3750910027227404,-0.3750910027227404
-0.48489453222822876,-0.48489453222822876
-0.49391947985881685,-0.49391947985881685
-0.4172074249988181,-0.4172074249988181
-0.4345052412907786,-0.4345052412907786
-0.6962287225778331,-0.6962287225778331
-1.0293997059403766,-1.0293997059403766
-1.1715426311221389,-1.1715426311221389
-1.0293997059403766,-1.0293997059403766
-0.7797094881607728,-0.7797094881607728
-0.6127479569948933,-0.6127479569948933
-0.613500035964109,-0.613500035964109
-0.7323285131001854,-0.7323285131001854
-0.8962817283892023,-0.8962817283892023
-1.0293997059403766,-1.0293997059403766
-1.1015992869850812,-1.1015992869850812
-1.0888139445084148,-1.0888139445084148
-0.9647209145878286,-0.9647209145878286
-0.6127479569948933,-0.6127479569948933
0.11601656417509457,0.11601656417509457
1.2313496755219386,1.2313496755219386
2.419634446882703,2.419634446882703
3.3131042623109237,3.3131042623109237
3.868138541592091,3.868138541592091
4.3246504759060045,4.3246504759060045
4.636763248130509,4.636763248130509
4.384064714474043,4.384064714474043
3.350708210771707,3.350708210771707
2.0044868558756512,2.0044868558756512
1.018511327233903,1.018511327233903
0.5770409723043025,0.5770409723043025
0.3356236231860713,0.3356236231860713
0.04156074622274287,0.04156074622274287
-0.19534412908019436,-0.19534412908019436
-0.1968482870186257,-0.1968482870186257
-0.10359049483588216,-0.10359049483588216
-0.1968482870186257,-0.1968482870186257
-0.5014402695509735,-0.5014402695509735
-0.7323285131001854,-0.7323285131001854
-0.7233035654695973,-0.7233035654695973
-0.6127479569948933,-0.6127479569948933
-0.581160640287835,-0.581160640287835
-0.5533337184268551,-0.5533337184268551
-0.44954682067509205,-0.44954682067509205
-0.3750910027227404,-0.3750910027227404
-0.4811341373821504,-0.4811341373821504
-0.6127479569948933,-0.6127479569948933
-0.5548378763652864,-0.5548378763652864
-0.31567676415470214,-0.31567676415470214
-0.15999641752705768,-0.15999641752705768
-0.1968482870186257,-0.1968482870186257
-0.3239496328160746,-0.3239496328160746
-0.3750910027227404,-0.3750910027227404
-0.31868508003156487,-0.31868508003156487
-0.1968482870186257,-0.1968482870186257
-0.09757386308215676,-0.09757386308215676
-0.07801980988254925,-0.07801980988254925
-0.1660130492807831,-0.1660130492807831
-0.31567676415470214,-0.31567676415470214
-0.46910087387469956,-0.46910087387469956
-0.5533337184268551,-0.5533337184268551
-0.5382921390425416,-0.5382921390425416
-0.4345052412907786,-0.4345052412907786
-0.3374870542619567,-0.3374870542619567
-0.31567676415470214,-0.31567676415470214
-0.3457599229233291,-0.3457599229233291
-0.31567676415470214,-0.31567676415470214
-0.20286491877235108,-0.20286491877235108
-0.07801980988254925,-0.07801980988254925
-0.012588939560785639,-0.012588939560785639
0.04156074622274287,0.04156074622274287
0.12428943283646698,0.12428943283646698
0.21980346192685754,0.21980346192685754
0.27921770049489575,0.27921770049489575
0.338631939062934,0.338631939062934
0.42812933639959916,0.42812933639959916
0.5168746547670486,0.5168746547670486
0.5356766289974405,0.5356766289974405
0.5168746547670486,0.5168746547670486
0.543949497658813,0.543949497658813
0.6364552108723408,0.6364552108723408
0.661273816856458,0.661273816856458
0.5168746547670486,0.5168746547670486
0.2784656215256801,0.2784656215256801
0.1603892233588193,0.1603892233588193
0.23785335718803371,0.23785335718803371
0.3980461776309722,0.3980461776309722
0.5048413912595979,0.5048413912595979
0.5770409723043025,0.5770409723043025
0.6394635267492035,0.6394635267492035
0.6364552108723408,0.6364552108723408
0.5055934702288135,0.5055934702288135
0.338631939062934,0.338631939062934
0.23108464646509264,0.23108464646509264
0.1603892233588193,0.1603892233588193
0.025767087869213723,0.025767087869213723
-0.1374340484505875,-0.1374340484505875
-0.22241897197195862,-0.22241897197195862
-0.1968482870186257,-0.1968482870186257
-0.19609620804941003,-0.19609620804941003
-0.31567676415470214,-0.31567676415470214
-0.49316740088960115,-0.49316740088960115
-0.5533337184268551,-0.5533337184268551
-0.46985295284391526,-0.46985295284391526
-0.3750910027227404,-0.3750910027227404
-0.3999096087068576,-0.3999096087068576
-0.49391947985881685,-0.49391947985881685
-0.5736398505956782,-0.5736398505956782
-0.6127479569948933,-0.6127479569948933
-0.622524983594697,-0.622524983594697
-0.5533337184268551,-0.5533337184268551
-0.4337531623215629,-0.4337531623215629
-0.3750910027227404,-0.3750910027227404
-0.4390177151060726,-0.4390177151060726
-0.49391947985881685,-0.49391947985881685
-0.4314969254139159,-0.4314969254139159
-0.31567676415470214,-0.31567676415470214
-0.30138726373960434,-0.30138726373960434
-0.3750910027227404,-0.3750910027227404
-0.41871158293724947,-0.41871158293724947
-0.3750910027227404,-0.3750910027227404
-0.338991212200388,-0.338991212200388
-0.3750910027227404,-0.3750910027227404
-0.44052187304450396,-0.44052187304450396
-0.4345052412907786,-0.4345052412907786
-0.3803555555072501,-0.3803555555072501
-0.3750910027227404,-0.3750910027227404
-0.4487947417058764,-0.4487947417058764
-0.49391947985881685,-0.49391947985881685
-0.46383632109018985,-0.46383632109018985
-0.4345052412907786,-0.4345052412907786
-0.4721091897515623,-0.4721091897515623
-0.49391947985881685,-0.49391947985881685
-0.4457864258290137,-0.4457864258290137
-0.3750910027227404,-0.3750910027227404
-0.3179330010623492,-0.3179330010623492
-0.1968482870186257,-0.1968482870186257
-0.053953282867647695,-0.053953282867647695
-0.07801980988254925,-0.07801980988254925
-0.31266844827783946,-0.31266844827783946
-0.49391947985881685,-0.49391947985881685
-0.442778109952151,-0.442778109952151
-0.31567676415470214,-0.31567676415470214
-0.3374870542619567,-0.3374870542619567
-0.4345052412907786,-0.4345052412907786
-0.438265636136857,-0.438265636136857
-0.3750910027227404,-0.3750910027227404
-0.38712426623019114,-0.38712426623019114
-0.4345052412907786,-0.4345052412907786
-0.405926240460583,-0.405926240460583
-0.31567676415470214,-0.31567676415470214
-0.2810811315707812,-0.2810811315707812
-0.31567676415470214,-0.31567676415470214
-0.38712426623019114,-0.38712426623019114
-0.49391947985881685,-0.49391947985881685
-0.6405748788558732,-0.6405748788558732
-0.7323285131001854,-0.7323285131001854
-0.7202952495927346,-0.7202952495927346
-0.6729142745321471,-0.6729142745321471
-0.7022453543315584,-0.7022453543315584
-0.7917427516682236,-0.7917427516682236
-0.8609340168360656,-0.8609340168360656
-0.8511569902362618,-0.8511569902362618
-0.7669241456841064,-0.7669241456841064
-0.6127479569948933,-0.6127479569948933
-0.4375135571676413,-0.4375135571676413
-0.31567676415470214,-0.31567676415470214
-0.3111642903394081,-0.3111642903394081
-0.3750910027227404,-0.3750910027227404
-0.4111907932450927,-0.4111907932450927
-0.3750910027227404,-0.3750910027227404
-0.35854526539999554,-0.35854526539999554
-0.4345052412907786,-0.4345052412907786
-0.5330275862580318,-0.5330275862580318
-0.49391947985881685,-0.49391947985881685
-0.3374870542619567,-0.3374870542619567
-0.2562625255866639,-0.2562625255866639
-0.3743389237535247,-0.3743389237535247
-0.5533337184268551,-0.5533337184268551
-0.6375665629790105,-0.6375665629790105
-0.6127479569948933,-0.6127479569948933
-0.5713836136880313,-0.5713836136880313
-0.49391947985881685,-0.49391947985881685
-0.3961492138607792,-0.3961492138607792
-0.3750910027227404,-0.3750910027227404
-0.5255067965658751,-0.5255067965658751
-0.7323285131001854,-0.7323285131001854
-0.8270904632213603,-0.8270904632213603
-0.7917427516682236,-0.7917427516682236
-0.7902385937297922,-0.7902385937297922
-0.9105712288043001,-0.9105712288043001
-1.076780681000964,-1.076780681000964
-1.148228183076453,-1.148228183076453
-1.0933264183237088,-1.0933264183237088
-0.9105712288043001,-0.9105712288043001
-0.5352838231656789,-0.5352838231656789
0.1603892233588193,0.1603892233588193
1.156893857569587,1.156893857569587
2.2421438101478044,2.2421438101478044
3.1363657045452404,3.1363657045452404
3.729756011256407,3.729756011256407
4.038108388634833,4.038108388634833
4.026827204096598,4.026827204096598
3.528950926475822,3.528950926475822
2.539967081957211,2.539967081957211
1.4141048650413475,1.4141048650413475
0.6364552108723408,0.6364552108723408
0.2724489897719547,0.2724489897719547
-0.017853492345295353,-0.017853492345295353
-0.4570676103672488,-0.4570676103672488
-0.7917427516682236,-0.7917427516682236
-0.724055644438813,-0.724055644438813
-0.3750910027227404,-0.3750910027227404
-0.14946731195803825,-0.14946731195803825
-0.1968482870186257,-0.1968482870186257
-0.33523081735430965,-0.33523081735430965
-0.3750910027227404,-0.3750910027227404
-0.36982644993823066,-0.36982644993823066
-0.4345052412907786,-0.4345052412907786
-0.5758960875033252,-0.5758960875033252
-0.6729142745321471,-0.6729142745321471
-0.6789309062858726,-0.6789309062858726
-0.6127479569948933,-0.6127479569948933
-0.5382921390425416,-0.5382921390425416
-0.4345052412907786,-0.4345052412907786
-0.3254537907545059,-0.3254537907545059
-0.2562625255866639,-0.2562625255866639
-0.2765686577554871,-0.2765686577554871
-0.31567676415470214,-0.31567676415470214
-0.3058997375548984,-0.3058997375548984
-0.2562625255866639,-0.2562625255866639
-0.260774999401958,-0.260774999401958
-0.31567676415470214,-0.31567676415470214
-0.3231975538468589,-0.3231975538468589
-0.1968482870186257,-0.1968482870186257
-0.013341018530001312,-0.013341018530001312
0.1009749847907811,0.1009749847907811
0.11902488005195726,0.11902488005195726
0.1603892233588193,0.1603892233588193
0.26267196317215097,0.26267196317215097
0.338631939062934,0.338631939062934
0.30027591163293466,0.30027591163293466
0.21980346192685754,0.21980346192685754
0.17317456583548577,0.17317456583548577
0.1603892233588193,0.1603892233588193
0.1701662499586231,0.1701662499586231
0.27921770049489575,0.27921770049489575
0.45144378444528505,0.45144378444528505
0.5168746547670486,0.5168746547670486
0.38074836133901174,0.38074836133901174
0.21980346192685754,0.21980346192685754
0.21679514604999484,0.21679514604999484
0.338631939062934,0.338631939062934
0.42361686258430514,0.42361686258430514
0.45746041619901046,0.45746041619901046
0.48979981187528443,0.48979981187528443
0.5168746547670486,0.5168746547670486
0.49130396981371577,0.49130396981371577
0.45746041619901046,0.45746041619901046
0.44241883681469696,0.44241883681469696
0.3980461776309722,0.3980461776309722
0.27094483183352336,0.27094483183352336
0.1603892233588193,0.1603892233588193
0.18595990831215223,0.18595990831215223
0.338631939062934,0.338631939062934
0.46122081104508883,0.46122081104508883
0.45746041619901046,0.45746041619901046
0.34540064978587504,0.34540064978587504
0.21980346192685754,0.21980346192685754
0.1295539856209767,0.1295539856209767
0.1009749847907811,0.1009749847907811
0.11300824829823188,0.11300824829823188
0.1603892233588193,0.1603892233588193
0.22506801471136725,0.22506801471136725
0.27921770049489575,0.27921770049489575
0.24010959409568072,0.24010959409568072
0.1009749847907811,0.1009749847907811
-0.015597255437648333,-0.015597255437648333
0.04156074622274287,0.04156074622274287
0.163397539235682,0.163397539235682
0.1009749847907811,0.1009749847907811
-0.1945920501109787,-0.1945920501109787
-0.4345052412907786,-0.4345052412907786
-0.4284886095370532,-0.4284886095370532
-0.31567676415470214,-0.31567676415470214
-0.3194371590007805,-0.3194371590007805
-0.3750910027227404,-0.3750910027227404
-0.3231975538468589,-0.3231975538468589
-0.1968482870186257,-0.1968482870186257
-0.18857541835725328,-0.18857541835725328
-0.31567676415470214,-0.31567676415470214
-0.4314969254139159,-0.4314969254139159
-0.4345052412907786,-0.4345052412907786
-0.3938929769531322,-0.3938929769531322
-0.3750910027227404,-0.3750910027227404
-0.36907437096901496,-0.36907437096901496
-0.31567676415470214,-0.31567676415470214
-0.2374605513562721,-0.2374605513562721
-0.1968482870186257,-0.1968482870186257
-0.24422926207921314,-0.24422926207921314
-0.31567676415470214,-0.31567676415470214
-0.31266844827783946,-0.31266844827783946
-0.1968482870186257,-0.1968482870186257
-0.07801980988254925,-0.07801980988254925
-0.07801980988254925,-0.07801980988254925
-0.21565026124901754,-0.21565026124901754
-0.3750910027227404,-0.3750910027227404
-0.45481137345960176,-0.45481137345960176
-0.4345052412907786,-0.4345052412907786
-0.37885139756881875,-0.37885139756881875
-0.31567676415470214,-0.31567676415470214
-0.2517500517713699,-0.2517500517713699
-0.1968482870186257,-0.1968482870186257
-0.21565026124901754,-0.21565026124901754
-0.31567676415470214,-0.31567676415470214
-0.41194287221430836,-0.41194287221430836
-0.3750910027227404,-0.3750910027227404
-0.21790649815666457,-0.21790649815666457
-0.07801980988254925,-0.07801980988254925
-0.08554059957470599,-0.08554059957470599
-0.1968482870186257,-0.1968482870186257
-0.29311439507823195,-0.29311439507823195
-0.31567676415470214,-0.31567676415470214
-0.3435036860156821,-0.3435036860156821
-0.4345052412907786,-0.4345052412907786
-0.5428046128578357,-0.5428046128578357
-0.5533337184268551,-0.5533337184268551
-0.4660925579978369,-0.4660925579978369
-0.3750910027227404,-0.3750910027227404
-0.36155358127685827,-0.36155358127685827
-0.3750910027227404,-0.3750910027227404
-0.3623056602460739,-0.3623056602460739
-0.31567676415470214,-0.31567676415470214
-0.2682957890941147,-0.2682957890941147
-0.1968482870186257,-0.1968482870186257
-0.11411960040490159,-0.11411960040490159
-0.07801980988254925,-0.07801980988254925
-0.13292157463529344,-0.13292157463529344
-0.1968482870186257,-0.1968482870186257
-0.1765421548498025,-0.1765421548498025
-0.07801980988254925,-0.07801980988254925
-0.010332702653138617,-0.010332702653138617
-0.017853492345295353,-0.017853492345295353
-0.06297823049823578,-0.06297823049823578
-0.07801980988254925,-0.07801980988254925
-0.059969914621373084,-0.059969914621373084
-0.017853492345295353,-0.017853492345295353
0.045321141068821236,0.045321141068821236
0.1603892233588193,0.1603892233588193
0.30253214854058164,0.30253214854058164
0.3980461776309722,0.3980461776309722
0.36119430813940423,0.36119430813940423
0.21980346192685754,0.21980346192685754
0.06412311529921308,0.06412311529921308
-0.017853492345295353,-0.017853492345295353
-0.08328436266705896,-0.08328436266705896
-0.1968482870186257,-0.1968482870186257
-0.37809931859960305,-0.37809931859960305
-0.49391947985881685,-0.49391947985881685
-0.4457864258290137,-0.4457864258290137
-0.2562625255866639,-0.2562625255866639
-0.13141741669686208,-0.13141741669686208
-0.1968482870186257,-0.1968482870186257
-0.35553694952313286,-0.35553694952313286
-0.3750910027227404,-0.3750910027227404
-0.24949381486372285,-0.24949381486372285
-0.1968482870186257,-0.1968482870186257
-0.3487682388001918,-0.3487682388001918
-0.49391947985881685,-0.49391947985881685
-0.3532807126154858,-0.3532807126154858
0.1603892233588193,0.1603892233588193
0.9500721410352767,0.9500721410352767
1.9450726173076132,1.9450726173076132
3.0205455432860266,3.0205455432860266
3.9674129655285597,3.9674129655285597
4.588630194100706,4.588630194100706
4.859378623018348,4.859378623018348
4.758600041143448,4.758600041143448
4.205069919800713,4.205069919800713
3.2213506280666113,3.2213506280666113
2.123315333011728,2.123315333011728
1.2651932291366441,1.2651932291366441
0.7552836880084173,0.7552836880084173
0.44542715269155964,0.44542715269155964
0.21980346192685754,0.21980346192685754
0.05735440457627202,0.05735440457627202
-0.017853492345295353,-0.017853492345295353
-0.029886755852746135,-0.029886755852746135
-0.017853492345295353,-0.017853492345295353
-0.0652344674058828,-0.0652344674058828
-0.1968482870186257,-0.1968482870186257
-0.3292141856005843,-0.3292141856005843
-0.31567676415470214,-0.31567676415470214
-0.17804631278823385,-0.17804631278823385
-0.07801980988254925,-0.07801980988254925
-0.1306653377276464,-0.1306653377276464
-0.1968482870186257,-0.1968482870186257
-0.11712791628176429,-0.11712791628176429
0.1009749847907811,0.1009749847907811
0.23033256749587697,0.23033256749587697
0.1603892233588193,0.1603892233588193
-0.026126361006667764,-0.026126361006667764
-0.1374340484505875,-0.1374340484505875
-0.16375681237313605,-0.16375681237313605
-0.1968482870186257,-0.1968482870186257
-0.2509979728021542,-0.2509979728021542
-0.1968482870186257,-0.1968482870186257
-0.04116794039098124,-0.04116794039098124
0.04156074622274287,0.04156074622274287
-0.062226151529020106,-0.062226151529020106
-0.1968482870186257,-0.1968482870186257
-0.2231710509411743,-0.2231710509411743
-0.1968482870186257,-0.1968482870186257
-0.23219599857176237,-0.23219599857176237
-0.2562625255866639,-0.2562625255866639
-0.1825587866035279,-0.1825587866035279
-0.07801980988254925,-0.07801980988254925
-0.0652344674058828,-0.0652344674058828
-0.07801980988254925,-0.07801980988254925
0.005460955700390531,0.005460955700390531
0.1603892233588193,0.1603892233588193
0.22205969883450458,0.22205969883450458
0.1603892233588193,0.1603892233588193
0.09571043200627138,0.09571043200627138
0.1603892233588193,0.1603892233588193
0.31456541204803246,0.31456541204803246
0.45746041619901046,0.45746041619901046
0.5469578135356756,0.5469578135356756
0.6364552108723408,0.6364552108723408
0.7109110288246925,0.7109110288246925
0.695869449440379,0.695869449440379
0.5672639457044988,0.5672639457044988
0.45746041619901046,0.45746041619901046
0.46046873207587313,0.46046873207587313
0.5168746547670486,0.5168746547670486
0.49506436465979414,0.49506436465979414
0.3980461776309722,0.3980461776309722
0.30779670132509135,0.30779670132509135
0.27921770049489575,0.27921770049489575
0.29049888503313087,0.29049888503313087
0.338631939062934,0.338631939062934
0.4070711252615603,0.4070711252615603
0.45746041619901046,0.45746041619901046
0.4251210205227365,0.4251210205227365
0.338631939062934,0.338631939062934
0.27696146358724877,0.27696146358724877
0.27921770049489575,0.27921770049489575
0.23634919924960238,0.23634919924960238
0.04156074622274287,0.04156074622274287
-0.2667916311556834,-0.2667916311556834
-0.49391947985881685,-0.49391947985881685
-0.5623586660574431,-0.5623586660574431
-0.5533337184268551,-0.5533337184268551
-0.5563420343037178,-0.5563420343037178
-0.49391947985881685,-0.49391947985881685
-0.33071834353901564,-0.33071834353901564
-0.1968482870186257,-0.1968482870186257
-0.2713041049709774,-0.2713041049709774
-0.49391947985881685,-0.49391947985881685
-0.6563685372094024,-0.6563685372094024
-0.6127479569948933,-0.6127479569948933
-0.4345052412907786,-0.4345052412907786
-0.2562625255866639,-0.2562625255866639
-0.1803025496958809,-0.1803025496958809
-0.1968482870186257,-0.1968482870186257
-0.23294807754097804,-0.23294807754097804
-0.1968482870186257,-0.1968482870186257
-0.10960712658960754,-0.10960712658960754
-0.07801980988254925,-0.07801980988254925
-0.19158373423411598,-0.19158373423411598
-0.3750910027227404,-0.3750910027227404
-0.4856466111974444,-0.4856466111974444
-0.4345052412907786,-0.4345052412907786
-0.2810811315707812,-0.2810811315707812
-0.1374340484505875,-0.1374340484505875
-0.08403644163627465,-0.08403644163627465
-0.07801980988254925,-0.07801980988254925
-0.013341018530001312,-0.013341018530001312
0.1603892233588193,0.1603892233588193
0.2980196747252876,0.2980196747252876
0.21980346192685754,0.21980346192685754
-0.06373030946745145,-0.06373030946745145
-0.31567676415470214,-0.31567676415470214
-0.3916367400454852,-0.3916367400454852
-0.3750910027227404,-0.3750910027227404
-0.4051741614913673,-0.4051741614913673
-0.4345052412907786,-0.4345052412907786
-0.37283476581509334,-0.37283476581509334
-0.2562625255866639,-0.2562625255866639
-0.22993976166411534,-0.22993976166411534
-0.31567676415470214,-0.31567676415470214
-0.4292406885062689,-0.4292406885062689
-0.49391947985881685,-0.49391947985881685
-0.5345317441964632,-0.5345317441964632
-0.5533337184268551,-0.5533337184268551
-0.5270109545043065,-0.5270109545043065
-0.4345052412907786,-0.4345052412907786
-0.3562890284923485,-0.3562890284923485
-0.3750910027227404,-0.3750910027227404
-0.49918403264332656,-0.49918403264332656
-0.6127479569948933,-0.6127479569948933
-0.6323020101945008,-0.6323020101945008
-0.5533337184268551,-0.5533337184268551
-0.45932384727489584,-0.45932384727489584
-0.3750910027227404,-0.3750910027227404
-0.29311439507823195,-0.29311439507823195
-0.1968482870186257,-0.1968482870186257
-0.12615286391235236,-0.12615286391235236
-0.07801980988254925,-0.07801980988254925
-0.0020598339917662065,-0.0020598339917662065
0.1603892233588193,0.1603892233588193
0.35066520257038475,0.35066520257038475
0.45746041619901046,0.45746041619901046
0.41233567804607,0.41233567804607
0.27921770049489575,0.27921770049489575
0.14158724912842746,0.14158724912842746
0.04156074622274287,0.04156074622274287
-0.027630518945099113,-0.027630518945099113
-0.017853492345295353,-0.017853492345295353
0.11451240623666321,0.11451240623666321
0.338631939062934,0.338631939062934
0.5040893122903822,0.5040893122903822
0.5168746547670486,0.5168746547670486
0.449187547537638,0.449187547537638
0.45746041619901046,0.45746041619901046
0.5311641551821464,0.5311641551821464
0.5168746547670486,0.5168746547670486
0.340888175970581,0.340888175970581
0.1603892233588193,0.1603892233588193
0.08367716849882059,0.08367716849882059
0.04156074622274287,0.04156074622274287
-0.12765702185078373,-0.12765702185078373
-0.3750910027227404,-0.3750910027227404
-0.5826647982262663,-0.5826647982262663
-0.6729142745321471,-0.6729142745321471
-0.6834433801011666,-0.6834433801011666
-0.6127479569948933,-0.6127479569948933
-0.4863986901666601,-0.4863986901666601
-0.3750910027227404,-0.3750910027227404
-0.38486802932254416,-0.38486802932254416
-0.49391947985881685,-0.49391947985881685
-0.587929351010776,-0.587929351010776
-0.5533337184268551,-0.5533337184268551
-0.3938929769531322,-0.3938929769531322
-0.07801980988254925,-0.07801980988254925
0.5258996023976368,0.5258996023976368
1.5284208683621299,1.5284208683621299
2.7091848500307374,2.7091848500307374
3.669589693719153,3.669589693719153
4.259219605584241,4.259219605584241
4.681135907314234,4.681135907314234
4.971438389431484,4.971438389431484
4.799964384450311,4.799964384450311
3.9328173329446385,3.9328173329446385
2.7182097976613258,2.7182097976613258
1.709671899943107,1.709671899943107
1.1117691194166466,1.1117691194166466
0.7552836880084173,0.7552836880084173
0.5168746547670486,0.5168746547670486
0.38977330896959983,0.38977330896959983
0.338631939062934,0.338631939062934
0.2724489897719547,0.2724489897719547
0.21980346192685754,0.21980346192685754
0.2536470155415629,0.2536470155415629
0.338631939062934,0.338631939062934
0.2920030429715622,0.2920030429715622
0.04156074622274287,0.04156074622274287
-0.2667916311556834,-0.2667916311556834
-0.3750910027227404,-0.3750910027227404
-0.2374605513562721,-0.2374605513562721
-0.017853492345295353,-0.017853492345295353
0.06863558911450712,0.06863558911450712
0.04156074622274287,0.04156074622274287
0.0024526398235278357,0.0024526398235278357
0.04156074622274287,0.04156074622274287
0.11752072211352592,0.11752072211352592
0.21980346192685754,0.21980346192685754
0.3100529382327384,0.3100529382327384
0.338631939062934,0.338631939062934
0.23033256749587697,0.23033256749587697
0.04156074622274287,0.04156074622274287
-0.08178020472862763,-0.08178020472862763
-0.017853492345295353,-0.017853492345295353
0.1348185384054864,0.1348185384054864
0.21980346192685754,0.21980346192685754
0.20175356666568137,0.20175356666568137
0.21980346192685754,0.21980346192685754
0.301780069571366,0.301780069571366
0.338631939062934,0.338631939062934
0.27470522667960173,0.27470522667960173
0.27921770049489575,0.27921770049489575
0.4634770479527358,0.4634770479527358
0.695869449440379,0.695869449440379
0.7440025034701822,0.7440025034701822
0.6364552108723408,0.6364552108723408
0.5657597877660675,0.5657597877660675
0.6364552108723408,0.6364552108723408
0.7169276605784178,0.7169276605784178
0.695869449440379,0.695869449440379
0.615396999734302,0.615396999734302
0.6364552108723408,0.6364552108723408
0.7966480313152793,0.7966480313152793
0.9929406422805701,0.9929406422805701
1.0801818027095882,1.0801818027095882
1.0523548808486083,1.0523548808486083
0.9959489581574328,0.9959489581574328
0.9929406422805701,0.9929406422805701
1.0267841958952755,1.0267841958952755
1.0523548808486083,1.0523548808486083
1.018511327233903,1.018511327233903
0.9335264037125319,0.9335264037125319
0.8425248484374354,0.8425248484374354
0.8146979265764555,0.8146979265764555
0.829739505960769,0.829739505960769
0.8146979265764555,0.8146979265764555
0.7101589498554768,0.7101589498554768
0.5770409723043025,0.5770409723043025
0.48603941702920606,0.48603941702920606
0.45746041619901046,0.45746041619901046
0.41835230979979543,0.41835230979979543
0.338631939062934,0.338631939062934
0.2528949365723472,0.2528949365723472
0.21980346192685754,0.21980346192685754
0.1746787237739171,0.1746787237739171
0.04156074622274287,0.04156074622274287
-0.1366819694813718,-0.1366819694813718
-0.1968482870186257,-0.1968482870186257
-0.15849225958862634,-0.15849225958862634
-0.1968482870186257,-0.1968482870186257
-0.3750910027227404,-0.3750910027227404
-0.49391947985881685,-0.49391947985881685
-0.4457864258290137,-0.4457864258290137
-0.3750910027227404,-0.3750910027227404
-0.43525732025999425,-0.43525732025999425
-0.49391947985881685,-0.49391947985881685
-0.40442208252215167,-0.40442208252215167
-0.2562625255866639,-0.2562625255866639
-0.25851876249431094,-0.25851876249431094
-0.3750910027227404,-0.3750910027227404
-0.42773653056783756,-0.42773653056783756
-0.3750910027227404,-0.3750910027227404
-0.3938929769531322,-0.3938929769531322
-0.5533337184268551,-0.5533337184268551
-0.6932204067009704,-0.6932204067009704
-0.6127479569948933,-0.6127479569948933
-0.4006616876760733,-0.4006616876760733
-0.31567676415470214,-0.31567676415470214
-0.45556345242881746,-0.45556345242881746
-0.6127479569948933,-0.6127479569948933
-0.6187645887486186,-0.6187645887486186
-0.5533337184268551,-0.5533337184268551
-0.5871772720415603,-0.5871772720415603
-0.6729142745321471,-0.6729142745321471
-0.6623851689631277,-0.6623851689631277
-0.5533337184268551,-0.5533337184268551
-0.5029444274894049,-0.5029444274894049
-0.5533337184268551,-0.5533337184268551
-0.5999626145182269,-0.5999626145182269
-0.5533337184268551,-0.5533337184268551
-0.5014402695509735,-0.5014402695509735
-0.5533337184268551,-0.5533337184268551
-0.682691301131951,-0.682691301131951
-0.7323285131001854,-0.7323285131001854
-0.6556164582401867,-0.6556164582401867
-0.5533337184268551,-0.5533337184268551
-0.5232505596582281,-0.5232505596582281
-0.49391947985881685,-0.49391947985881685
-0.3856201082917598,-0.3856201082917598
-0.2562625255866639,-0.2562625255866639
-0.2660395521864677,-0.2660395521864677
-0.4345052412907786,-0.4345052412907786
-0.6383186419482262,-0.6383186419482262
-0.7323285131001854,-0.7323285131001854
-0.7014932753623427,-0.7014932753623427
-0.6127479569948933,-0.6127479569948933
-0.5698794557495999,-0.5698794557495999
-0.6127479569948933,-0.6127479569948933
-0.7233035654695973,-0.7233035654695973
-0.7917427516682236,-0.7917427516682236
-0.7202952495927346,-0.7202952495927346
-0.49391947985881685,-0.49391947985881685
-0.2509979728021542,-0.2509979728021542
-0.1374340484505875,-0.1374340484505875
-0.1660130492807831,-0.1660130492807831
-0.1968482870186257,-0.1968482870186257
-0.15021939092725392,-0.15021939092725392
-0.07801980988254925,-0.07801980988254925
-0.04643249317549095,-0.04643249317549095
-0.017853492345295353,-0.017853492345295353
0.028775403746076417,0.028775403746076417
0.04156074622274287,0.04156074622274287
-0.011084781622354292,-0.011084781622354292
-0.017853492345295353,-0.017853492345295353
0.10774369551372216,0.10774369551372216
0.27921770049489575,0.27921770049489575
0.29425927987920925,0.29425927987920925
0.1009749847907811,0.1009749847907811
-0.16074849649627337,-0.16074849649627337
-0.31567676415470214,-0.31567676415470214
-0.37584308169195607,-0.37584308169195607
-0.4345052412907786,-0.4345052412907786
-0.5367879811041102,-0.5367879811041102
-0.6127479569948933,-0.6127479569948933
-0.7090140650544995,-0.7090140650544995
-0.9105712288043001,-0.9105712288043001
-1.196361237106256,-1.196361237106256
-1.3272229777497833,-1.3272229777497833
-1.1956091581370405,-1.1956091581370405
-0.9699854673723383,-0.9699854673723383
-0.8872567807586141,-0.8872567807586141
-0.9105712288043001,-0.9105712288043001
-0.8722152013743008,-0.8722152013743008
-0.7323285131001854,-0.7323285131001854
-0.6285416153484225,-0.6285416153484225
-0.6127479569948933,-0.6127479569948933
-0.5728877716264625,-0.5728877716264625
-0.31567676415470214,-0.31567676415470214
0.26568027904901365,0.26568027904901365
1.1711833579846849,1.1711833579846849
2.2601937054089802,2.2601937054089802
3.3131042623109237,3.3131042623109237
4.086993521633852,4.086993521633852
4.4434789530420815,4.4434789530420815
4.359246108489926,4.359246108489926
3.9079987269605216,3.9079987269605216
3.1634405474370046,3.1634405474370046
2.2421438101478044,2.2421438101478044
1.3268637046123293,1.3268637046123293
0.6364552108723408,0.6364552108723408
0.24236583100332776,0.24236583100332776
0.04156074622274287,0.04156074622274287
-0.12916117978921507,-0.12916117978921507
-0.31567676415470214,-0.31567676415470214
-0.49843195367411086,-0.49843195367411086
-0.6729142745321471,-0.6729142745321471
-0.8684548065282224,-0.8684548065282224
-1.0293997059403766,-1.0293997059403766
-1.0549703908937094,-1.0549703908937094
-0.9105712288043001,-0.9105712288043001
-0.7353368289770481,-0.7353368289770481
-0.6729142745321471,-0.6729142745321471
-0.72631188134646,-0.72631188134646
-0.7323285131001854,-0.7323285131001854
-0.6413269578250889,-0.6413269578250889
-0.5533337184268551,-0.5533337184268551
-0.611243799056462,-0.611243799056462
-0.7323285131001854,-0.7323285131001854
-0.75413880320744,-0.75413880320744
-0.6127479569948933,-0.6127479569948933
-0.4487947417058764,-0.4487947417058764
-0.3750910027227404,-0.3750910027227404
-0.3750910027227404,-0.3750910027227404
-0.31567676415470214,-0.31567676415470214
-0.1509714698964696,-0.1509714698964696
0.04156074622274287,0.04156074622274287
0.09871874788313408,0.09871874788313408
-0.017853492345295353,-0.017853492345295353
-0.1765421548498025,-0.1765421548498025
-0.1968482870186257,-0.1968482870186257
-0.10960712658960754,-0.10960712658960754
-0.07801980988254925,-0.07801980988254925
-0.159244338557842,-0.159244338557842
-0.1968482870186257,-0.1968482870186257
-0.09832594205137245,-0.09832594205137245
0.04156074622274287,0.04156074622274287
0.08894172128333032,0.08894172128333032
0.1009749847907811,0.1009749847907811
0.1701662499586231,0.1701662499586231
0.27921770049489575,0.27921770049489575
0.3250945176170519,0.3250945176170519
0.338631939062934,0.338631939062934
0.42211270464587375,0.42211270464587375
0.5770409723043025,0.5770409723043025
0.6334468949954781,0.6334468949954781
0.5168746547670486,0.5168746547670486
0.3815004403082274,0.3815004403082274
