ECG,PPG
0.26640916464007164,0.26640916464007164
0.49188379696094947,0.49188379696094947
0.7439143304218419,0.7439143304218419
0.9543573205879945,0.9543573205879945
1.0225007650227487,1.0225007650227487
0.8736875076909693,0.8736875076909693
0.5459977087179602,0.5459977087179602
0.20177310337475335,0.20177310337475335
0.011372302748234272,0.011372302748234272
0.006361755363325876,0.006361755363325876
0.07450519979808007,0.07450519979808007
0.10106110093809458,0.10106110093809458
0.07901469244449763,0.07901469244449763
0.06197883133580907,0.06197883133580907
0.06498515976675412,0.06498515976675412
0.061477776597318234,0.061477776597318234
0.043439806011648006,0.043439806011648006
0.026403944902959463,0.026403944902959463
0.018888123825596865,0.018888123825596865
0.01387757644068847,0.01387757644068847
0.01437863117917931,0.01437863117917931
0.0243997259489961,0.0243997259489961
0.034921875457303735,0.034921875457303735
0.02790710911843198,0.02790710911843198
0.009368083794270914,0.009368083794270914
-0.0026572299295092383,-0.0026572299295092383
0.0023533174553991582,0.0023533174553991582
0.011372302748234272,0.011372302748234272
0.01337652170219763,0.01337652170219763
0.007363864840307555,0.007363864840307555
0.005359645886344196,0.005359645886344196
0.011873357486725111,0.011873357486725111
0.020391288041069384,0.020391288041069384
0.021393397518051065,0.021393397518051065
0.01738495961012435,0.01738495961012435
0.019389178564087707,0.019389178564087707
0.034420820718812896,0.034420820718812896
0.05295984604297396,0.05295984604297396
0.06247988607429992,0.06247988607429992
0.061477776597318234,0.061477776597318234
0.06448410502826328,0.06448410502826328
0.07951574718298847,0.07951574718298847
0.10056004619960374,0.10056004619960374
0.11408852413885641,0.11408852413885641
0.11809696204678312,0.11809696204678312
0.11960012626225565,0.11960012626225565
0.12761700207810908,0.12761700207810908
0.14064442527887092,0.14064442527887092
0.1556760674335961,0.1556760674335961
0.16669927168039456,0.16669927168039456
0.17271192854228465,0.17271192854228465
0.1782235306656839,0.1782235306656839
0.18774357069700984,0.18774357069700984
0.20077099389777167,0.20077099389777167
0.21279630762155183,0.21279630762155183
0.22231634765287778,0.22231634765287778
0.23434166137665793,0.23434166137665793
0.24636697510043806,0.24636697510043806
0.24736908457741974,0.24736908457741974
0.22933111399174952,0.22933111399174952
0.20077099389777167,0.20077099389777167
0.174716147496248,0.174716147496248
0.15417290321812357,0.15417290321812357
0.13362965893999915,0.13362965893999915
0.11108219570791136,0.11108219570791136
0.08903578721431442,0.08903578721431442
0.07049676189015336,0.07049676189015336
0.0534609007814648,0.0534609007814648
0.037427149149757935,0.037427149149757935
0.02590289016446862,0.02590289016446862
0.022395506995032743,0.022395506995032743
0.023898671210505262,0.023898671210505262
0.02740605437994114,0.02740605437994114
0.03041238281088618,0.03041238281088618
0.037427149149757935,0.037427149149757935
0.04494297022712053,0.04494297022712053
0.049452462873538085,0.049452462873538085
0.046446134442593046,0.046446134442593046
0.04444191548862969,0.04444191548862969
0.04845035339655641,0.04845035339655641
0.0534609007814648,0.0534609007814648
0.04744824391957472,0.04744824391957472
0.032416601764849534,0.032416601764849534
0.017886014348615187,0.017886014348615187
0.012374412225215951,0.012374412225215951
0.016883904871633507,0.016883904871633507
0.023898671210505262,0.023898671210505262
0.018387069087106026,0.018387069087106026
-0.006164613098945115,-0.006164613098945115
-0.020194145776688627,-0.020194145776688627
0.018387069087106026,0.018387069087106026
0.11559168835432893,0.11559168835432893
0.252880686700819,0.252880686700819
0.4457867610197922,0.4457867610197922
0.7133499913739005,0.7133499913739005
0.9718942364351738,0.9718942364351738
1.0380334619159648,1.0380334619159648
0.8190725411954678,0.8190725411954678
0.4457867610197922,0.4457867610197922
0.1506655200486877,0.1506655200486877
0.04293875127315717,0.04293875127315717
0.05546511973542816,0.05546511973542816
0.07500625453657091,0.07500625453657091
0.061477776597318234,0.061477776597318234
0.03542293019579457,0.03542293019579457
0.01738495961012435,0.01738495961012435
0.0043575364093625165,0.0043575364093625165
-0.009671996268380993,-0.009671996268380993
-0.020194145776688627,-0.020194145776688627
-0.019693091038197785,-0.019693091038197785
-0.011676215222344351,-0.011676215222344351
-0.006665667837435956,-0.006665667837435956
-0.005663558360454276,-0.005663558360454276
-0.004661448883472597,-0.004661448883472597
-0.005162503621963436,-0.005162503621963436
-0.011175160483853513,-0.011175160483853513
-0.01618570786876191,-0.01618570786876191
-0.01368043417630771,-0.01368043417630771
-0.0026572299295092383,-0.0026572299295092383
0.0033554269323808374,0.0033554269323808374
0.0033554269323808374,0.0033554269323808374
0.0003490985014357996,0.0003490985014357996
-0.0006530109755458796,-0.0006530109755458796
0.0008501532399266393,0.0008501532399266393
0.0043575364093625165,0.0043575364093625165
0.008867029055780073,0.008867029055780073
0.01337652170219763,0.01337652170219763
0.018387069087106026,0.018387069087106026
0.025401835425977782,0.025401835425977782
0.03341871124183122,0.03341871124183122
0.04193664179617549,0.04193664179617549
0.04794929865806557,0.04794929865806557
0.0534609007814648,0.0534609007814648
0.06047566712033656,0.06047566712033656
0.07149887136713504,0.07149887136713504
0.0825220756139335,0.0825220756139335
0.08953684195280526,0.08953684195280526
0.09354527986073198,0.09354527986073198
0.10156215567658541,0.10156215567658541
0.11458957887734725,0.11458957887734725
0.12962122103207244,0.12962122103207244
0.14014337054038006,0.14014337054038006
0.14715813687925183,0.14715813687925183
0.15617712217208693,0.15617712217208693
0.17020665484983044,0.17020665484983044
0.1822319685736106,0.1822319685736106
0.18573935174304648,0.18573935174304648
0.1787245854041747,0.1787245854041747
0.16669927168039456,0.16669927168039456
0.15367184847963275,0.15367184847963275
0.14064442527887092,0.14064442527887092
0.12561278312414573,0.12561278312414573
0.11108219570791136,0.11108219570791136
0.09655160829167701,0.09655160829167701
0.08101891139846099,0.08101891139846099
0.06448410502826328,0.06448410502826328
0.05045457235051976,0.05045457235051976
0.04293875127315717,0.04293875127315717
0.03943136810372129,0.03943136810372129
0.034420820718812896,0.034420820718812896
0.02740605437994114,0.02740605437994114
0.020391288041069384,0.020391288041069384
0.017886014348615187,0.017886014348615187
0.01487968591767015,0.01487968591767015
0.01287546696370679,0.01287546696370679
0.012374412225215951,0.012374412225215951
0.019890233302578546,0.019890233302578546
0.02840816385692282,0.02840816385692282
0.025401835425977782,0.025401835425977782
0.011372302748234272,0.011372302748234272
0.005860700624835036,0.005860700624835036
0.01337652170219763,0.01337652170219763
0.019389178564087707,0.019389178564087707
0.01437863117917931,0.01437863117917931
0.009869138532761753,0.009869138532761753
0.009869138532761753,0.009869138532761753
0.0008501532399266393,0.0008501532399266393
-0.009170941529890153,-0.009170941529890153
0.01487968591767015,0.01487968591767015
0.09404633459922282,0.09404633459922282
0.21480052657551518,0.21480052657551518
0.3721317144616388,0.3721317144616388
0.5820736498893007,0.5820736498893007
0.8075482822101785,0.8075482822101785
0.9217887625860899,0.9217887625860899
0.8115567201181052,0.8115567201181052
0.5099217675466197,0.5099217675466197
0.1897477896509732,0.1897477896509732
0.011372302748234272,0.011372302748234272
-0.007667777314417635,-0.007667777314417635
0.03341871124183122,0.03341871124183122
0.04794929865806557,0.04794929865806557
0.0294102733339045,0.0294102733339045
0.012374412225215951,0.012374412225215951
0.007864919578798394,0.007864919578798394
0.0008501532399266393,0.0008501532399266393
-0.010173051006871834,-0.010173051006871834
-0.014682543653289389,-0.014682543653289389
-0.012177269960835192,-0.012177269960835192
-0.013179379437816871,-0.013179379437816871
-0.017187817345743588,-0.017187817345743588
-0.015684653130271068,-0.015684653130271068
-0.009671996268380993,-0.009671996268380993
-0.008669886791399314,-0.008669886791399314
-0.01418148891479855,-0.01418148891479855
-0.019192036299706946,-0.019192036299706946
-0.018690981561216107,-0.018690981561216107
-0.020695200515179465,-0.020695200515179465
-0.02670785737706954,-0.02670785737706954
-0.032720514238959615,-0.032720514238959615
-0.02971418580801458,-0.02971418580801458
-0.018690981561216107,-0.018690981561216107
-0.010173051006871834,-0.010173051006871834
-0.01368043417630771,-0.01368043417630771
-0.024703638423106182,-0.024703638423106182
-0.032720514238959615,-0.032720514238959615
-0.032219459500468776,-0.032219459500468776
-0.02770996685405122,-0.02770996685405122
-0.020695200515179465,-0.020695200515179465
-0.008669886791399314,-0.008669886791399314
0.009368083794270914,0.009368083794270914
0.02790710911843198,0.02790710911843198
0.03943136810372129,0.03943136810372129
0.046446134442593046,0.046446134442593046
0.058471448166373195,0.058471448166373195
0.07801258296751595,0.07801258296751595
0.09605055355318617,0.09605055355318617
0.10306531989205793,0.10306531989205793
0.10256426515356709,0.10256426515356709
0.10356637463054877,0.10356637463054877
0.10957903149243885,0.10957903149243885
0.12010118100074649,0.12010118100074649
0.13713704210943503,0.13713704210943503
0.16018556008001364,0.16018556008001364
0.18022774961964724,0.18022774961964724
0.18924673491248234,0.18924673491248234
0.1862404064815373,0.1862404064815373
0.17621931171172053,0.17621931171172053
0.1606866148185045,0.1606866148185045
0.13864020632490756,0.13864020632490756
0.1115832504464022,0.1115832504464022
0.0875326229988419,0.0875326229988419
0.07199992610562587,0.07199992610562587
0.060976721858827396,0.060976721858827396
0.046947189181083884,0.046947189181083884
0.030913437549377018,0.030913437549377018
0.018888123825596865,0.018888123825596865
0.011372302748234272,0.011372302748234272
0.0008501532399266393,0.0008501532399266393
-0.01418148891479855,-0.01418148891479855
-0.022699419469142824,-0.022699419469142824
-0.018690981561216107,-0.018690981561216107
-0.007667777314417635,-0.007667777314417635
-0.0036593394064909175,-0.0036593394064909175
-0.004160394144981757,-0.004160394144981757
-0.0026572299295092383,-0.0026572299295092383
0.006862810101816715,0.006862810101816715
0.01437863117917931,0.01437863117917931
0.01387757644068847,0.01387757644068847
0.010871248009743432,0.010871248009743432
0.01387757644068847,0.01387757644068847
0.01738495961012435,0.01738495961012435
0.01387757644068847,0.01387757644068847
0.010370193271252593,0.010370193271252593
0.020391288041069384,0.020391288041069384
0.036926094411267096,0.036926094411267096
0.03592398493428541,0.03592398493428541
0.012374412225215951,0.012374412225215951
-0.001655120452527559,-0.001655120452527559
0.03291765650334038,0.03291765650334038
0.11960012626225565,0.11960012626225565
0.24235853719251135,0.24235853719251135
0.40570238194052505,0.40570238194052505
0.6311770142614029,0.6311770142614029
0.877695945598896,0.877695945598896
0.9954438091442434,0.9954438091442434
0.843123168643028,0.843123168643028
0.47234266215980675,0.47234266215980675
0.11609274309281976,0.11609274309281976
-0.04374371848575809,-0.04374371848575809
-0.03723000688537717,-0.03723000688537717
-0.004160394144981757,-0.004160394144981757
-0.005162503621963436,-0.005162503621963436
-0.008168832052908474,-0.008168832052908474
0.004858591147853356,0.004858591147853356
0.010871248009743432,0.010871248009743432
-0.0011540657140367194,-0.0011540657140367194
-0.013179379437816871,-0.013179379437816871
-0.01668676260725275,-0.01668676260725275
-0.020695200515179465,-0.020695200515179465
-0.027208912115560382,-0.027208912115560382
-0.027208912115560382,-0.027208912115560382
-0.020695200515179465,-0.020695200515179465
-0.015684653130271068,-0.015684653130271068
-0.011175160483853513,-0.011175160483853513
-0.004661448883472597,-0.004661448883472597
0.0043575364093625165,0.0043575364093625165
0.008867029055780073,0.008867029055780073
0.009368083794270914,0.009368083794270914
0.008365974317289233,0.008365974317289233
0.010370193271252593,0.010370193271252593
0.01487968591767015,0.01487968591767015
0.020892342779560227,0.020892342779560227
0.02790710911843198,0.02790710911843198
0.03592398493428541,0.03592398493428541
0.04243769653466633,0.04243769653466633
0.04444191548862969,0.04444191548862969
0.040433477580702974,0.040433477580702974
0.03542293019579457,0.03542293019579457
0.034921875457303735,0.034921875457303735
0.03943136810372129,0.03943136810372129
0.04544402496561137,0.04544402496561137
0.04845035339655641,0.04845035339655641
0.051456681827501446,0.051456681827501446
0.05947355764335488,0.05947355764335488
0.07450519979808007,0.07450519979808007
0.09154106090676863,0.09154106090676863
0.1050695388460213,0.1050695388460213
0.11308641466187473,0.11308641466187473
0.1190990715237648,0.1190990715237648
0.12761700207810908,0.12761700207810908
0.13964231580188924,0.13964231580188924
0.1506655200486877,0.1506655200486877
0.15768028638755946,0.15768028638755946
0.16118766955699534,0.16118766955699534
0.16369294324944952,0.16369294324944952
0.16619821694190373,0.16619821694190373
0.1682024358958671,0.1682024358958671
0.16519610746492205,0.16519610746492205
0.15517501269510525,0.15517501269510525
0.13763809684792586,0.13763809684792586
0.1165937978313106,0.1165937978313106
0.09705266303016785,0.09705266303016785
0.08202102087544266,0.08202102087544266
0.07149887136713504,0.07149887136713504
0.06247988607429992,0.06247988607429992
0.0534609007814648,0.0534609007814648
0.04444191548862969,0.04444191548862969
0.03943136810372129,0.03943136810372129
0.037427149149757935,0.037427149149757935
0.037427149149757935,0.037427149149757935
0.034420820718812896,0.034420820718812896
0.02590289016446862,0.02590289016446862
0.015380740656160989,0.015380740656160989
0.011372302748234272,0.011372302748234272
0.010871248009743432,0.010871248009743432
0.006862810101816715,0.006862810101816715
0.0033554269323808374,0.0033554269323808374
0.008365974317289233,0.008365974317289233
0.010370193271252593,0.010370193271252593
-0.009170941529890153,-0.009170941529890153
-0.033221568977450454,-0.033221568977450454
-0.011175160483853513,-0.011175160483853513
0.08151996613695182,0.08151996613695182
0.2253226760838228,0.2253226760838228
0.4041992177250525,0.4041992177250525
0.6261664668764945,0.6261664668764945
0.8611611392286983,0.8611611392286983
0.9929385354517891,0.9929385354517891
0.9007444635694746,0.9007444635694746
0.5981074015210075,0.5981074015210075
0.2478701393159106,0.2478701393159106
0.026403944902959463,0.026403944902959463
-0.021697309992161146,-0.021697309992161146
0.01588179539465183,0.01588179539465183
0.04293875127315717,0.04293875127315717
0.03842925862673961,0.03842925862673961
0.031915547026358695,0.031915547026358695
0.034420820718812896,0.034420820718812896
0.034420820718812896,0.034420820718812896
0.03141449228786786,0.03141449228786786
0.034921875457303735,0.034921875457303735
0.04293875127315717,0.04293875127315717
0.043439806011648006,0.043439806011648006
0.03842925862673961,0.03842925862673961
0.03842925862673961,0.03842925862673961
0.04243769653466633,0.04243769653466633
0.04193664179617549,0.04193664179617549
0.03943136810372129,0.03943136810372129
0.04293875127315717,0.04293875127315717
0.05446301025844648,0.05446301025844648
0.05947355764335488,0.05947355764335488
0.05045457235051976,0.05045457235051976
0.03391976598032206,0.03391976598032206
0.023397616472014424,0.023397616472014424
0.020892342779560227,0.020892342779560227
0.018387069087106026,0.018387069087106026
0.015380740656160989,0.015380740656160989
0.023397616472014424,0.023397616472014424
0.04494297022712053,0.04494297022712053
0.061477776597318234,0.061477776597318234
0.05396195551995564,0.05396195551995564
0.03041238281088618,0.03041238281088618
0.01387757644068847,0.01387757644068847
0.017886014348615187,0.017886014348615187
0.034921875457303735,0.034921875457303735
0.0509556270890106,0.0509556270890106
0.06047566712033656,0.06047566712033656
0.06749043345920831,0.06749043345920831
0.07650941875204344,0.07650941875204344
0.09154106090676863,0.09154106090676863
0.10757481253847549,0.10757481253847549
0.11809696204678312,0.11809696204678312
0.121604345216219,0.121604345216219
0.12611383786263655,0.12611383786263655
0.1381391515864167,0.1381391515864167
0.15768028638755946,0.15768028638755946
0.1772214211887022,0.1772214211887022
0.19175200860493655,0.19175200860493655
0.2012720486362625,0.2012720486362625
0.2072847054981526,0.2072847054981526
0.20978997919060677,0.20978997919060677
0.20678365075966174,0.20678365075966174
0.19325517282040908,0.19325517282040908
0.1707077095883213,0.1707077095883213
0.14365075370981595,0.14365075370981595
0.12110329047772816,0.12110329047772816
0.10807586727696633,0.10807586727696633
0.10156215567658541,0.10156215567658541
0.09605055355318617,0.09605055355318617
0.09003789669129611,0.09003789669129611
0.08452629456789687,0.08452629456789687
0.08302313035242435,0.08302313035242435
0.08552840404487855,0.08552840404487855
0.08853473247582358,0.08853473247582358
0.0875326229988419,0.0875326229988419
0.08202102087544266,0.08202102087544266
0.07049676189015336,0.07049676189015336
0.05696828395090068,0.05696828395090068
0.04193664179617549,0.04193664179617549
0.03341871124183122,0.03341871124183122
0.029911328072395337,0.029911328072395337
0.023898671210505262,0.023898671210505262
0.01487968591767015,0.01487968591767015
0.011873357486725111,0.011873357486725111
0.01337652170219763,0.01337652170219763
0.010370193271252593,0.010370193271252593
0.006862810101816715,0.006862810101816715
0.01588179539465183,0.01588179539465183
0.02840816385692282,0.02840816385692282
0.020391288041069384,0.020391288041069384
0.0013512079784174789,0.0013512079784174789
0.019389178564087707,0.019389178564087707
0.09955793672262206,0.09955793672262206
0.22031212869891442,0.22031212869891442
0.37513804289258385,0.37513804289258385
0.59359790887459,0.59359790887459
0.8581548107977532,0.8581548107977532
1.0375324071774739,1.0375324071774739
0.9733974006506464,0.9733974006506464
0.6567308059244357,0.6567308059244357
0.26791232885554417,0.26791232885554417
0.022896561733523585,0.022896561733523585
-0.01668676260725275,-0.01668676260725275
0.04293875127315717,0.04293875127315717
0.0825220756139335,0.0825220756139335
0.07901469244449763,0.07901469244449763
0.07250098084411671,0.07250098084411671
0.0760083640135526,0.0760083640135526
0.07400414505958923,0.07400414505958923
0.06698937872071747,0.06698937872071747
0.06849254293619,0.06849254293619
0.07300203558260755,0.07300203558260755
0.06548621450524496,0.06548621450524496
0.05496406499693732,0.05496406499693732
0.060976721858827396,0.060976721858827396
0.07801258296751595,0.07801258296751595
0.08151996613695182,0.08151996613695182
0.06548621450524496,0.06548621450524496
0.04594507970410221,0.04594507970410221
0.040433477580702974,0.040433477580702974
0.04143558705768465,0.04143558705768465
0.03842925862673961,0.03842925862673961
0.026403944902959463,0.026403944902959463
0.015380740656160989,0.015380740656160989
0.016883904871633507,0.016883904871633507
0.0294102733339045,0.0294102733339045
0.04143558705768465,0.04143558705768465
0.04544402496561137,0.04544402496561137
0.040433477580702974,0.040433477580702974
0.031915547026358695,0.031915547026358695
0.0243997259489961,0.0243997259489961
0.019890233302578546,0.019890233302578546
0.019890233302578546,0.019890233302578546
0.022896561733523585,0.022896561733523585
0.02890921859541366,0.02890921859541366
0.03943136810372129,0.03943136810372129
0.05396195551995564,0.05396195551995564
0.06899359767468084,0.06899359767468084
0.08402523982940603,0.08402523982940603
0.10306531989205793,0.10306531989205793
0.12461067364716404,0.12461067364716404
0.14415180844830677,0.14415180844830677
0.15617712217208693,0.15617712217208693
0.1646950527264312,0.1646950527264312
0.17621931171172053,0.17621931171172053
0.19425728229739075,0.19425728229739075
0.21179419814457012,0.21179419814457012
0.2228174023913686,0.2228174023913686
0.22432056660684113,0.22432056660684113
0.22031212869891442,0.22031212869891442
0.21429947183702433,0.21429947183702433
0.2072847054981526,0.2072847054981526
0.19776466546682664,0.19776466546682664
0.1847372422660648,0.1847372422660648
0.16970560011133962,0.16970560011133962
0.15617712217208693,0.15617712217208693
0.14415180844830677,0.14415180844830677
0.13212649472452664,0.13212649472452664
0.11960012626225565,0.11960012626225565
0.10857692201545717,0.10857692201545717
0.09905688198413122,0.09905688198413122
0.08903578721431442,0.08903578721431442
0.07701047349053428,0.07701047349053428
0.06799148819769917,0.06799148819769917
0.06398305028977243,0.06398305028977243
0.06298094081279075,0.06298094081279075
0.05897250290486404,0.05897250290486404
0.05295984604297396,0.05295984604297396
0.04594507970410221,0.04594507970410221
0.04293875127315717,0.04293875127315717
0.04143558705768465,0.04143558705768465
0.037928203888248774,0.037928203888248774
0.034921875457303735,0.034921875457303735
0.03542293019579457,0.03542293019579457
0.03642503967277625,0.03642503967277625
0.034420820718812896,0.034420820718812896
0.036926094411267096,0.036926094411267096
0.0534609007814648,0.0534609007814648
0.07049676189015336,0.07049676189015336
0.06648832398222664,0.06648832398222664
0.048951408135047246,0.048951408135047246
0.06047566712033656,0.06047566712033656
0.1266148926011274,0.1266148926011274
0.2363458803306213,0.2363458803306213
0.3806496450159831,0.3806496450159831
0.5815725951508097,0.5815725951508097
0.8326010191347204,0.8326010191347204
1.0325218597925656,1.0325218597925656
1.030517640838602,1.030517640838602
0.7759818336852555,0.7759818336852555
0.399689725078635,0.399689725078635
0.11408852413885641,0.11408852413885641
0.022395506995032743,0.022395506995032743
0.05546511973542816,0.05546511973542816
0.09154106090676863,0.09154106090676863
0.08803367773733274,0.08803367773733274
0.07550730927506176,0.07550730927506176
0.07450519979808007,0.07450519979808007
0.0709978166286442,0.0709978166286442
0.055966174473919,0.055966174473919
0.04494297022712053,0.04494297022712053
0.04444191548862969,0.04444191548862969
0.04243769653466633,0.04243769653466633
0.030913437549377018,0.030913437549377018
0.01738495961012435,0.01738495961012435
0.01387757644068847,0.01387757644068847
0.018387069087106026,0.018387069087106026
0.022395506995032743,0.022395506995032743
0.019389178564087707,0.019389178564087707
0.018387069087106026,0.018387069087106026
0.022896561733523585,0.022896561733523585
0.031915547026358695,0.031915547026358695
0.034921875457303735,0.034921875457303735
0.032416601764849534,0.032416601764849534
0.032416601764849534,0.032416601764849534
0.04093453231919381,0.04093453231919381
0.05396195551995564,0.05396195551995564
0.0659872692437358,0.0659872692437358
0.0760083640135526,0.0760083640135526
0.08803367773733274,0.08803367773733274
0.10106110093809458,0.10106110093809458
0.1115832504464022,0.1115832504464022
0.11960012626225565,0.11960012626225565
0.12912016629358158,0.12912016629358158
0.13864020632490756,0.13864020632490756
0.1416465347558526,0.1416465347558526
0.13864020632490756,0.13864020632490756
0.14064442527887092,0.14064442527887092
0.15467395795661443,0.15467395795661443
0.17120876432681212,0.17120876432681212
0.1772214211887022,0.1772214211887022
0.17421509275775715,0.17421509275775715
0.17521720223473886,0.17521720223473886
0.18774357069700984,0.18774357069700984
0.20678365075966174,0.20678365075966174
0.22181529291438692,0.22181529291438692
0.22933111399174952,0.22933111399174952
0.23133533294571287,0.23133533294571287
0.22832900451476784,0.22832900451476784
0.22181529291438692,0.22181529291438692
0.21179419814457012,0.21179419814457012
0.20026993915928082,0.20026993915928082
0.18674146122002816,0.18674146122002816
0.16970560011133962,0.16970560011133962
0.14715813687925183,0.14715813687925183
0.12260645469320068,0.12260645469320068
0.10106110093809458,0.10106110093809458
0.08853473247582358,0.08853473247582358
0.08352418509091519,0.08352418509091519
0.08101891139846099,0.08101891139846099
0.07701047349053428,0.07701047349053428
0.07199992610562587,0.07199992610562587
0.06799148819769917,0.06799148819769917
0.0659872692437358,0.0659872692437358
0.06498515976675412,0.06498515976675412
0.06348199555128159,0.06348199555128159
0.06348199555128159,0.06348199555128159
0.06799148819769917,0.06799148819769917
0.07500625453657091,0.07500625453657091
0.07951574718298847,0.07951574718298847
0.07951574718298847,0.07951574718298847
0.07901469244449763,0.07901469244449763
0.08001680192147931,0.08001680192147931
0.0825220756139335,0.0825220756139335
0.0825220756139335,0.0825220756139335
0.08051785665997015,0.08051785665997015
0.07701047349053428,0.07701047349053428
0.07199992610562587,0.07199992610562587
0.06548621450524496,0.06548621450524496
0.061477776597318234,0.061477776597318234
0.05947355764335488,0.05947355764335488
0.05646722921240984,0.05646722921240984
0.049452462873538085,0.049452462873538085
0.04293875127315717,0.04293875127315717
0.04444191548862969,0.04444191548862969
0.05446301025844648,0.05446301025844648
0.06298094081279075,0.06298094081279075
0.06498515976675412,0.06498515976675412
0.05947355764335488,0.05947355764335488
0.05496406499693732,0.05496406499693732
0.05295984604297396,0.05295984604297396
0.0534609007814648,0.0534609007814648
0.05045457235051976,0.05045457235051976
0.04494297022712053,0.04494297022712053
0.04293875127315717,0.04293875127315717
0.049452462873538085,0.049452462873538085
0.058471448166373195,0.058471448166373195
0.061477776597318234,0.061477776597318234
0.058471448166373195,0.058471448166373195
0.05897250290486404,0.05897250290486404
0.06448410502826328,0.06448410502826328
0.06398305028977243,0.06398305028977243
0.04845035339655641,0.04845035339655641
0.029911328072395337,0.029911328072395337
0.04845035339655641,0.04845035339655641
0.1381391515864167,0.1381391515864167
0.2909608468261228,0.2909608468261228
0.4773532095447151,0.4773532095447151
0.6827856523259593,0.6827856523259593
0.8802012192913502,0.8802012192913502
0.9769047838200823,0.9769047838200823
0.8586558655362441,0.8586558655362441
0.5374797781636159,0.5374797781636159
0.18874568017399151,0.18874568017399151
-0.008669886791399314,-0.008669886791399314
-0.037731061623868016,-0.037731061623868016
-0.006665667837435956,-0.006665667837435956
0.0033554269323808374,0.0033554269323808374
-0.0006530109755458796,-0.0006530109755458796
0.008365974317289233,0.008365974317289233
0.025401835425977782,0.025401835425977782
0.02840816385692282,0.02840816385692282
0.01287546696370679,0.01287546696370679
-0.005663558360454276,-0.005663558360454276
-0.012177269960835192,-0.012177269960835192
-0.0036593394064909175,-0.0036593394064909175
0.009869138532761753,0.009869138532761753
0.01588179539465183,0.01588179539465183
0.01287546696370679,0.01287546696370679
0.010370193271252593,0.010370193271252593
0.012374412225215951,0.012374412225215951
0.021393397518051065,0.021393397518051065
0.032416601764849534,0.032416601764849534
0.046947189181083884,0.046947189181083884
0.060976721858827396,0.060976721858827396
0.06999570715166252,0.06999570715166252
0.07300203558260755,0.07300203558260755
0.07400414505958923,0.07400414505958923
0.07751152822902511,0.07751152822902511
0.0825220756139335,0.0825220756139335
0.08402523982940603,0.08402523982940603
0.08101891139846099,0.08101891139846099
0.07751152822902511,0.07751152822902511
0.07901469244449763,0.07901469244449763
0.08352418509091519,0.08352418509091519
0.0875326229988419,0.0875326229988419
0.08903578721431442,0.08903578721431442
0.09003789669129611,0.09003789669129611
0.0925431703837503,0.0925431703837503
0.0950484440762045,0.0950484440762045
0.09855582724564038,0.09855582724564038
0.10557059358451214,0.10557059358451214
0.11408852413885641,0.11408852413885641
0.12010118100074649,0.12010118100074649
0.12210539995470984,0.12210539995470984
0.12511172838565487,0.12511172838565487
0.12962122103207244,0.12962122103207244
0.13012227577056326,0.13012227577056326
0.12461067364716404,0.12461067364716404
0.12260645469320068,0.12260645469320068
0.13212649472452664,0.13212649472452664
0.149663410571706,0.149663410571706
0.15918345060303196,0.15918345060303196
0.15517501269510525,0.15517501269510525
0.14615602740227016,0.14615602740227016
0.14415180844830677,0.14415180844830677
0.1491623558332152,0.1491623558332152
0.15216868426416022,0.15216868426416022
0.1481602463562335,0.1481602463562335
0.14114548001736174,0.14114548001736174
0.13763809684792586,0.13763809684792586
0.13613493263245335,0.13613493263245335
0.1316254399860358,0.1316254399860358
0.12110329047772816,0.12110329047772816
0.10907797675394801,0.10907797675394801
0.09955793672262206,0.09955793672262206
0.09304422512224114,0.09304422512224114
0.08803367773733274,0.08803367773733274
0.08502734930638771,0.08502734930638771
0.08653051352186023,0.08653051352186023
0.09003789669129611,0.09003789669129611
0.09003789669129611,0.09003789669129611
0.08602945878336939,0.08602945878336939
0.08402523982940603,0.08402523982940603
0.08452629456789687,0.08452629456789687
0.0825220756139335,0.0825220756139335
0.07450519979808007,0.07450519979808007
0.0659872692437358,0.0659872692437358
0.06448410502826328,0.06448410502826328
0.06698937872071747,0.06698937872071747
0.06498515976675412,0.06498515976675412
0.05997461238184572,0.05997461238184572
0.05546511973542816,0.05546511973542816
0.051456681827501446,0.051456681827501446
0.04494297022712053,0.04494297022712053
0.036926094411267096,0.036926094411267096
0.030913437549377018,0.030913437549377018
0.02840816385692282,0.02840816385692282
0.02740605437994114,0.02740605437994114
0.03141449228786786,0.03141449228786786
0.036926094411267096,0.036926094411267096
0.04243769653466633,0.04243769653466633
0.04594507970410221,0.04594507970410221
0.04995351761202892,0.04995351761202892
0.05295984604297396,0.05295984604297396
0.052458791304483124,0.052458791304483124
0.04794929865806557,0.04794929865806557
0.046446134442593046,0.046446134442593046
0.05396195551995564,0.05396195551995564
0.06548621450524496,0.06548621450524496
0.05897250290486404,0.05897250290486404
0.0269049996414503,0.0269049996414503
0.007864919578798394,0.007864919578798394
0.058471448166373195,0.058471448166373195
0.18874568017399151,0.18874568017399151
0.3646158933842762,0.3646158933842762
0.571551500380993,0.571551500380993
0.809051446425651,0.809051446425651
0.9959448638827342,0.9959448638827342
0.980913221728009,0.980913221728009
0.7133499913739005,0.7133499913739005
0.34256948489067923,0.34256948489067923
0.08001680192147931,0.08001680192147931
-0.001655120452527559,-0.001655120452527559
0.01588179539465183,0.01588179539465183
0.04193664179617549,0.04193664179617549
0.051957736565992285,0.051957736565992285
0.05496406499693732,0.05496406499693732
0.0509556270890106,0.0509556270890106
0.03943136810372129,0.03943136810372129
0.0294102733339045,0.0294102733339045
0.02890921859541366,0.02890921859541366
0.03391976598032206,0.03391976598032206
0.036926094411267096,0.036926094411267096
0.03391976598032206,0.03391976598032206
0.029911328072395337,0.029911328072395337
0.0294102733339045,0.0294102733339045
0.03291765650334038,0.03291765650334038
0.03341871124183122,0.03341871124183122
0.03291765650334038,0.03291765650334038
0.034921875457303735,0.034921875457303735
0.04444191548862969,0.04444191548862969
0.05295984604297396,0.05295984604297396
0.05546511973542816,0.05546511973542816
0.05295984604297396,0.05295984604297396
0.051957736565992285,0.051957736565992285
0.055966174473919,0.055966174473919
0.06298094081279075,0.06298094081279075
0.06749043345920831,0.06749043345920831
0.06698937872071747,0.06698937872071747
0.06548621450524496,0.06548621450524496
0.06799148819769917,0.06799148819769917
0.07500625453657091,0.07500625453657091
0.08502734930638771,0.08502734930638771
0.09404633459922282,0.09404633459922282
0.09905688198413122,0.09905688198413122
0.09955793672262206,0.09955793672262206
0.09805477250714954,0.09805477250714954
0.09705266303016785,0.09705266303016785
0.10106110093809458,0.10106110093809458
0.11058114096942052,0.11058114096942052
0.12461067364716404,0.12461067364716404
0.1356338778939625,0.1356338778939625
0.13763809684792586,0.13763809684792586
0.13212649472452664,0.13212649472452664
0.1281180568165999,0.1281180568165999
0.13212649472452664,0.13212649472452664
0.14214758949434342,0.14214758949434342
0.14715813687925183,0.14715813687925183
0.14365075370981595,0.14365075370981595
0.13914126106339839,0.13914126106339839
0.1416465347558526,0.1416465347558526
0.14665708214076098,0.14665708214076098
0.13914126106339839,0.13914126106339839
0.11609274309281976,0.11609274309281976
0.0925431703837503,0.0925431703837503
0.08001680192147931,0.08001680192147931
0.07149887136713504,0.07149887136713504
0.05897250290486404,0.05897250290486404
0.04594507970410221,0.04594507970410221
0.04143558705768465,0.04143558705768465
0.04394086075013885,0.04394086075013885
0.04293875127315717,0.04293875127315717
0.037928203888248774,0.037928203888248774
0.03642503967277625,0.03642503967277625
0.03993242284221213,0.03993242284221213
0.04143558705768465,0.04143558705768465
0.03592398493428541,0.03592398493428541
0.024900780687486943,0.024900780687486943
0.016883904871633507,0.016883904871633507
0.01437863117917931,0.01437863117917931
0.019890233302578546,0.019890233302578546
0.025401835425977782,0.025401835425977782
0.0294102733339045,0.0294102733339045
0.0294102733339045,0.0294102733339045
0.02740605437994114,0.02740605437994114
0.02840816385692282,0.02840816385692282
0.034921875457303735,0.034921875457303735
0.03943136810372129,0.03943136810372129
0.034921875457303735,0.034921875457303735
0.02740605437994114,0.02740605437994114
0.03141449228786786,0.03141449228786786
0.037928203888248774,0.037928203888248774
0.025401835425977782,0.025401835425977782
0.002854372193889998,0.002854372193889998
0.012374412225215951,0.012374412225215951
0.07500625453657091,0.07500625453657091
0.174716147496248,0.174716147496248
0.31250620058122885,0.31250620058122885
0.5144312601930372,0.5144312601930372
0.7529333157146769,0.7529333157146769
0.8982391898770204,0.8982391898770204
0.818070431718486,0.818070431718486
0.5324692307787074,0.5324692307787074
0.21830790974495104,0.21830790974495104
0.05045457235051976,0.05045457235051976
0.046947189181083884,0.046947189181083884
0.0950484440762045,0.0950484440762045
0.10106110093809458,0.10106110093809458
0.07049676189015336,0.07049676189015336
0.05446301025844648,0.05446301025844648
0.06047566712033656,0.06047566712033656
0.05997461238184572,0.05997461238184572
0.04494297022712053,0.04494297022712053
0.03341871124183122,0.03341871124183122
0.030913437549377018,0.030913437549377018
0.0294102733339045,0.0294102733339045
0.0269049996414503,0.0269049996414503
0.03291765650334038,0.03291765650334038
0.04293875127315717,0.04293875127315717
0.04494297022712053,0.04494297022712053
0.037928203888248774,0.037928203888248774
0.030913437549377018,0.030913437549377018
0.029911328072395337,0.029911328072395337
0.029911328072395337,0.029911328072395337
0.03141449228786786,0.03141449228786786
0.03141449228786786,0.03141449228786786
0.029911328072395337,0.029911328072395337
0.0243997259489961,0.0243997259489961
0.015380740656160989,0.015380740656160989
0.006862810101816715,0.006862810101816715
0.0018522627169083187,0.0018522627169083187
0.0008501532399266393,0.0008501532399266393
0.0008501532399266393,0.0008501532399266393
-0.001655120452527559,-0.001655120452527559
-0.007166722575926795,-0.007166722575926795
-0.012177269960835192,-0.012177269960835192
-0.009170941529890153,-0.009170941529890153
0.0033554269323808374,0.0033554269323808374
0.021894452256541904,0.021894452256541904
0.03993242284221213,0.03993242284221213
0.05696828395090068,0.05696828395090068
0.07450519979808007,0.07450519979808007
0.09554949881469534,0.09554949881469534
0.11759590730829228,0.11759590730829228
0.13613493263245335,0.13613493263245335
0.15016446531019687,0.15016446531019687
0.16218977903397702,0.16218977903397702
0.1772214211887022,0.1772214211887022
0.1962615012513541,0.1962615012513541
0.21429947183702433,0.21429947183702433
0.2253226760838228,0.2253226760838228
0.22933111399174952,0.22933111399174952
0.22782794977627702,0.22782794977627702
0.21981107396042357,0.21981107396042357
0.20327626759022585,0.20327626759022585
0.18122985909662892,0.18122985909662892
0.16619821694190373,0.16619821694190373
0.1571792316490686,0.1571792316490686
0.14765919161774266,0.14765919161774266
0.1281180568165999,0.1281180568165999
0.09955793672262206,0.09955793672262206
0.07300203558260755,0.07300203558260755
0.055966174473919,0.055966174473919
0.04143558705768465,0.04143558705768465
0.025401835425977782,0.025401835425977782
0.01387757644068847,0.01387757644068847
0.01437863117917931,0.01437863117917931
0.012374412225215951,0.012374412225215951
-0.009671996268380993,-0.009671996268380993
-0.0337226237159413,-0.0337226237159413
-0.009671996268380993,-0.009671996268380993
0.08803367773733274,0.08803367773733274
0.24636697510043806,0.24636697510043806
0.4578120747435724,0.4578120747435724
0.7198637029742815,0.7198637029742815
0.9623741964038479,0.9623741964038479
1.040538735608419,1.040538735608419
0.8591569202747349,0.8591569202747349
0.5009027822537846,0.5009027822537846
0.1707077095883213,0.1707077095883213
0.01337652170219763,0.01337652170219763
0.012374412225215951,0.012374412225215951
0.05746933868939152,0.05746933868939152
0.07300203558260755,0.07300203558260755
0.06298094081279075,0.06298094081279075
0.05797039342788236,0.05797039342788236
0.061477776597318234,0.061477776597318234
0.05997461238184572,0.05997461238184572
0.05446301025844648,0.05446301025844648
0.05746933868939152,0.05746933868939152
0.06799148819769917,0.06799148819769917
0.07250098084411671,0.07250098084411671
0.06849254293619,0.06849254293619
0.06398305028977243,0.06398305028977243
0.060976721858827396,0.060976721858827396
0.048951408135047246,0.048951408135047246
0.02740605437994114,0.02740605437994114
0.005860700624835036,0.005860700624835036
-0.0006530109755458796,-0.0006530109755458796
0.0033554269323808374,0.0033554269323808374
0.007363864840307555,0.007363864840307555
0.0008501532399266393,0.0008501532399266393
-0.013179379437816871,-0.013179379437816871
-0.0262068026385787,-0.0262068026385787
-0.0337226237159413,-0.0337226237159413
-0.03873317110084969,-0.03873317110084969
-0.04274160900877641,-0.04274160900877641
-0.04173949953179473,-0.04173949953179473
-0.032219459500468776,-0.032219459500468776
-0.017688872084234426,-0.017688872084234426
-0.0036593394064909175,-0.0036593394064909175
0.007363864840307555,0.007363864840307555
0.020391288041069384,0.020391288041069384
0.036926094411267096,0.036926094411267096
0.05295984604297396,0.05295984604297396
0.06448410502826328,0.06448410502826328
0.07500625453657091,0.07500625453657091
0.0875326229988419,0.0875326229988419
0.10456848410753045,0.10456848410753045
0.12511172838565487,0.12511172838565487
0.15266973900265104,0.15266973900265104
0.1847372422660648,0.1847372422660648
0.2112931434060793,0.2112931434060793
0.22231634765287778,0.22231634765287778
0.22031212869891442,0.22031212869891442
0.22031212869891442,0.22031212869891442
0.23434166137665793,0.23434166137665793
0.25638806987025486,0.25638806987025486
0.2719207667634709,0.2719207667634709
0.27141971202498,0.27141971202498
0.25939439830119987,0.25939439830119987
0.2428595919310022,0.2428595919310022
0.22031212869891442,0.22031212869891442
0.18874568017399151,0.18874568017399151
0.15166762952566937,0.15166762952566937
0.11709485256980144,0.11709485256980144
0.0875326229988419,0.0875326229988419
0.06047566712033656,0.06047566712033656
0.037427149149757935,0.037427149149757935
0.022395506995032743,0.022395506995032743
0.016382850133142668,0.016382850133142668
0.01287546696370679,0.01287546696370679
0.007363864840307555,0.007363864840307555
-0.001655120452527559,-0.001655120452527559
-0.008669886791399314,-0.008669886791399314
-0.008168832052908474,-0.008168832052908474
-0.0006530109755458796,-0.0006530109755458796
0.002854372193889998,0.002854372193889998
-0.004661448883472597,-0.004661448883472597
-0.01818992682272527,-0.01818992682272527
-0.020194145776688627,-0.020194145776688627
-0.0006530109755458796,-0.0006530109755458796
0.0294102733339045,0.0294102733339045
0.051957736565992285,0.051957736565992285
0.05947355764335488,0.05947355764335488
0.060976721858827396,0.060976721858827396
0.06849254293619,0.06849254293619
0.08051785665997015,0.08051785665997015
0.08653051352186023,0.08653051352186023
0.08352418509091519,0.08352418509091519
0.07851363770600679,0.07851363770600679
0.07951574718298847,0.07951574718298847
0.08151996613695182,0.08151996613695182
0.07801258296751595,0.07801258296751595
0.07049676189015336,0.07049676189015336
0.06398305028977243,0.06398305028977243
0.060976721858827396,0.060976721858827396
0.05746933868939152,0.05746933868939152
0.0534609007814648,0.0534609007814648
0.04544402496561137,0.04544402496561137
0.03391976598032206,0.03391976598032206
0.024900780687486943,0.024900780687486943
0.0243997259489961,0.0243997259489961
0.02590289016446862,0.02590289016446862
0.017886014348615187,0.017886014348615187
0.0023533174553991582,0.0023533174553991582
-0.004160394144981757,-0.004160394144981757
-0.0011540657140367194,-0.0011540657140367194
-0.009671996268380993,-0.009671996268380993
-0.044244773224248926,-0.044244773224248926
-0.07781544070313517,-0.07781544070313517
-0.059276415378974115,-0.059276415378974115
0.040433477580702974,0.040433477580702974
0.2012720486362625,0.2012720486362625
0.39167284926278156,0.39167284926278156
0.6076274415523334,0.6076274415523334
0.824584143318867,0.824584143318867
0.9328119668328884,0.9328119668328884
0.8080493369486693,0.8080493369486693
0.4758500453292426,0.4758500453292426
0.13763809684792586,0.13763809684792586
-0.02520469316159702,-0.02520469316159702
-0.022699419469142824,-0.022699419469142824
0.019890233302578546,0.019890233302578546
0.03592398493428541,0.03592398493428541
0.04143558705768465,0.04143558705768465
0.049452462873538085,0.049452462873538085
0.04394086075013885,0.04394086075013885
0.02590289016446862,0.02590289016446862
0.01738495961012435,0.01738495961012435
0.022395506995032743,0.022395506995032743
0.021393397518051065,0.021393397518051065
0.007864919578798394,0.007864919578798394
-0.006665667837435956,-0.006665667837435956
-0.01368043417630771,-0.01368043417630771
-0.01618570786876191,-0.01618570786876191
-0.01668676260725275,-0.01668676260725275
-0.020194145776688627,-0.020194145776688627
-0.02520469316159702,-0.02520469316159702
-0.02971418580801458,-0.02971418580801458
-0.027208912115560382,-0.027208912115560382
-0.019192036299706946,-0.019192036299706946
-0.010674105745362672,-0.010674105745362672
-0.004661448883472597,-0.004661448883472597
0.0003490985014357996,0.0003490985014357996
0.006862810101816715,0.006862810101816715
0.015380740656160989,0.015380740656160989
0.0243997259489961,0.0243997259489961
0.03391976598032206,0.03391976598032206
0.04193664179617549,0.04193664179617549
0.04744824391957472,0.04744824391957472
0.048951408135047246,0.048951408135047246
0.049452462873538085,0.049452462873538085
0.0534609007814648,0.0534609007814648
0.06298094081279075,0.06298094081279075
0.07500625453657091,0.07500625453657091
0.08602945878336939,0.08602945878336939
0.09354527986073198,0.09354527986073198
0.09855582724564038,0.09855582724564038
0.10206321041507625,0.10206321041507625
0.10456848410753045,0.10456848410753045
0.10607164832300298,0.10607164832300298
0.10707375779998465,0.10707375779998465
0.10957903149243885,0.10957903149243885
0.11308641466187473,0.11308641466187473
0.11509063361583809,0.11509063361583809
0.11308641466187473,0.11308641466187473
0.10907797675394801,0.10907797675394801
0.1050695388460213,0.1050695388460213
0.10156215567658541,0.10156215567658541
0.09554949881469534,0.09554949881469534
0.08502734930638771,0.08502734930638771
0.0709978166286442,0.0709978166286442
0.05646722921240984,0.05646722921240984
0.04444191548862969,0.04444191548862969
0.037427149149757935,0.037427149149757935
0.034420820718812896,0.034420820718812896
0.032416601764849534,0.032416601764849534
0.02840816385692282,0.02840816385692282
0.021894452256541904,0.021894452256541904
0.016382850133142668,0.016382850133142668
0.015380740656160989,0.015380740656160989
0.018387069087106026,0.018387069087106026
0.022395506995032743,0.022395506995032743
0.025401835425977782,0.025401835425977782
0.02790710911843198,0.02790710911843198
0.03041238281088618,0.03041238281088618
0.03341871124183122,0.03341871124183122
0.03642503967277625,0.03642503967277625
0.04093453231919381,0.04093453231919381
0.046446134442593046,0.046446134442593046
0.05045457235051976,0.05045457235051976
0.051456681827501446,0.051456681827501446
0.05045457235051976,0.05045457235051976
0.0509556270890106,0.0509556270890106
0.0534609007814648,0.0534609007814648
0.05396195551995564,0.05396195551995564
0.04995351761202892,0.04995351761202892
0.04394086075013885,0.04394086075013885
0.040433477580702974,0.040433477580702974
0.03943136810372129,0.03943136810372129
0.03842925862673961,0.03842925862673961
0.03642503967277625,0.03642503967277625
0.032416601764849534,0.032416601764849534
0.025401835425977782,0.025401835425977782
0.01588179539465183,0.01588179539465183
0.007864919578798394,0.007864919578798394
0.004858591147853356,0.004858591147853356
0.005860700624835036,0.005860700624835036
0.009869138532761753,0.009869138532761753
0.01738495961012435,0.01738495961012435
0.0243997259489961,0.0243997259489961
0.026403944902959463,0.026403944902959463
0.024900780687486943,0.024900780687486943
0.02740605437994114,0.02740605437994114
0.036926094411267096,0.036926094411267096
0.04494297022712053,0.04494297022712053
0.04243769653466633,0.04243769653466633
0.034921875457303735,0.034921875457303735
0.032416601764849534,0.032416601764849534
0.03893031336523045,0.03893031336523045
0.04845035339655641,0.04845035339655641
0.05646722921240984,0.05646722921240984
0.06047566712033656,0.06047566712033656
0.058471448166373195,0.058471448166373195
0.05295984604297396,0.05295984604297396
0.04744824391957472,0.04744824391957472
0.046446134442593046,0.046446134442593046
0.046446134442593046,0.046446134442593046
0.04193664179617549,0.04193664179617549
0.034921875457303735,0.034921875457303735
0.02590289016446862,0.02590289016446862
0.016382850133142668,0.016382850133142668
0.006361755363325876,0.006361755363325876
0.002854372193889998,0.002854372193889998
0.004858591147853356,0.004858591147853356
0.006862810101816715,0.006862810101816715
0.006862810101816715,0.006862810101816715
0.009869138532761753,0.009869138532761753
0.015380740656160989,0.015380740656160989
0.01588179539465183,0.01588179539465183
0.01287546696370679,0.01287546696370679
0.01337652170219763,0.01337652170219763
0.008365974317289233,0.008365974317289233
-0.017187817345743588,-0.017187817345743588
-0.047752156393684804,-0.047752156393684804
-0.032219459500468776,-0.032219459500468776
0.06047566712033656,0.06047566712033656
0.21279630762155183,0.21279630762155183
0.3956812871707083,0.3956812871707083
0.602616894167425,0.602616894167425
0.8040408990407426,0.8040408990407426
0.9087613393853281,0.9087613393853281
0.8115567201181052,0.8115567201181052
0.5174375886239823,0.5174375886239823
0.17421509275775715,0.17421509275775715
-0.03923422583934053,-0.03923422583934053
-0.06829540067180923,-0.06829540067180923
-0.0036593394064909175,-0.0036593394064909175
0.043439806011648006,0.043439806011648006
0.048951408135047246,0.048951408135047246
0.04995351761202892,0.04995351761202892
0.06498515976675412,0.06498515976675412
0.07450519979808007,0.07450519979808007
0.06498515976675412,0.06498515976675412
0.049452462873538085,0.049452462873538085
0.03842925862673961,0.03842925862673961
0.032416601764849534,0.032416601764849534
0.02790710911843198,0.02790710911843198
0.026403944902959463,0.026403944902959463
0.025401835425977782,0.025401835425977782
0.020391288041069384,0.020391288041069384
0.01337652170219763,0.01337652170219763
0.007864919578798394,0.007864919578798394
0.006862810101816715,0.006862810101816715
0.005860700624835036,0.005860700624835036
0.0033554269323808374,0.0033554269323808374
-0.0006530109755458796,-0.0006530109755458796
-0.0026572299295092383,-0.0026572299295092383
0.0008501532399266393,0.0008501532399266393
0.009368083794270914,0.009368083794270914
0.01487968591767015,0.01487968591767015
0.011372302748234272,0.011372302748234272
0.003856481670871677,0.003856481670871677
0.0043575364093625165,0.0043575364093625165
0.015380740656160989,0.015380740656160989
0.02790710911843198,0.02790710911843198
0.03391976598032206,0.03391976598032206
0.036926094411267096,0.036926094411267096
0.04143558705768465,0.04143558705768465
0.04594507970410221,0.04594507970410221
0.04744824391957472,0.04744824391957472
0.051957736565992285,0.051957736565992285
0.06698937872071747,0.06698937872071747
0.09053895142978695,0.09053895142978695
0.11408852413885641,0.11408852413885641
0.1316254399860358,0.1316254399860358
0.14465286318679763,0.14465286318679763
0.15617712217208693,0.15617712217208693
0.16619821694190373,0.16619821694190373
0.17271192854228465,0.17271192854228465
0.1782235306656839,0.1782235306656839
0.18373513278908313,0.18373513278908313
0.18774357069700984,0.18774357069700984
0.18523829700455563,0.18523829700455563
0.1772214211887022,0.1772214211887022
0.1672003264188854,0.1672003264188854
0.15818134112605028,0.15818134112605028
0.14465286318679763,0.14465286318679763
0.1241096189086732,0.1241096189086732
0.1000589914611129,0.1000589914611129
0.07901469244449763,0.07901469244449763
0.05997461238184572,0.05997461238184572
0.03893031336523045,0.03893031336523045
0.016382850133142668,0.016382850133142668
0.0008501532399266393,0.0008501532399266393
-0.00015195623705504003,-0.00015195623705504003
0.006862810101816715,0.006862810101816715
0.009869138532761753,0.009869138532761753
0.002854372193889998,0.002854372193889998
-0.010173051006871834,-0.010173051006871834
-0.020194145776688627,-0.020194145776688627
-0.023200474207633662,-0.023200474207633662
-0.021196255253670304,-0.021196255253670304
-0.017187817345743588,-0.017187817345743588
-0.01267832469932603,-0.01267832469932603
-0.010674105745362672,-0.010674105745362672
-0.010674105745362672,-0.010674105745362672
-0.007667777314417635,-0.007667777314417635
0.0013512079784174789,0.0013512079784174789
0.01337652170219763,0.01337652170219763
0.021894452256541904,0.021894452256541904
0.02590289016446862,0.02590289016446862
0.029911328072395337,0.029911328072395337
0.03943136810372129,0.03943136810372129
0.048951408135047246,0.048951408135047246
0.048951408135047246,0.048951408135047246
0.04093453231919381,0.04093453231919381
0.03842925862673961,0.03842925862673961
0.04193664179617549,0.04193664179617549
0.03842925862673961,0.03842925862673961
0.0294102733339045,0.0294102733339045
0.030913437549377018,0.030913437549377018
0.03943136810372129,0.03943136810372129
0.0294102733339045,0.0294102733339045
0.007864919578798394,0.007864919578798394
0.025401835425977782,0.025401835425977782
0.11809696204678312,0.11809696204678312
0.2719207667634709,0.2719207667634709
0.4693363337288617,0.4693363337288617
0.6993204586961571,0.6993204586961571
0.8942307519690937,0.8942307519690937
0.9197845436321265,0.9197845436321265
0.7038299513425746,0.7038299513425746
0.346577922798606,0.346577922798606
0.046947189181083884,0.046947189181083884
-0.07931860491860769,-0.07931860491860769
-0.06779434593331839,-0.06779434593331839
-0.020695200515179465,-0.020695200515179465
0.0023533174553991582,0.0023533174553991582
0.0013512079784174789,0.0013512079784174789
-0.004661448883472597,-0.004661448883472597
-0.010173051006871834,-0.010173051006871834
-0.019192036299706946,-0.019192036299706946
-0.0262068026385787,-0.0262068026385787
-0.022198364730651985,-0.022198364730651985
-0.007667777314417635,-0.007667777314417635
0.006361755363325876,0.006361755363325876
0.01437863117917931,0.01437863117917931
0.021393397518051065,0.021393397518051065
0.03141449228786786,0.03141449228786786
0.03893031336523045,0.03893031336523045
0.04143558705768465,0.04143558705768465
0.03842925862673961,0.03842925862673961
0.037928203888248774,0.037928203888248774
0.03893031336523045,0.03893031336523045
0.036926094411267096,0.036926094411267096
0.030913437549377018,0.030913437549377018
0.0243997259489961,0.0243997259489961
0.023898671210505262,0.023898671210505262
0.0294102733339045,0.0294102733339045
0.031915547026358695,0.031915547026358695
0.0269049996414503,0.0269049996414503
0.021393397518051065,0.021393397518051065
0.023397616472014424,0.023397616472014424
0.03341871124183122,0.03341871124183122
0.04193664179617549,0.04193664179617549
0.04143558705768465,0.04143558705768465
0.03592398493428541,0.03592398493428541
0.03592398493428541,0.03592398493428541
0.04744824391957472,0.04744824391957472
0.06448410502826328,0.06448410502826328
0.08001680192147931,0.08001680192147931
0.09204211564525946,0.09204211564525946
0.10256426515356709,0.10256426515356709
0.11408852413885641,0.11408852413885641
0.1281180568165999,0.1281180568165999
0.1481602463562335,0.1481602463562335
0.17321298328077547,0.17321298328077547
0.19325517282040908,0.19325517282040908
0.19425728229739075,0.19425728229739075
0.1772214211887022,0.1772214211887022
0.15918345060303196,0.15918345060303196
0.15517501269510525,0.15517501269510525
0.16168872429548617,0.16168872429548617
0.16218977903397702,0.16218977903397702
0.15016446531019687,0.15016446531019687
0.13262754946301747,0.13262754946301747
0.11609274309281976,0.11609274309281976
0.09955793672262206,0.09955793672262206
0.07901469244449763,0.07901469244449763
0.05696828395090068,0.05696828395090068
0.03943136810372129,0.03943136810372129
0.02890921859541366,0.02890921859541366
0.022896561733523585,0.022896561733523585
0.01588179539465183,0.01588179539465183
0.009869138532761753,0.009869138532761753
0.006862810101816715,0.006862810101816715
0.005860700624835036,0.005860700624835036
0.0008501532399266393,0.0008501532399266393
-0.007667777314417635,-0.007667777314417635
-0.012177269960835192,-0.012177269960835192
-0.004661448883472597,-0.004661448883472597
0.007363864840307555,0.007363864840307555
0.009368083794270914,0.009368083794270914
-0.003158284668000078,-0.003158284668000078
-0.017688872084234426,-0.017688872084234426
-0.020194145776688627,-0.020194145776688627
-0.011175160483853513,-0.011175160483853513
-0.0021561751910183988,-0.0021561751910183988
0.0013512079784174789,0.0013512079784174789
0.0023533174553991582,0.0023533174553991582
0.0023533174553991582,0.0023533174553991582
0.002854372193889998,0.002854372193889998
0.0033554269323808374,0.0033554269323808374
0.003856481670871677,0.003856481670871677
0.0023533174553991582,0.0023533174553991582
-0.0021561751910183988,-0.0021561751910183988
-0.005162503621963436,-0.005162503621963436
-0.004160394144981757,-0.004160394144981757
0.0003490985014357996,0.0003490985014357996
0.005860700624835036,0.005860700624835036
0.012374412225215951,0.012374412225215951
0.022896561733523585,0.022896561733523585
0.034921875457303735,0.034921875457303735
0.04293875127315717,0.04293875127315717
0.04544402496561137,0.04544402496561137
0.04794929865806557,0.04794929865806557
0.05496406499693732,0.05496406499693732
0.06548621450524496,0.06548621450524496
0.0709978166286442,0.0709978166286442
0.06799148819769917,0.06799148819769917
0.06047566712033656,0.06047566712033656
0.05396195551995564,0.05396195551995564
0.04845035339655641,0.04845035339655641
0.04143558705768465,0.04143558705768465
0.036926094411267096,0.036926094411267096
0.03341871124183122,0.03341871124183122
0.02890921859541366,0.02890921859541366
0.017886014348615187,0.017886014348615187
0.006361755363325876,0.006361755363325876
0.0023533174553991582,0.0023533174553991582
0.005860700624835036,0.005860700624835036
0.008867029055780073,0.008867029055780073
0.008365974317289233,0.008365974317289233
0.008365974317289233,0.008365974317289233
0.01287546696370679,0.01287546696370679
0.018387069087106026,0.018387069087106026
0.01337652170219763,0.01337652170219763
-0.01368043417630771,-0.01368043417630771
-0.05075848482462984,-0.05075848482462984
-0.05426586799406572,-0.05426586799406572
0.019389178564087707,0.019389178564087707
0.16619821694190373,0.16619821694190373
0.34858214175256935,0.34858214175256935
0.549505091887396,0.549505091887396
0.7574428083610945,0.7574428083610945
0.893228642492112,0.893228642492112
0.8310978549192479,0.8310978549192479
0.5449955992409785,0.5449955992409785
0.18523829700455563,0.18523829700455563
-0.050257430086139004,-0.050257430086139004
-0.09986184919673212,-0.09986184919673212
-0.047752156393684804,-0.047752156393684804
0.0043575364093625165,0.0043575364093625165
0.0269049996414503,0.0269049996414503
0.034420820718812896,0.034420820718812896
0.03893031336523045,0.03893031336523045
0.04093453231919381,0.04093453231919381
0.04293875127315717,0.04293875127315717
0.04794929865806557,0.04794929865806557
0.05295984604297396,0.05295984604297396
0.0509556270890106,0.0509556270890106
0.04243769653466633,0.04243769653466633
0.037928203888248774,0.037928203888248774
0.04394086075013885,0.04394086075013885
0.0534609007814648,0.0534609007814648
0.05295984604297396,0.05295984604297396
0.043439806011648006,0.043439806011648006
0.03341871124183122,0.03341871124183122
0.0294102733339045,0.0294102733339045
0.024900780687486943,0.024900780687486943
0.01487968591767015,0.01487968591767015
0.002854372193889998,0.002854372193889998
-0.006665667837435956,-0.006665667837435956
-0.009671996268380993,-0.009671996268380993
-0.007667777314417635,-0.007667777314417635
-0.0026572299295092383,-0.0026572299295092383
0.0043575364093625165,0.0043575364093625165
0.011873357486725111,0.011873357486725111
0.017886014348615187,0.017886014348615187
0.0243997259489961,0.0243997259489961
0.034921875457303735,0.034921875457303735
0.04744824391957472,0.04744824391957472
0.05646722921240984,0.05646722921240984
0.05746933868939152,0.05746933868939152
0.05746933868939152,0.05746933868939152
0.06298094081279075,0.06298094081279075
0.07250098084411671,0.07250098084411671
0.08051785665997015,0.08051785665997015
0.08853473247582358,0.08853473247582358
0.10406742936903961,0.10406742936903961
0.13212649472452664,0.13212649472452664
0.16669927168039456,0.16669927168039456
0.1937562275588999,0.1937562275588999
0.2062825960211709,0.2062825960211709
0.2072847054981526,0.2072847054981526
0.2077857602366434,0.2077857602366434
0.21279630762155183,0.21279630762155183
0.21830790974495104,0.21830790974495104
0.21580263605249686,0.21580263605249686
0.20227415811324417,0.20227415811324417
0.18373513278908313,0.18373513278908313
0.16569716220341288,0.16569716220341288
0.1481602463562335,0.1481602463562335
0.1266148926011274,0.1266148926011274
0.09855582724564038,0.09855582724564038
0.07049676189015336,0.07049676189015336
0.0509556270890106,0.0509556270890106
0.03842925862673961,0.03842925862673961
0.024900780687486943,0.024900780687486943
0.009368083794270914,0.009368083794270914
0.0033554269323808374,0.0033554269323808374
0.009869138532761753,0.009869138532761753
0.018888123825596865,0.018888123825596865
0.018387069087106026,0.018387069087106026
0.011372302748234272,0.011372302748234272
0.008365974317289233,0.008365974317289233
0.012374412225215951,0.012374412225215951
0.016382850133142668,0.016382850133142668
0.01738495961012435,0.01738495961012435
0.017886014348615187,0.017886014348615187
0.019890233302578546,0.019890233302578546
0.021393397518051065,0.021393397518051065
0.023397616472014424,0.023397616472014424
0.024900780687486943,0.024900780687486943
0.023898671210505262,0.023898671210505262
0.01588179539465183,0.01588179539465183
0.002854372193889998,0.002854372193889998
-0.008669886791399314,-0.008669886791399314
-0.008168832052908474,-0.008168832052908474
0.003856481670871677,0.003856481670871677
0.017886014348615187,0.017886014348615187
0.02890921859541366,0.02890921859541366
0.040433477580702974,0.040433477580702974
0.04995351761202892,0.04995351761202892
0.05295984604297396,0.05295984604297396
0.05045457235051976,0.05045457235051976
0.05396195551995564,0.05396195551995564
0.058471448166373195,0.058471448166373195
0.046446134442593046,0.046446134442593046
0.020391288041069384,0.020391288041069384
0.015380740656160989,0.015380740656160989
0.06247988607429992,0.06247988607429992
0.1682024358958671,0.1682024358958671
0.3315462806438808,0.3315462806438808
0.5510082561028685,0.5510082561028685
0.7895103116245082,0.7895103116245082
0.9368204047408151,0.9368204047408151
0.8731864529524784,0.8731864529524784
0.5860820877972274,0.5860820877972274
0.22482162134533196,0.22482162134533196
-0.015684653130271068,-0.015684653130271068
-0.0602785248559558,-0.0602785248559558
0.0033554269323808374,0.0033554269323808374
0.051456681827501446,0.051456681827501446
0.04744824391957472,0.04744824391957472
0.02840816385692282,0.02840816385692282
0.019890233302578546,0.019890233302578546
0.010871248009743432,0.010871248009743432
-0.005162503621963436,-0.005162503621963436
-0.01518359839178023,-0.01518359839178023
-0.01518359839178023,-0.01518359839178023
-0.01267832469932603,-0.01267832469932603
-0.011676215222344351,-0.011676215222344351
-0.009170941529890153,-0.009170941529890153
-0.004661448883472597,-0.004661448883472597
-0.0026572299295092383,-0.0026572299295092383
-0.0021561751910183988,-0.0021561751910183988
-0.001655120452527559,-0.001655120452527559
0.0023533174553991582,0.0023533174553991582
0.009368083794270914,0.009368083794270914
0.021894452256541904,0.021894452256541904
0.03592398493428541,0.03592398493428541
0.04093453231919381,0.04093453231919381
0.03642503967277625,0.03642503967277625
0.03141449228786786,0.03141449228786786
0.03391976598032206,0.03391976598032206
0.04243769653466633,0.04243769653466633
0.051456681827501446,0.051456681827501446
0.05947355764335488,0.05947355764335488
0.06799148819769917,0.06799148819769917
0.0760083640135526,0.0760083640135526
0.07851363770600679,0.07851363770600679
0.07751152822902511,0.07751152822902511
0.07701047349053428,0.07701047349053428
0.08101891139846099,0.08101891139846099
0.08803367773733274,0.08803367773733274
0.09454738933771366,0.09454738933771366
0.09805477250714954,0.09805477250714954
0.09805477250714954,0.09805477250714954
0.09605055355318617,0.09605055355318617
0.09805477250714954,0.09805477250714954
0.10857692201545717,0.10857692201545717
0.12711594733961823,0.12711594733961823
0.14615602740227016,0.14615602740227016
0.15968450534152281,0.15968450534152281
0.1682024358958671,0.1682024358958671
0.1787245854041747,0.1787245854041747
0.1922530633434274,0.1922530633434274
0.20026993915928082,0.20026993915928082
0.19425728229739075,0.19425728229739075
0.1772214211887022,0.1772214211887022
0.15617712217208693,0.15617712217208693
0.13463176841698082,0.13463176841698082
0.10907797675394801,0.10907797675394801
0.08151996613695182,0.08151996613695182
0.05897250290486404,0.05897250290486404
0.04544402496561137,0.04544402496561137
0.036926094411267096,0.036926094411267096
0.03041238281088618,0.03041238281088618
0.02840816385692282,0.02840816385692282
0.03642503967277625,0.03642503967277625
0.04845035339655641,0.04845035339655641
0.04744824391957472,0.04744824391957472
0.02740605437994114,0.02740605437994114
0.005860700624835036,0.005860700624835036
0.005359645886344196,0.005359645886344196
0.026403944902959463,0.026403944902959463
0.04444191548862969,0.04444191548862969
0.03592398493428541,0.03592398493428541
0.007363864840307555,0.007363864840307555
-0.014682543653289389,-0.014682543653289389
-0.01368043417630771,-0.01368043417630771
0.0013512079784174789,0.0013512079784174789
0.009368083794270914,0.009368083794270914
0.0033554269323808374,0.0033554269323808374
-0.006665667837435956,-0.006665667837435956
-0.010674105745362672,-0.010674105745362672
-0.008168832052908474,-0.008168832052908474
-0.004661448883472597,-0.004661448883472597
-0.003158284668000078,-0.003158284668000078
-0.003158284668000078,-0.003158284668000078
-0.0011540657140367194,-0.0011540657140367194
0.002854372193889998,0.002854372193889998
0.007363864840307555,0.007363864840307555
0.009869138532761753,0.009869138532761753
0.011372302748234272,0.011372302748234272
0.01287546696370679,0.01287546696370679
0.01487968591767015,0.01487968591767015
0.01588179539465183,0.01588179539465183
0.01588179539465183,0.01588179539465183
0.016382850133142668,0.016382850133142668
0.016883904871633507,0.016883904871633507
0.01437863117917931,0.01437863117917931
0.01437863117917931,0.01437863117917931
0.022896561733523585,0.022896561733523585
0.037427149149757935,0.037427149149757935
0.04594507970410221,0.04594507970410221
0.04243769653466633,0.04243769653466633
0.037427149149757935,0.037427149149757935
0.04193664179617549,0.04193664179617549
0.05396195551995564,0.05396195551995564
0.06298094081279075,0.06298094081279075
0.06548621450524496,0.06548621450524496
0.06348199555128159,0.06348199555128159
0.058471448166373195,0.058471448166373195
0.04794929865806557,0.04794929865806557
0.03341871124183122,0.03341871124183122
0.021894452256541904,0.021894452256541904
0.018888123825596865,0.018888123825596865
0.019389178564087707,0.019389178564087707
0.015380740656160989,0.015380740656160989
0.005860700624835036,0.005860700624835036
-0.0026572299295092383,-0.0026572299295092383
-0.005162503621963436,-0.005162503621963436
-0.0026572299295092383,-0.0026572299295092383
-0.00015195623705504003,-0.00015195623705504003
0.0013512079784174789,0.0013512079784174789
0.0013512079784174789,0.0013512079784174789
0.0003490985014357996,0.0003490985014357996
-0.0011540657140367194,-0.0011540657140367194
-0.0011540657140367194,-0.0011540657140367194
0.0018522627169083187,0.0018522627169083187
0.003856481670871677,0.003856481670871677
0.002854372193889998,0.002854372193889998
0.0023533174553991582,0.0023533174553991582
0.0043575364093625165,0.0043575364093625165
0.008867029055780073,0.008867029055780073
0.011873357486725111,0.011873357486725111
0.016382850133142668,0.016382850133142668
0.020892342779560227,0.020892342779560227
0.023898671210505262,0.023898671210505262
0.023397616472014424,0.023397616472014424
0.022896561733523585,0.022896561733523585
0.0294102733339045,0.0294102733339045
0.04494297022712053,0.04494297022712053
0.06047566712033656,0.06047566712033656
0.06448410502826328,0.06448410502826328
0.06247988607429992,0.06247988607429992
0.06448410502826328,0.06448410502826328
0.05947355764335488,0.05947355764335488
0.03341871124183122,0.03341871124183122
0.01387757644068847,0.01387757644068847
0.061477776597318234,0.061477776597318234
0.19074989912795487,0.19074989912795487
0.3576011270454044,0.3576011270454044
0.5334713402556892,0.5334713402556892
0.7283816335286257,0.7283816335286257
0.9037507920004196,0.9037507920004196
0.93381407630987,0.93381407630987
0.7268784693131533,0.7268784693131533
0.3606074554763495,0.3606074554763495
0.03391976598032206,0.03391976598032206
-0.11789981978240235,-0.11789981978240235
-0.11489349135145731,-0.11489349135145731
-0.06378590802539168,-0.06378590802539168
-0.03472473319292298,-0.03472473319292298
-0.027208912115560382,-0.027208912115560382
-0.019192036299706946,-0.019192036299706946
-0.010173051006871834,-0.010173051006871834
-0.012177269960835192,-0.012177269960835192
-0.022198364730651985,-0.022198364730651985
-0.02520469316159702,-0.02520469316159702
-0.018690981561216107,-0.018690981561216107
-0.014682543653289389,-0.014682543653289389
-0.017187817345743588,-0.017187817345743588
-0.019192036299706946,-0.019192036299706946
-0.01668676260725275,-0.01668676260725275
-0.014682543653289389,-0.014682543653289389
-0.012177269960835192,-0.012177269960835192
-0.006665667837435956,-0.006665667837435956
0.003856481670871677,0.003856481670871677
0.01337652170219763,0.01337652170219763
0.019890233302578546,0.019890233302578546
0.022896561733523585,0.022896561733523585
0.0269049996414503,0.0269049996414503
0.036926094411267096,0.036926094411267096
0.051957736565992285,0.051957736565992285
0.06648832398222664,0.06648832398222664
0.07300203558260755,0.07300203558260755
0.07250098084411671,0.07250098084411671
0.07149887136713504,0.07149887136713504
0.0760083640135526,0.0760083640135526
0.08452629456789687,0.08452629456789687
0.09104000616827779,0.09104000616827779
0.09154106090676863,0.09154106090676863
0.08953684195280526,0.08953684195280526
0.08903578721431442,0.08903578721431442
0.0925431703837503,0.0925431703837503
0.09855582724564038,0.09855582724564038
0.1000589914611129,0.1000589914611129
0.09304422512224114,0.09304422512224114
0.0825220756139335,0.0825220756139335
0.07851363770600679,0.07851363770600679
0.08452629456789687,0.08452629456789687
0.09554949881469534,0.09554949881469534
0.10456848410753045,0.10456848410753045
0.11358746940036557,0.11358746940036557
0.12511172838565487,0.12511172838565487
0.13713704210943503,0.13713704210943503
0.14465286318679763,0.14465286318679763
0.14515391792528845,0.14515391792528845
0.14264864423283427,0.14264864423283427
0.14064442527887092,0.14064442527887092
0.13663598737094418,0.13663598737094418
0.12912016629358158,0.12912016629358158
0.11709485256980144,0.11709485256980144
0.10306531989205793,0.10306531989205793
0.08903578721431442,0.08903578721431442
0.07450519979808007,0.07450519979808007
0.058471448166373195,0.058471448166373195
0.043439806011648006,0.043439806011648006
0.032416601764849534,0.032416601764849534
0.02890921859541366,0.02890921859541366
0.03391976598032206,0.03391976598032206
0.04444191548862969,0.04444191548862969
0.051456681827501446,0.051456681827501446
0.04995351761202892,0.04995351761202892
0.04744824391957472,0.04744824391957472
0.05696828395090068,0.05696828395090068
0.07701047349053428,0.07701047349053428
0.08903578721431442,0.08903578721431442
0.08051785665997015,0.08051785665997015
0.06498515976675412,0.06498515976675412
0.055966174473919,0.055966174473919
0.05295984604297396,0.05295984604297396
0.04093453231919381,0.04093453231919381
0.016382850133142668,0.016382850133142668
-0.004661448883472597,-0.004661448883472597
-0.006665667837435956,-0.006665667837435956
0.0003490985014357996,0.0003490985014357996
-0.0026572299295092383,-0.0026572299295092383
-0.01267832469932603,-0.01267832469932603
-0.011175160483853513,-0.011175160483853513
-0.0011540657140367194,-0.0011540657140367194
-0.005663558360454276,-0.005663558360454276
-0.019693091038197785,-0.019693091038197785
0.006361755363325876,0.006361755363325876
0.11208430518489304,0.11208430518489304
0.28945768261065025,0.28945768261065025
0.5094207128081288,0.5094207128081288
0.7434132756833509,0.7434132756833509
0.9237929815400533,0.9237929815400533
0.9398267331717601,0.9398267331717601
0.7288826882671167,0.7288826882671167
0.37513804289258385,0.37513804289258385
0.06698937872071747,0.06698937872071747
-0.05727219642501076,-0.05727219642501076
-0.020194145776688627,-0.020194145776688627
0.05396195551995564,0.05396195551995564
0.07801258296751595,0.07801258296751595
0.06047566712033656,0.06047566712033656
0.04794929865806557,0.04794929865806557
0.05045457235051976,0.05045457235051976
0.049452462873538085,0.049452462873538085
0.04243769653466633,0.04243769653466633
0.04544402496561137,0.04544402496561137
0.05897250290486404,0.05897250290486404
0.06197883133580907,0.06197883133580907
0.04594507970410221,0.04594507970410221
0.023898671210505262,0.023898671210505262
0.010370193271252593,0.010370193271252593
0.003856481670871677,0.003856481670871677
-0.00015195623705504003,-0.00015195623705504003
-0.008168832052908474,-0.008168832052908474
-0.017688872084234426,-0.017688872084234426
-0.02770996685405122,-0.02770996685405122
-0.032219459500468776,-0.032219459500468776
-0.030215240546505418,-0.030215240546505418
-0.023701528946124505,-0.023701528946124505
-0.01668676260725275,-0.01668676260725275
-0.010674105745362672,-0.010674105745362672
-0.006665667837435956,-0.006665667837435956
-0.0011540657140367194,-0.0011540657140367194
0.008365974317289233,0.008365974317289233
0.020892342779560227,0.020892342779560227
0.031915547026358695,0.031915547026358695
0.03943136810372129,0.03943136810372129
0.04494297022712053,0.04494297022712053
0.0534609007814648,0.0534609007814648
0.06448410502826328,0.06448410502826328
0.07400414505958923,0.07400414505958923
0.07951574718298847,0.07951574718298847
0.08552840404487855,0.08552840404487855
0.10156215567658541,0.10156215567658541
0.13112438524754497,0.13112438524754497
0.1646950527264312,0.1646950527264312
0.19175200860493655,0.19175200860493655
0.21179419814457012,0.21179419814457012
0.2328384971611854,0.2328384971611854
0.2533817414393098,0.2533817414393098
0.26189967199365405,0.26189967199365405
0.25588701513176404,0.25588701513176404
0.252880686700819,0.252880686700819
0.2659081099015808,0.2659081099015808
0.283946080487251,0.283946080487251
0.28444713522574183,0.28444713522574183
0.25939439830119987,0.25939439830119987
0.22231634765287778,0.22231634765287778
0.18674146122002816,0.18674146122002816
0.15517501269510525,0.15517501269510525
0.12310750943169152,0.12310750943169152
0.08853473247582358,0.08853473247582358
0.05646722921240984,0.05646722921240984
0.031915547026358695,0.031915547026358695
0.016883904871633507,0.016883904871633507
0.007363864840307555,0.007363864840307555
0.0008501532399266393,0.0008501532399266393
-0.005162503621963436,-0.005162503621963436
-0.008168832052908474,-0.008168832052908474
-0.007667777314417635,-0.007667777314417635
-0.005162503621963436,-0.005162503621963436
-0.0036593394064909175,-0.0036593394064909175
-0.004160394144981757,-0.004160394144981757
-0.007166722575926795,-0.007166722575926795
-0.009170941529890153,-0.009170941529890153
-0.008168832052908474,-0.008168832052908474
-0.003158284668000078,-0.003158284668000078
0.002854372193889998,0.002854372193889998
0.010370193271252593,0.010370193271252593
0.018888123825596865,0.018888123825596865
0.029911328072395337,0.029911328072395337
0.03993242284221213,0.03993242284221213
0.04744824391957472,0.04744824391957472
0.0509556270890106,0.0509556270890106
0.05396195551995564,0.05396195551995564
0.060976721858827396,0.060976721858827396
0.07300203558260755,0.07300203558260755
0.07951574718298847,0.07951574718298847
0.07350309032109839,0.07350309032109839
0.06498515976675412,0.06498515976675412
0.06799148819769917,0.06799148819769917
0.08051785665997015,0.08051785665997015
0.0825220756139335,0.0825220756139335
0.06648832398222664,0.06648832398222664
0.04845035339655641,0.04845035339655641
0.04193664179617549,0.04193664179617549
0.036926094411267096,0.036926094411267096
0.019890233302578546,0.019890233302578546
0.0033554269323808374,0.0033554269323808374
0.0243997259489961,0.0243997259489961
0.11008008623092969,0.11008008623092969
0.25237963196232815,0.25237963196232815
0.43626672098846625,0.43626672098846625
0.6522213132780181,0.6522213132780181
0.8561505918437899,0.8561505918437899
0.9323109120943975,0.9323109120943975
0.7739776147312922,0.7739776147312922
0.4267466809571403,0.4267466809571403
0.09304422512224114,0.09304422512224114
-0.05827430590199244,-0.05827430590199244
-0.04324266374726725,-0.04324266374726725
0.0043575364093625165,0.0043575364093625165
0.008365974317289233,0.008365974317289233
-0.008669886791399314,-0.008669886791399314
-0.010173051006871834,-0.010173051006871834
-0.0036593394064909175,-0.0036593394064909175
-0.006164613098945115,-0.006164613098945115
-0.01267832469932603,-0.01267832469932603
-0.006164613098945115,-0.006164613098945115
0.01437863117917931,0.01437863117917931
0.03542293019579457,0.03542293019579457
0.046947189181083884,0.046947189181083884
0.051957736565992285,0.051957736565992285
0.055966174473919,0.055966174473919
0.05997461238184572,0.05997461238184572
0.05947355764335488,0.05947355764335488
0.05797039342788236,0.05797039342788236
0.060976721858827396,0.060976721858827396
0.06899359767468084,0.06899359767468084
0.07300203558260755,0.07300203558260755
0.06899359767468084,0.06899359767468084
0.05997461238184572,0.05997461238184572
0.05045457235051976,0.05045457235051976
0.04394086075013885,0.04394086075013885
0.04444191548862969,0.04444191548862969
0.05045457235051976,0.05045457235051976
0.05396195551995564,0.05396195551995564
0.049452462873538085,0.049452462873538085
0.04143558705768465,0.04143558705768465
0.03893031336523045,0.03893031336523045
0.04494297022712053,0.04494297022712053
0.055966174473919,0.055966174473919
0.06698937872071747,0.06698937872071747
0.0760083640135526,0.0760083640135526
0.08502734930638771,0.08502734930638771
0.09554949881469534,0.09554949881469534
0.10757481253847549,0.10757481253847549
0.12010118100074649,0.12010118100074649
0.13262754946301747,0.13262754946301747
0.14615602740227016,0.14615602740227016
0.16018556008001364,0.16018556008001364
0.1682024358958671,0.1682024358958671
0.16519610746492205,0.16519610746492205
0.15818134112605028,0.15818134112605028
0.16168872429548617,0.16168872429548617
0.1787245854041747,0.1787245854041747
0.19475833703588158,0.19475833703588158
0.1937562275588999,0.1937562275588999
0.17621931171172053,0.17621931171172053
0.15667817691057778,0.15667817691057778
0.14365075370981595,0.14365075370981595
0.13212649472452664,0.13212649472452664
0.11308641466187473,0.11308641466187473
0.08853473247582358,0.08853473247582358
0.06899359767468084,0.06899359767468084
0.05997461238184572,0.05997461238184572
0.05696828395090068,0.05696828395090068
0.051456681827501446,0.051456681827501446
0.04444191548862969,0.04444191548862969
0.03893031336523045,0.03893031336523045
0.03642503967277625,0.03642503967277625
0.03341871124183122,0.03341871124183122
0.029911328072395337,0.029911328072395337
0.029911328072395337,0.029911328072395337
0.03341871124183122,0.03341871124183122
0.037928203888248774,0.037928203888248774
0.04093453231919381,0.04093453231919381
0.04093453231919381,0.04093453231919381
0.037928203888248774,0.037928203888248774
0.031915547026358695,0.031915547026358695
0.025401835425977782,0.025401835425977782
0.022395506995032743,0.022395506995032743
0.0243997259489961,0.0243997259489961
0.0294102733339045,0.0294102733339045
0.03341871124183122,0.03341871124183122
0.034420820718812896,0.034420820718812896
0.03391976598032206,0.03391976598032206
0.034420820718812896,0.034420820718812896
0.03893031336523045,0.03893031336523045
0.04594507970410221,0.04594507970410221
0.051957736565992285,0.051957736565992285
0.05446301025844648,0.05446301025844648
0.05396195551995564,0.05396195551995564
0.051456681827501446,0.051456681827501446
0.048951408135047246,0.048951408135047246
0.04544402496561137,0.04544402496561137
0.03993242284221213,0.03993242284221213
0.03341871124183122,0.03341871124183122
0.03041238281088618,0.03041238281088618
0.03341871124183122,0.03341871124183122
0.037427149149757935,0.037427149149757935
0.03592398493428541,0.03592398493428541
0.02740605437994114,0.02740605437994114
0.018387069087106026,0.018387069087106026
0.01487968591767015,0.01487968591767015
0.018387069087106026,0.018387069087106026
0.025401835425977782,0.025401835425977782
0.03041238281088618,0.03041238281088618
0.03291765650334038,0.03291765650334038
0.031915547026358695,0.031915547026358695
0.03341871124183122,0.03341871124183122
0.03542293019579457,0.03542293019579457
0.034420820718812896,0.034420820718812896
0.03291765650334038,0.03291765650334038
0.03341871124183122,0.03341871124183122
0.031915547026358695,0.031915547026358695
0.019389178564087707,0.019389178564087707
0.0018522627169083187,0.0018522627169083187
-0.005663558360454276,-0.005663558360454276
-0.008168832052908474,-0.008168832052908474
-0.02520469316159702,-0.02520469316159702
-0.050257430086139004,-0.050257430086139004
-0.03873317110084969,-0.03873317110084969
0.04243769653466633,0.04243769653466633
0.18423618752757395,0.18423618752757395
0.3656180028612579,0.3656180028612579
0.5830757593662823,0.5830757593662823
0.812057774856596,0.812057774856596
0.9623741964038479,0.9623741964038479
0.9177803246781632,0.9177803246781632
0.6577329154014174,0.6577329154014174
0.3079967079348113,0.3079967079348113
0.0509556270890106,0.0509556270890106
-0.030716295284996257,-0.030716295284996257
0.0008501532399266393,0.0008501532399266393
0.03993242284221213,0.03993242284221213
0.04845035339655641,0.04845035339655641
0.046446134442593046,0.046446134442593046
0.04995351761202892,0.04995351761202892
0.04794929865806557,0.04794929865806557
0.036926094411267096,0.036926094411267096
0.02890921859541366,0.02890921859541366
0.0294102733339045,0.0294102733339045
0.03041238281088618,0.03041238281088618
0.0294102733339045,0.0294102733339045
0.032416601764849534,0.032416601764849534
0.040433477580702974,0.040433477580702974
0.04394086075013885,0.04394086075013885
0.036926094411267096,0.036926094411267096
0.021894452256541904,0.021894452256541904
0.012374412225215951,0.012374412225215951
0.01387757644068847,0.01387757644068847
0.022896561733523585,0.022896561733523585
0.023898671210505262,0.023898671210505262
0.011873357486725111,0.011873357486725111
-0.0026572299295092383,-0.0026572299295092383
-0.004160394144981757,-0.004160394144981757
0.007864919578798394,0.007864919578798394
0.019890233302578546,0.019890233302578546
0.019389178564087707,0.019389178564087707
0.009869138532761753,0.009869138532761753
0.0033554269323808374,0.0033554269323808374
0.005359645886344196,0.005359645886344196
0.012374412225215951,0.012374412225215951
0.018387069087106026,0.018387069087106026
0.0243997259489961,0.0243997259489961
0.03592398493428541,0.03592398493428541
0.0534609007814648,0.0534609007814648
0.07300203558260755,0.07300203558260755
0.09053895142978695,0.09053895142978695
0.1050695388460213,0.1050695388460213
0.1190990715237648,0.1190990715237648
0.13463176841698082,0.13463176841698082
0.1506655200486877,0.1506655200486877
0.16569716220341288,0.16569716220341288
0.1782235306656839,0.1782235306656839
0.18824462543550066,0.18824462543550066
0.19525939177437243,0.19525939177437243
0.19776466546682664,0.19776466546682664
0.20026993915928082,0.20026993915928082
0.2062825960211709,0.2062825960211709
0.21279630762155183,0.21279630762155183
0.2112931434060793,0.2112931434060793
0.19876677494380832,0.19876677494380832
0.17922564014266557,0.17922564014266557
0.15918345060303196,0.15918345060303196
0.13864020632490756,0.13864020632490756
0.11458957887734725,0.11458957887734725
0.08653051352186023,0.08653051352186023
0.05947355764335488,0.05947355764335488
0.03542293019579457,0.03542293019579457
0.01437863117917931,0.01437863117917931
-0.0021561751910183988,-0.0021561751910183988
-0.01267832469932603,-0.01267832469932603
-0.017187817345743588,-0.017187817345743588
-0.017688872084234426,-0.017688872084234426
-0.017688872084234426,-0.017688872084234426
-0.017688872084234426,-0.017688872084234426
-0.019693091038197785,-0.019693091038197785
-0.024202583684615343,-0.024202583684615343
-0.030716295284996257,-0.030716295284996257
-0.03622789740839549,-0.03622789740839549
-0.035225787931413816,-0.035225787931413816
-0.0287120763310329,-0.0287120763310329
-0.020194145776688627,-0.020194145776688627
-0.013179379437816871,-0.013179379437816871
-0.005162503621963436,-0.005162503621963436
0.007864919578798394,0.007864919578798394
0.02590289016446862,0.02590289016446862
0.04243769653466633,0.04243769653466633
0.05295984604297396,0.05295984604297396
0.058471448166373195,0.058471448166373195
0.06298094081279075,0.06298094081279075
0.06849254293619,0.06849254293619
0.07199992610562587,0.07199992610562587
0.07350309032109839,0.07350309032109839
0.07350309032109839,0.07350309032109839
0.07300203558260755,0.07300203558260755
0.06999570715166252,0.06999570715166252
0.0659872692437358,0.0659872692437358
0.06498515976675412,0.06498515976675412
0.06849254293619,0.06849254293619
0.07199992610562587,0.07199992610562587
0.06749043345920831,0.06749043345920831
0.0509556270890106,0.0509556270890106
0.02740605437994114,0.02740605437994114
0.004858591147853356,0.004858591147853356
-0.009671996268380993,-0.009671996268380993
-0.014682543653289389,-0.014682543653289389
-0.018690981561216107,-0.018690981561216107
-0.030215240546505418,-0.030215240546505418
-0.04875426587066649,-0.04875426587066649
-0.061781689071428315,-0.061781689071428315
-0.061781689071428315,-0.061781689071428315
-0.05376481325557488,-0.05376481325557488
-0.049756375347648166,-0.049756375347648166
-0.052261649040102366,-0.052261649040102366
-0.05627008694802908,-0.05627008694802908
-0.05627008694802908,-0.05627008694802908
-0.05376481325557488,-0.05376481325557488
-0.05125953956312068,-0.05125953956312068
-0.05075848482462984,-0.05075848482462984
-0.04925532060915733,-0.04925532060915733
-0.044244773224248926,-0.044244773224248926
-0.035726842669904654,-0.035726842669904654
-0.02520469316159702,-0.02520469316159702
-0.015684653130271068,-0.015684653130271068
-0.009170941529890153,-0.009170941529890153
-0.004160394144981757,-0.004160394144981757
0.003856481670871677,0.003856481670871677
0.01487968591767015,0.01487968591767015
0.024900780687486943,0.024900780687486943
0.0294102733339045,0.0294102733339045
0.0294102733339045,0.0294102733339045
0.031915547026358695,0.031915547026358695
0.04293875127315717,0.04293875127315717
0.05696828395090068,0.05696828395090068
0.06398305028977243,0.06398305028977243
0.05797039342788236,0.05797039342788236
0.046947189181083884,0.046947189181083884
0.040433477580702974,0.040433477580702974
0.03943136810372129,0.03943136810372129
0.034420820718812896,0.034420820718812896
0.018387069087106026,0.018387069087106026
-0.0026572299295092383,-0.0026572299295092383
-0.018690981561216107,-0.018690981561216107
-0.022699419469142824,-0.022699419469142824
-0.020194145776688627,-0.020194145776688627
-0.01368043417630771,-0.01368043417630771
-0.009671996268380993,-0.009671996268380993
-0.01368043417630771,-0.01368043417630771
-0.021196255253670304,-0.021196255253670304
-0.023200474207633662,-0.023200474207633662
-0.021697309992161146,-0.021697309992161146
-0.02821102159254206,-0.02821102159254206
-0.03672895214688633,-0.03672895214688633
-0.030716295284996257,-0.030716295284996257
-0.020695200515179465,-0.020695200515179465
-0.03622789740839549,-0.03622789740839549
-0.07330594805671763,-0.07330594805671763
-0.07631227648766266,-0.07631227648766266
-0.0021561751910183988,-0.0021561751910183988
0.13864020632490756,0.13864020632490756
0.31751674796613727,0.31751674796613727
0.53397239499418,0.53397239499418
0.7699691768233655,0.7699691768233655
0.9303066931404341,0.9303066931404341
0.8892202045841853,0.8892202045841853
0.6201538100146045,0.6201538100146045
0.25889334356270904,0.25889334356270904
-0.0006530109755458796,-0.0006530109755458796
-0.07480911227219014,-0.07480911227219014
-0.035726842669904654,-0.035726842669904654
0.0043575364093625165,0.0043575364093625165
0.008365974317289233,0.008365974317289233
0.0023533174553991582,0.0023533174553991582
0.0023533174553991582,0.0023533174553991582
-0.006164613098945115,-0.006164613098945115
-0.027208912115560382,-0.027208912115560382
-0.04574793743972145,-0.04574793743972145
-0.053263758517084044,-0.053263758517084044
-0.05426586799406572,-0.05426586799406572
-0.052762703778593205,-0.052762703778593205
-0.04875426587066649,-0.04875426587066649
-0.047251101655193965,-0.047251101655193965
-0.05426586799406572,-0.05426586799406572
-0.062282743809919154,-0.062282743809919154
-0.05977747011746496,-0.05977747011746496
-0.044244773224248926,-0.044244773224248926
-0.032219459500468776,-0.032219459500468776
-0.0337226237159413,-0.0337226237159413
-0.04474582796273977,-0.04474582796273977
-0.05075848482462984,-0.05075848482462984
-0.044244773224248926,-0.044244773224248926
-0.033221568977450454,-0.033221568977450454
-0.027208912115560382,-0.027208912115560382
-0.025705747900087863,-0.025705747900087863
-0.020194145776688627,-0.020194145776688627
-0.009671996268380993,-0.009671996268380993
-0.0011540657140367194,-0.0011540657140367194
0.002854372193889998,0.002854372193889998
0.009869138532761753,0.009869138532761753
0.026403944902959463,0.026403944902959463
0.04845035339655641,0.04845035339655641
0.06648832398222664,0.06648832398222664
0.07450519979808007,0.07450519979808007
0.08001680192147931,0.08001680192147931
0.08903578721431442,0.08903578721431442
0.09805477250714954,0.09805477250714954
0.10156215567658541,0.10156215567658541
0.1000589914611129,0.1000589914611129
0.09955793672262206,0.09955793672262206
0.10156215567658541,0.10156215567658541
0.10607164832300298,0.10607164832300298
0.11108219570791136,0.11108219570791136
0.11809696204678312,0.11809696204678312
0.1241096189086732,0.1241096189086732
0.12861911155509076,0.12861911155509076
0.13112438524754497,0.13112438524754497
0.13212649472452664,0.13212649472452664
0.1266148926011274,0.1266148926011274
0.11509063361583809,0.11509063361583809
0.10256426515356709,0.10256426515356709
0.09154106090676863,0.09154106090676863
0.07851363770600679,0.07851363770600679
0.05897250290486404,0.05897250290486404
0.03592398493428541,0.03592398493428541
0.01738495961012435,0.01738495961012435
0.007864919578798394,0.007864919578798394
0.0043575364093625165,0.0043575364093625165
0.0003490985014357996,0.0003490985014357996
-0.008168832052908474,-0.008168832052908474
-0.018690981561216107,-0.018690981561216107
-0.02770996685405122,-0.02770996685405122
-0.030215240546505418,-0.030215240546505418
-0.024202583684615343,-0.024202583684615343
-0.012177269960835192,-0.012177269960835192
-0.00015195623705504003,-0.00015195623705504003
0.007864919578798394,0.007864919578798394
0.012374412225215951,0.012374412225215951
0.016382850133142668,0.016382850133142668
0.018387069087106026,0.018387069087106026
0.01437863117917931,0.01437863117917931
0.0018522627169083187,0.0018522627169083187
-0.011676215222344351,-0.011676215222344351
-0.017688872084234426,-0.017688872084234426
-0.01518359839178023,-0.01518359839178023
-0.011175160483853513,-0.011175160483853513
-0.010674105745362672,-0.010674105745362672
-0.015684653130271068,-0.015684653130271068
-0.020194145776688627,-0.020194145776688627
-0.022699419469142824,-0.022699419469142824
-0.023200474207633662,-0.023200474207633662
-0.022198364730651985,-0.022198364730651985
-0.018690981561216107,-0.018690981561216107
-0.018690981561216107,-0.018690981561216107
-0.0287120763310329,-0.0287120763310329
-0.04023633531632221,-0.04023633531632221
-0.03923422583934053,-0.03923422583934053
-0.02821102159254206,-0.02821102159254206
-0.02821102159254206,-0.02821102159254206
-0.041238444793303894,-0.041238444793303894
-0.037731061623868016,-0.037731061623868016
0.016382850133142668,0.016382850133142668
0.13262754946301747,0.13262754946301747
0.3110030363657564,0.3110030363657564
0.5449955992409785,0.5449955992409785
0.787005037932054,0.787005037932054
0.9288035289249617,0.9288035289249617
0.8581548107977532,0.8581548107977532
0.5710504456425022,0.5710504456425022
0.21329736236004265,0.21329736236004265
-0.025705747900087863,-0.025705747900087863
-0.07230383857973594,-0.07230383857973594
-0.008168832052908474,-0.008168832052908474
0.04594507970410221,0.04594507970410221
0.051456681827501446,0.051456681827501446
0.04193664179617549,0.04193664179617549
0.04093453231919381,0.04093453231919381
0.03893031336523045,0.03893031336523045
0.02590289016446862,0.02590289016446862
0.008867029055780073,0.008867029055780073
-0.007667777314417635,-0.007667777314417635
-0.02971418580801458,-0.02971418580801458
-0.05576903220953824,-0.05576903220953824
-0.07531016701068098,-0.07531016701068098
-0.0818238786110619,-0.0818238786110619
-0.07981965965709853,-0.07981965965709853
-0.07631227648766266,-0.07631227648766266
-0.07380700279520847,-0.07380700279520847
-0.06829540067180923,-0.06829540067180923
-0.058775360640483276,-0.058775360640483276
-0.04574793743972145,-0.04574793743972145
-0.03923422583934053,-0.03923422583934053
-0.04274160900877641,-0.04274160900877641
-0.04675004691670313,-0.04675004691670313
-0.03973528057783137,-0.03973528057783137
-0.024703638423106182,-0.024703638423106182
-0.01668676260725275,-0.01668676260725275
-0.021196255253670304,-0.021196255253670304
-0.023701528946124505,-0.023701528946124505
-0.011175160483853513,-0.011175160483853513
0.008867029055780073,0.008867029055780073
0.018888123825596865,0.018888123825596865
0.01738495961012435,0.01738495961012435
0.01588179539465183,0.01588179539465183
0.022896561733523585,0.022896561733523585
0.037928203888248774,0.037928203888248774
0.05696828395090068,0.05696828395090068
0.07650941875204344,0.07650941875204344
0.09154106090676863,0.09154106090676863
0.10156215567658541,0.10156215567658541
0.11108219570791136,0.11108219570791136
0.12611383786263655,0.12611383786263655
0.14665708214076098,0.14665708214076098
0.1707077095883213,0.1707077095883213
0.1922530633434274,0.1922530633434274
0.2087878697136251,0.2087878697136251
0.21580263605249686,0.21580263605249686
0.2137984170985335,0.2137984170985335
0.20477943180569838,0.20477943180569838
0.19074989912795487,0.19074989912795487
0.17170981906530297,0.17170981906530297
0.1456549726637793,0.1456549726637793
0.11358746940036557,0.11358746940036557
0.08051785665997015,0.08051785665997015
0.052458791304483124,0.052458791304483124
0.031915547026358695,0.031915547026358695
0.015380740656160989,0.015380740656160989
-0.0006530109755458796,-0.0006530109755458796
-0.018690981561216107,-0.018690981561216107
-0.035225787931413816,-0.035225787931413816
-0.04825321113217564,-0.04825321113217564
-0.05476692273255656,-0.05476692273255656
-0.05426586799406572,-0.05426586799406572
-0.05125953956312068,-0.05125953956312068
-0.049756375347648166,-0.049756375347648166
-0.052762703778593205,-0.052762703778593205
-0.05727219642501076,-0.05727219642501076
-0.05977747011746496,-0.05977747011746496
-0.0577732511635016,-0.0577732511635016
-0.052762703778593205,-0.052762703778593205
-0.047251101655193965,-0.047251101655193965
-0.04524688270123061,-0.04524688270123061
-0.04825321113217564,-0.04825321113217564
-0.05376481325557488,-0.05376481325557488
-0.05627008694802908,-0.05627008694802908
-0.052762703778593205,-0.052762703778593205
-0.04524688270123061,-0.04524688270123061
-0.03973528057783137,-0.03973528057783137
-0.04023633531632221,-0.04023633531632221
-0.04524688270123061,-0.04524688270123061
-0.04875426587066649,-0.04875426587066649
-0.04374371848575809,-0.04374371848575809
-0.027208912115560382,-0.027208912115560382
-0.001655120452527559,-0.001655120452527559
0.02590289016446862,0.02590289016446862
0.04293875127315717,0.04293875127315717
0.043439806011648006,0.043439806011648006
0.032416601764849534,0.032416601764849534
0.023898671210505262,0.023898671210505262
0.023898671210505262,0.023898671210505262
0.02590289016446862,0.02590289016446862
0.022896561733523585,0.022896561733523585
0.016382850133142668,0.016382850133142668
0.011372302748234272,0.011372302748234272
0.005860700624835036,0.005860700624835036
-0.001655120452527559,-0.001655120452527559
-0.007667777314417635,-0.007667777314417635
-0.009170941529890153,-0.009170941529890153
-0.006164613098945115,-0.006164613098945115
-0.0036593394064909175,-0.0036593394064909175
-0.001655120452527559,-0.001655120452527559
-0.0006530109755458796,-0.0006530109755458796
0.0008501532399266393,0.0008501532399266393
-0.0006530109755458796,-0.0006530109755458796
-0.005663558360454276,-0.005663558360454276
-0.008168832052908474,-0.008168832052908474
-0.006665667837435956,-0.006665667837435956
-0.007166722575926795,-0.007166722575926795
-0.01618570786876191,-0.01618570786876191
-0.023200474207633662,-0.023200474207633662
-0.017187817345743588,-0.017187817345743588
-0.017187817345743588,-0.017187817345743588
-0.05075848482462984,-0.05075848482462984
-0.10286817762767717,-0.10286817762767717
-0.11038399870503976,-0.11038399870503976
-0.030215240546505418,-0.030215240546505418
0.12010118100074649,0.12010118100074649
0.3100009268887747,0.3100009268887747
0.5314671213017258,0.5314671213017258
0.749425932545241,0.749425932545241
0.8596579750132257,0.8596579750132257
0.7544364799301494,0.7544364799301494
0.44879308945073726,0.44879308945073726
0.10256426515356709,0.10256426515356709
-0.10737767027409471,-0.10737767027409471
-0.13593779036807258,-0.13593779036807258
-0.07380700279520847,-0.07380700279520847
-0.025705747900087863,-0.025705747900087863
-0.015684653130271068,-0.015684653130271068
-0.007667777314417635,-0.007667777314417635
0.010370193271252593,0.010370193271252593
0.018888123825596865,0.018888123825596865
0.005860700624835036,0.005860700624835036
-0.01267832469932603,-0.01267832469932603
-0.019192036299706946,-0.019192036299706946
-0.01818992682272527,-0.01818992682272527
-0.021697309992161146,-0.021697309992161146
-0.02921313106952374,-0.02921313106952374
-0.02971418580801458,-0.02971418580801458
-0.020695200515179465,-0.020695200515179465
-0.011175160483853513,-0.011175160483853513
-0.011676215222344351,-0.011676215222344351
-0.01818992682272527,-0.01818992682272527
-0.023200474207633662,-0.023200474207633662
-0.023701528946124505,-0.023701528946124505
-0.023701528946124505,-0.023701528946124505
-0.027208912115560382,-0.027208912115560382
-0.030716295284996257,-0.030716295284996257
-0.0337226237159413,-0.0337226237159413
-0.0337226237159413,-0.0337226237159413
-0.02921313106952374,-0.02921313106952374
-0.024703638423106182,-0.024703638423106182
-0.024202583684615343,-0.024202583684615343
-0.021196255253670304,-0.021196255253670304
-0.005162503621963436,-0.005162503621963436
0.01588179539465183,0.01588179539465183
0.016382850133142668,0.016382850133142668
-0.010173051006871834,-0.010173051006871834
-0.03622789740839549,-0.03622789740839549
-0.03472473319292298,-0.03472473319292298
-0.012177269960835192,-0.012177269960835192
0.007864919578798394,0.007864919578798394
0.019389178564087707,0.019389178564087707
0.034420820718812896,0.034420820718812896
0.05746933868939152,0.05746933868939152
0.08151996613695182,0.08151996613695182
0.10106110093809458,0.10106110093809458
0.11859801678527396,0.11859801678527396
0.13262754946301747,0.13262754946301747
0.13914126106339839,0.13914126106339839
0.1356338778939625,0.1356338778939625
0.13262754946301747,0.13262754946301747
0.13763809684792586,0.13763809684792586
0.1456549726637793,0.1456549726637793
0.13864020632490756,0.13864020632490756
0.11058114096942052,0.11058114096942052
0.07550730927506176,0.07550730927506176
0.051456681827501446,0.051456681827501446
0.03943136810372129,0.03943136810372129
0.02740605437994114,0.02740605437994114
0.006862810101816715,0.006862810101816715
-0.017187817345743588,-0.017187817345743588
-0.035726842669904654,-0.035726842669904654
-0.04524688270123061,-0.04524688270123061
-0.04875426587066649,-0.04875426587066649
-0.05075848482462984,-0.05075848482462984
-0.0552679774710474,-0.0552679774710474
-0.06278379854841,-0.06278379854841
-0.06829540067180923,-0.06829540067180923
-0.06829540067180923,-0.06829540067180923
-0.061781689071428315,-0.061781689071428315
-0.05176059430161152,-0.05176059430161152
-0.041238444793303894,-0.041238444793303894
-0.0337226237159413,-0.0337226237159413
-0.02971418580801458,-0.02971418580801458
-0.027208912115560382,-0.027208912115560382
-0.023200474207633662,-0.023200474207633662
-0.01618570786876191,-0.01618570786876191
-0.009671996268380993,-0.009671996268380993
-0.007667777314417635,-0.007667777314417635
-0.010173051006871834,-0.010173051006871834
-0.014682543653289389,-0.014682543653289389
-0.018690981561216107,-0.018690981561216107
-0.021697309992161146,-0.021697309992161146
-0.024703638423106182,-0.024703638423106182
-0.02670785737706954,-0.02670785737706954
-0.0262068026385787,-0.0262068026385787
-0.023200474207633662,-0.023200474207633662
-0.021196255253670304,-0.021196255253670304
-0.022198364730651985,-0.022198364730651985
-0.024703638423106182,-0.024703638423106182
-0.027208912115560382,-0.027208912115560382
-0.02971418580801458,-0.02971418580801458
-0.0337226237159413,-0.0337226237159413
-0.038232116362358855,-0.038232116362358855
-0.04224055427028557,-0.04224055427028557
-0.04324266374726725,-0.04324266374726725
-0.04274160900877641,-0.04274160900877641
-0.04173949953179473,-0.04173949953179473
-0.04173949953179473,-0.04173949953179473
-0.04173949953179473,-0.04173949953179473
-0.041238444793303894,-0.041238444793303894
-0.04023633531632221,-0.04023633531632221
-0.035225787931413816,-0.035225787931413816
-0.02520469316159702,-0.02520469316159702
-0.01618570786876191,-0.01618570786876191
-0.01518359839178023,-0.01518359839178023
-0.017688872084234426,-0.017688872084234426
-0.009671996268380993,-0.009671996268380993
0.011873357486725111,0.011873357486725111
0.03041238281088618,0.03041238281088618
0.026403944902959463,0.026403944902959463
0.0033554269323808374,0.0033554269323808374
-0.019192036299706946,-0.019192036299706946
-0.025705747900087863,-0.025705747900087863
-0.02520469316159702,-0.02520469316159702
-0.03171840476197794,-0.03171840476197794
-0.04224055427028557,-0.04224055427028557
-0.04274160900877641,-0.04274160900877641
-0.03472473319292298,-0.03472473319292298
-0.038232116362358855,-0.038232116362358855
-0.053263758517084044,-0.053263758517084044
-0.059276415378974115,-0.059276415378974115
-0.05176059430161152,-0.05176059430161152
-0.05727219642501076,-0.05727219642501076
-0.08683442599597029,-0.08683442599597029
-0.10387028710465884,-0.10387028710465884
-0.05977747011746496,-0.05977747011746496
0.055966174473919,0.055966174473919
0.22231634765287778,0.22231634765287778
0.42574457148015865,0.42574457148015865
0.652722368016509,0.652722368016509
0.8366094570426471,0.8366094570426471
0.8601590297517167,0.8601590297517167
0.6537244774934907,0.6537244774934907
0.299478777380467,0.299478777380467
-0.01267832469932603,-0.01267832469932603
-0.14846415883034356,-0.14846415883034356
-0.13192935246014587,-0.13192935246014587
-0.07130172910275426,-0.07130172910275426
-0.03472473319292298,-0.03472473319292298
-0.019693091038197785,-0.019693091038197785
-0.01418148891479855,-0.01418148891479855
-0.019693091038197785,-0.019693091038197785
-0.032219459500468776,-0.032219459500468776
-0.03472473319292298,-0.03472473319292298
-0.022699419469142824,-0.022699419469142824
-0.010173051006871834,-0.010173051006871834
-0.007166722575926795,-0.007166722575926795
-0.011676215222344351,-0.011676215222344351
-0.01368043417630771,-0.01368043417630771
-0.012177269960835192,-0.012177269960835192
-0.009170941529890153,-0.009170941529890153
-0.011175160483853513,-0.011175160483853513
-0.017187817345743588,-0.017187817345743588
-0.024202583684615343,-0.024202583684615343
-0.027208912115560382,-0.027208912115560382
-0.0287120763310329,-0.0287120763310329
-0.02921313106952374,-0.02921313106952374
-0.02670785737706954,-0.02670785737706954
-0.019693091038197785,-0.019693091038197785
-0.010173051006871834,-0.010173051006871834
-0.003158284668000078,-0.003158284668000078
-0.0011540657140367194,-0.0011540657140367194
-0.0006530109755458796,-0.0006530109755458796
0.0023533174553991582,0.0023533174553991582
0.008867029055780073,0.008867029055780073
0.017886014348615187,0.017886014348615187
0.02890921859541366,0.02890921859541366
0.040433477580702974,0.040433477580702974
0.05045457235051976,0.05045457235051976
0.05797039342788236,0.05797039342788236
0.06448410502826328,0.06448410502826328
0.07450519979808007,0.07450519979808007
0.08853473247582358,0.08853473247582358
0.10056004619960374,0.10056004619960374
0.10406742936903961,0.10406742936903961
0.10206321041507625,0.10206321041507625
0.10256426515356709,0.10256426515356709
0.10707375779998465,0.10707375779998465
0.10807586727696633,0.10807586727696633
0.10607164832300298,0.10607164832300298
0.10757481253847549,0.10757481253847549
0.11609274309281976,0.11609274309281976
0.12210539995470984,0.12210539995470984
0.12260645469320068,0.12260645469320068
0.12711594733961823,0.12711594733961823
0.14214758949434342,0.14214758949434342
0.15367184847963275,0.15367184847963275
0.14365075370981595,0.14365075370981595
0.1115832504464022,0.1115832504464022
0.07500625453657091,0.07500625453657091
0.046446134442593046,0.046446134442593046
0.023397616472014424,0.023397616472014424
0.0008501532399266393,0.0008501532399266393
-0.017187817345743588,-0.017187817345743588
-0.019192036299706946,-0.019192036299706946
-0.009671996268380993,-0.009671996268380993
-0.0011540657140367194,-0.0011540657140367194
-0.0036593394064909175,-0.0036593394064909175
-0.012177269960835192,-0.012177269960835192
-0.01518359839178023,-0.01518359839178023
-0.010674105745362672,-0.010674105745362672
-0.006164613098945115,-0.006164613098945115
-0.003158284668000078,-0.003158284668000078
0.0018522627169083187,0.0018522627169083187
0.009869138532761753,0.009869138532761753
0.010871248009743432,0.010871248009743432
0.0008501532399266393,0.0008501532399266393
0.0013512079784174789,0.0013512079784174789
0.049452462873538085,0.049452462873538085
0.16369294324944952,0.16369294324944952
0.34256948489067923,0.34256948489067923
0.5785662667198648,0.5785662667198648
0.8391147307351013,0.8391147307351013
1.0194944365918037,1.0194944365918037
0.983919550158954,0.983919550158954
0.702827841865593,0.702827841865593
0.32102413113557315,0.32102413113557315
0.03893031336523045,0.03893031336523045
-0.05576903220953824,-0.05576903220953824
-0.02670785737706954,-0.02670785737706954
0.019389178564087707,0.019389178564087707
0.03041238281088618,0.03041238281088618
0.016883904871633507,0.016883904871633507
0.0033554269323808374,0.0033554269323808374
-0.001655120452527559,-0.001655120452527559
-0.0021561751910183988,-0.0021561751910183988
-0.003158284668000078,-0.003158284668000078
-0.006164613098945115,-0.006164613098945115
-0.009170941529890153,-0.009170941529890153
-0.010674105745362672,-0.010674105745362672
-0.008669886791399314,-0.008669886791399314
-0.005162503621963436,-0.005162503621963436
-0.007667777314417635,-0.007667777314417635
-0.018690981561216107,-0.018690981561216107
-0.0287120763310329,-0.0287120763310329
-0.0287120763310329,-0.0287120763310329
-0.019192036299706946,-0.019192036299706946
-0.01418148891479855,-0.01418148891479855
-0.020194145776688627,-0.020194145776688627
-0.032720514238959615,-0.032720514238959615
-0.04224055427028557,-0.04224055427028557
-0.04524688270123061,-0.04524688270123061
-0.04224055427028557,-0.04224055427028557
-0.035726842669904654,-0.035726842669904654
-0.024703638423106182,-0.024703638423106182
-0.010173051006871834,-0.010173051006871834
0.005359645886344196,0.005359645886344196
0.018387069087106026,0.018387069087106026
0.029911328072395337,0.029911328072395337
0.040433477580702974,0.040433477580702974
0.051957736565992285,0.051957736565992285
0.06298094081279075,0.06298094081279075
0.07450519979808007,0.07450519979808007
0.08653051352186023,0.08653051352186023
0.0975537177686587,0.0975537177686587
0.10557059358451214,0.10557059358451214
0.10957903149243885,0.10957903149243885
0.1125853599233839,0.1125853599233839
0.11458957887734725,0.11458957887734725
0.11960012626225565,0.11960012626225565
0.12861911155509076,0.12861911155509076
0.14014337054038006,0.14014337054038006
0.1506655200486877,0.1506655200486877
0.15868239586454114,0.15868239586454114
0.1682024358958671,0.1682024358958671
0.18022774961964724,0.18022774961964724
0.18774357069700984,0.18774357069700984
0.18874568017399151,0.18874568017399151
0.1862404064815373,0.1862404064815373
0.18573935174304648,0.18573935174304648
0.18423618752757395,0.18423618752757395
0.17421509275775715,0.17421509275775715
0.1531707937411419,0.1531707937411419
0.12611383786263655,0.12611383786263655
0.09655160829167701,0.09655160829167701
0.06648832398222664,0.06648832398222664
0.03642503967277625,0.03642503967277625
0.012374412225215951,0.012374412225215951
0.0003490985014357996,0.0003490985014357996
-0.0006530109755458796,-0.0006530109755458796
0.0008501532399266393,0.0008501532399266393
-0.0006530109755458796,-0.0006530109755458796
-0.0021561751910183988,-0.0021561751910183988
0.002854372193889998,0.002854372193889998
0.012374412225215951,0.012374412225215951
0.017886014348615187,0.017886014348615187
0.01487968591767015,0.01487968591767015
0.006862810101816715,0.006862810101816715
0.002854372193889998,0.002854372193889998
0.005359645886344196,0.005359645886344196
0.012374412225215951,0.012374412225215951
0.015380740656160989,0.015380740656160989
0.01337652170219763,0.01337652170219763
0.007363864840307555,0.007363864840307555
0.0023533174553991582,0.0023533174553991582
0.0018522627169083187,0.0018522627169083187
0.0023533174553991582,0.0023533174553991582
-0.00015195623705504003,-0.00015195623705504003
-0.004661448883472597,-0.004661448883472597
-0.003158284668000078,-0.003158284668000078
0.008365974317289233,0.008365974317289233
0.024900780687486943,0.024900780687486943
0.030913437549377018,0.030913437549377018
0.01738495961012435,0.01738495961012435
-0.004661448883472597,-0.004661448883472597
-0.0011540657140367194,-0.0011540657140367194
0.06348199555128159,0.06348199555128159
0.1962615012513541,0.1962615012513541
0.3886665208318365,0.3886665208318365
0.6326801784768754,0.6326801784768754
0.8857128214147494,0.8857128214147494
1.025006038715203,1.025006038715203
0.9142729415087273,0.9142729415087273
0.5735557193349563,0.5735557193349563
0.20578154128268006,0.20578154128268006
0.007363864840307555,0.007363864840307555
-0.008669886791399314,-0.008669886791399314
0.034420820718812896,0.034420820718812896
0.048951408135047246,0.048951408135047246
0.03943136810372129,0.03943136810372129
0.031915547026358695,0.031915547026358695
0.024900780687486943,0.024900780687486943
0.009368083794270914,0.009368083794270914
-0.007667777314417635,-0.007667777314417635
-0.020695200515179465,-0.020695200515179465
-0.0312173500234871,-0.0312173500234871
-0.04173949953179473,-0.04173949953179473
-0.04675004691670313,-0.04675004691670313
-0.041238444793303894,-0.041238444793303894
-0.032219459500468776,-0.032219459500468776
-0.02821102159254206,-0.02821102159254206
-0.03622789740839549,-0.03622789740839549
-0.044244773224248926,-0.044244773224248926
-0.044244773224248926,-0.044244773224248926
-0.032720514238959615,-0.032720514238959615
-0.021697309992161146,-0.021697309992161146
-0.01368043417630771,-0.01368043417630771
-0.007166722575926795,-0.007166722575926795
0.0003490985014357996,0.0003490985014357996
0.008867029055780073,0.008867029055780073
0.017886014348615187,0.017886014348615187
0.02740605437994114,0.02740605437994114
0.03391976598032206,0.03391976598032206
0.03542293019579457,0.03542293019579457
0.03391976598032206,0.03391976598032206
0.034420820718812896,0.034420820718812896
0.037928203888248774,0.037928203888248774
0.04494297022712053,0.04494297022712053
0.05446301025844648,0.05446301025844648
0.06548621450524496,0.06548621450524496
0.07300203558260755,0.07300203558260755
0.07751152822902511,0.07751152822902511
0.08151996613695182,0.08151996613695182
0.08803367773733274,0.08803367773733274
0.09554949881469534,0.09554949881469534
0.10156215567658541,0.10156215567658541
0.10456848410753045,0.10456848410753045
0.10607164832300298,0.10607164832300298
0.10757481253847549,0.10757481253847549
0.1115832504464022,0.1115832504464022
0.12110329047772816,0.12110329047772816
0.13312860420150832,0.13312860420150832
0.13864020632490756,0.13864020632490756
0.13362965893999915,0.13362965893999915
0.12511172838565487,0.12511172838565487
0.11759590730829228,0.11759590730829228
0.1050695388460213,0.1050695388460213
0.08452629456789687,0.08452629456789687
0.06348199555128159,0.06348199555128159
0.051957736565992285,0.051957736565992285
0.048951408135047246,0.048951408135047246
0.04594507970410221,0.04594507970410221
0.03993242284221213,0.03993242284221213
0.03642503967277625,0.03642503967277625
0.03943136810372129,0.03943136810372129
0.04744824391957472,0.04744824391957472
0.05446301025844648,0.05446301025844648
0.05797039342788236,0.05797039342788236
0.05947355764335488,0.05947355764335488
0.055966174473919,0.055966174473919
0.04744824391957472,0.04744824391957472
0.03943136810372129,0.03943136810372129
0.040433477580702974,0.040433477580702974
0.04744824391957472,0.04744824391957472
0.049452462873538085,0.049452462873538085
0.04193664179617549,0.04193664179617549
0.034420820718812896,0.034420820718812896
0.036926094411267096,0.036926094411267096
0.04293875127315717,0.04293875127315717
0.04093453231919381,0.04093453231919381
0.031915547026358695,0.031915547026358695
0.02590289016446862,0.02590289016446862
0.023898671210505262,0.023898671210505262
0.018888123825596865,0.018888123825596865
0.008867029055780073,0.008867029055780073
-0.003158284668000078,-0.003158284668000078
-0.010674105745362672,-0.010674105745362672
-0.01518359839178023,-0.01518359839178023
-0.01618570786876191,-0.01618570786876191
-0.01418148891479855,-0.01418148891479855
-0.010173051006871834,-0.010173051006871834
-0.004661448883472597,-0.004661448883472597
-0.00015195623705504003,-0.00015195623705504003
-0.0021561751910183988,-0.0021561751910183988
-0.010173051006871834,-0.010173051006871834
-0.010674105745362672,-0.010674105745362672
0.006361755363325876,0.006361755363325876
0.021894452256541904,0.021894452256541904
0.009368083794270914,0.009368083794270914
-0.021697309992161146,-0.021697309992161146
-0.023701528946124505,-0.023701528946124505
0.04143558705768465,0.04143558705768465
0.16619821694190373,0.16619821694190373
0.33204733538237163,0.33204733538237163
0.5364776686866342,0.5364776686866342
0.7654596841769479,0.7654596841769479
0.9358182952638334,0.9358182952638334
0.9247950910170349,0.9247950910170349
0.6887983091878495,0.6887983091878495
0.34407264910615176,0.34407264910615176
0.08402523982940603,0.08402523982940603
0.0018522627169083187,0.0018522627169083187
0.02840816385692282,0.02840816385692282
0.051957736565992285,0.051957736565992285
0.04193664179617549,0.04193664179617549
0.03291765650334038,0.03291765650334038
0.03592398493428541,0.03592398493428541
0.032416601764849534,0.032416601764849534
0.018888123825596865,0.018888123825596865
0.01588179539465183,0.01588179539465183
0.025401835425977782,0.025401835425977782
0.02890921859541366,0.02890921859541366
0.017886014348615187,0.017886014348615187
0.0023533174553991582,0.0023533174553991582
-0.006665667837435956,-0.006665667837435956
-0.008669886791399314,-0.008669886791399314
-0.0036593394064909175,-0.0036593394064909175
0.0023533174553991582,0.0023533174553991582
0.005860700624835036,0.005860700624835036
0.0023533174553991582,0.0023533174553991582
-0.0026572299295092383,-0.0026572299295092383
-0.004661448883472597,-0.004661448883472597
-0.0036593394064909175,-0.0036593394064909175
-0.0036593394064909175,-0.0036593394064909175
-0.006665667837435956,-0.006665667837435956
-0.006164613098945115,-0.006164613098945115
0.0033554269323808374,0.0033554269323808374
0.018387069087106026,0.018387069087106026
0.0294102733339045,0.0294102733339045
0.034420820718812896,0.034420820718812896
0.043439806011648006,0.043439806011648006
0.05997461238184572,0.05997461238184572
0.07350309032109839,0.07350309032109839
0.07500625453657091,0.07500625453657091
0.07199992610562587,0.07199992610562587
0.07550730927506176,0.07550730927506176
0.08452629456789687,0.08452629456789687
0.08953684195280526,0.08953684195280526
0.08803367773733274,0.08803367773733274
0.08803367773733274,0.08803367773733274
0.09304422512224114,0.09304422512224114
0.10156215567658541,0.10156215567658541
0.11108219570791136,0.11108219570791136
0.12210539995470984,0.12210539995470984
0.13413071367849,0.13413071367849
0.14665708214076098,0.14665708214076098
0.15617712217208693,0.15617712217208693
0.16168872429548617,0.16168872429548617
0.1606866148185045,0.1606866148185045
0.15266973900265104,0.15266973900265104
0.13663598737094418,0.13663598737094418
0.11408852413885641,0.11408852413885641
0.08953684195280526,0.08953684195280526
0.06498515976675412,0.06498515976675412
0.04444191548862969,0.04444191548862969
0.029911328072395337,0.029911328072395337
0.023397616472014424,0.023397616472014424
0.0243997259489961,0.0243997259489961
0.026403944902959463,0.026403944902959463
0.023397616472014424,0.023397616472014424
0.016382850133142668,0.016382850133142668
0.01387757644068847,0.01387757644068847
0.021894452256541904,0.021894452256541904
0.03391976598032206,0.03391976598032206
0.03993242284221213,0.03993242284221213
0.036926094411267096,0.036926094411267096
0.034921875457303735,0.034921875457303735
0.03993242284221213,0.03993242284221213
0.046947189181083884,0.046947189181083884
0.04594507970410221,0.04594507970410221
0.036926094411267096,0.036926094411267096
0.02740605437994114,0.02740605437994114
0.02590289016446862,0.02590289016446862
0.029911328072395337,0.029911328072395337
0.034921875457303735,0.034921875457303735
0.03542293019579457,0.03542293019579457
0.02840816385692282,0.02840816385692282
0.016883904871633507,0.016883904871633507
0.007864919578798394,0.007864919578798394
0.007363864840307555,0.007363864840307555
0.01437863117917931,0.01437863117917931
0.022896561733523585,0.022896561733523585
0.02840816385692282,0.02840816385692282
0.02890921859541366,0.02890921859541366
0.02740605437994114,0.02740605437994114
0.026403944902959463,0.026403944902959463
0.023898671210505262,0.023898671210505262
0.017886014348615187,0.017886014348615187
0.007363864840307555,0.007363864840307555
-0.003158284668000078,-0.003158284668000078
-0.007667777314417635,-0.007667777314417635
-0.0026572299295092383,-0.0026572299295092383
0.007864919578798394,0.007864919578798394
0.017886014348615187,0.017886014348615187
0.0243997259489961,0.0243997259489961
0.02840816385692282,0.02840816385692282
0.03291765650334038,0.03291765650334038
0.03993242284221213,0.03993242284221213
0.04794929865806557,0.04794929865806557
0.05396195551995564,0.05396195551995564
0.05947355764335488,0.05947355764335488
0.06197883133580907,0.06197883133580907
0.05897250290486404,0.05897250290486404
0.05496406499693732,0.05496406499693732
0.05546511973542816,0.05546511973542816
0.05646722921240984,0.05646722921240984
0.048951408135047246,0.048951408135047246
0.03893031336523045,0.03893031336523045
0.04093453231919381,0.04093453231919381
0.04744824391957472,0.04744824391957472
0.03141449228786786,0.03141449228786786
-0.007166722575926795,-0.007166722575926795
-0.027208912115560382,-0.027208912115560382
0.012374412225215951,0.012374412225215951
0.1115832504464022,0.1115832504464022
0.252880686700819,0.252880686700819
0.44027515889639296,0.44027515889639296
0.6782761596795418,0.6782761596795418
0.9002434088309837,0.9002434088309837
0.9628752511423387,0.9628752511423387
0.7739776147312922,0.7739776147312922
0.42223718831072277,0.42223718831072277
0.12060223573923733,0.12060223573923733
0.002854372193889998,0.002854372193889998
0.01588179539465183,0.01588179539465183
0.03893031336523045,0.03893031336523045
0.03592398493428541,0.03592398493428541
0.04143558705768465,0.04143558705768465
0.06197883133580907,0.06197883133580907
0.06698937872071747,0.06698937872071747
0.05396195551995564,0.05396195551995564
0.04794929865806557,0.04794929865806557
0.05646722921240984,0.05646722921240984
0.060976721858827396,0.060976721858827396
0.05646722921240984,0.05646722921240984
0.05546511973542816,0.05546511973542816
0.05947355764335488,0.05947355764335488
0.058471448166373195,0.058471448166373195
0.05045457235051976,0.05045457235051976
0.04293875127315717,0.04293875127315717
0.04494297022712053,0.04494297022712053
0.0509556270890106,0.0509556270890106
0.055966174473919,0.055966174473919
0.0534609007814648,0.0534609007814648
0.046947189181083884,0.046947189181083884
0.03993242284221213,0.03993242284221213
0.034921875457303735,0.034921875457303735
0.03141449228786786,0.03141449228786786
0.0294102733339045,0.0294102733339045
