ECG,PPG
0.13215211265005694,0.13215211265005694
0.23331449054222758,0.23331449054222758
-0.18357240544889503,-0.18357240544889503
-0.4299517451540203,-0.4299517451540203
-0.3557116129912177,-0.3557116129912177
-0.308393726557783,-0.308393726557783
-0.41281940696260433,-0.41281940696260433
-0.47482215470296696,-0.47482215470296696
-0.41281940696260433,-0.41281940696260433
-0.36305404364468163,-0.36305404364468163
-0.384265509976911,-0.384265509976911
-0.403845325052815,-0.403845325052815
-0.384265509976911,-0.384265509976911
-0.3736597768107963,-0.3736597768107963
-0.384265509976911,-0.384265509976911
-0.384265509976911,-0.384265509976911
-0.3557116129912177,-0.3557116129912177
-0.315736157211247,-0.315736157211247
-0.269234096405975,-0.269234096405975
-0.22354786122886566,-0.22354786122886566
-0.18357240544889503,-0.18357240544889503
-0.1623609391166657,-0.1623609391166657
-0.1550185084632017,-0.1550185084632017
-0.15909763660401502,-0.15909763660401502
-0.1550185084632017,-0.1550185084632017
-0.14278112404076168,-0.14278112404076168
-0.12646461147750837,-0.12646461147750837
-0.12320130896485769,-0.12320130896485769
-0.12646461147750837,-0.12646461147750837
-0.13870199589994836,-0.13870199589994836
-0.1550185084632017,-0.1550185084632017
-0.17541414916726836,-0.17541414916726836
-0.18357240544889503,-0.18357240544889503
-0.18357240544889503,-0.18357240544889503
-0.18357240544889503,-0.18357240544889503
-0.19907309238398568,-0.19907309238398568
-0.21212630243458835,-0.21212630243458835
-0.21702125620356436,-0.21702125620356436
-0.21212630243458835,-0.21212630243458835
-0.2137579536909137,-0.2137579536909137
-0.21212630243458835,-0.21212630243458835
-0.20478387178112434,-0.20478387178112434
-0.18357240544889503,-0.18357240544889503
-0.15338685720687636,-0.15338685720687636
-0.09791071449181503,-0.09791071449181503
-0.026118059213500373,-0.026118059213500373
0.045674596064814284,0.045674596064814284
0.09380830812641161,0.09380830812641161
0.13215211265005694,0.13215211265005694
0.16315348652023826,0.16315348652023826
0.1892599066214436,0.1892599066214436
0.19170738350593158,0.19170738350593158
0.1892599066214436,0.1892599066214436
0.19333903476225692,0.19333903476225692
0.21781380360713692,0.21781380360713692
0.24473604933650492,0.24473604933650492
0.2749215975785236,0.2749215975785236
0.2928697613981022,0.2928697613981022
0.3034754945642169,0.3034754945642169
0.28960645888545156,0.28960645888545156
0.2749215975785236,0.2749215975785236
0.26350003878424627,0.26350003878424627
0.2749215975785236,0.2749215975785236
0.28797480762912625,0.28797480762912625
0.3034754945642169,0.3034754945642169
0.3067387970768676,0.3067387970768676
0.3034754945642169,0.3034754945642169
0.2961330639107529,0.2961330639107529
0.3034754945642169,0.3034754945642169
0.30918627396135556,0.30918627396135556
0.3034754945642169,0.3034754945642169
0.30918627396135556,0.30918627396135556
0.38995301114945957,0.38995301114945957
0.5425124036158782,0.5425124036158782
0.7627853232197982,0.7627853232197982
1.137249286546462,1.137249286546462
1.7939889172174086,1.7939889172174086
2.6244994066870033,2.6244994066870033
3.3138720624844566,3.3138720624844566
3.668756210735216,3.668756210735216
3.800919962497568,3.800919962497568
3.7952091831004293,3.7952091831004293
3.514565167012472,3.514565167012472
2.8488514544317365,2.8488514544317365
2.023235918731118,2.023235918731118
1.3534430780095688,1.3534430780095688
0.9055548081482648,0.9055548081482648
0.5327224960779262,0.5327224960779262
0.1892599066214436,0.1892599066214436
-0.06527768936530837,-0.06527768936530837
-0.21212630243458835,-0.21212630243458835
-0.323078587864711,-0.323078587864711
-0.41281940696260433,-0.41281940696260433
-0.45361068837073765,-0.45361068837073765
-0.44137330394829766,-0.44137330394829766
-0.430767570782183,-0.430767570782183
-0.44137330394829766,-0.44137330394829766
-0.47237467781847897,-0.47237467781847897
-0.4984810979196843,-0.4984810979196843
-0.531114123046191,-0.531114123046191
-0.5564047175192336,-0.5564047175192336
-0.5816953119922763,-0.5816953119922763
-0.5849586145049269,-0.5849586145049269
-0.5784320094796256,-0.5784320094796256
-0.5564047175192336,-0.5564047175192336
-0.5417198562123057,-0.5417198562123057
-0.5278508205335403,-0.5278508205335403
-0.516429261739263,-0.516429261739263
-0.4984810979196843,-0.4984810979196843
-0.4837962366127563,-0.4837962366127563
-0.469927200933991,-0.469927200933991
-0.4682955496776656,-0.4682955496776656
-0.469927200933991,-0.469927200933991
-0.467479724049503,-0.467479724049503
-0.44137330394829766,-0.44137330394829766
-0.41363523259076695,-0.41363523259076695
-0.41281940696260433,-0.41281940696260433
-0.45361068837073765,-0.45361068837073765
-0.4984810979196843,-0.4984810979196843
-0.5245875180208897,-0.5245875180208897
-0.5278508205335403,-0.5278508205335403
-0.5319299486743536,-0.5319299486743536
-0.5278508205335403,-0.5278508205335403
-0.5082710054576363,-0.5082710054576363
-0.469927200933991,-0.469927200933991
-0.4372941758074843,-0.4372941758074843
-0.41281940696260433,-0.41281940696260433
-0.398950371283839,-0.398950371283839
-0.384265509976911,-0.384265509976911
-0.367133171785495,-0.367133171785495
-0.32715771600552435,-0.32715771600552435
-0.2627074913806737,-0.2627074913806737
-0.18357240544889503,-0.18357240544889503
-0.1256487858493457,-0.1256487858493457
-0.09791071449181503,-0.09791071449181503
-0.08241002755672436,-0.08241002755672436
-0.03998709489226571,-0.03998709489226571
0.029358083501560953,0.029358083501560953
0.10278239003620095,0.10278239003620095
0.15173192772596095,0.15173192772596095
0.1892599066214436,0.1892599066214436
0.22923536240141426,0.22923536240141426
0.2749215975785236,0.2749215975785236
0.3018438433078916,0.3018438433078916
0.3034754945642169,0.3034754945642169
0.27981655134749955,0.27981655134749955
0.24636770059283025,0.24636770059283025
0.20802389606918492,0.20802389606918492
0.1892599066214436,0.1892599066214436
0.18273330159614226,0.18273330159614226
0.1892599066214436,0.1892599066214436
0.1843649528524676,0.1843649528524676
0.1892599066214436,0.1892599066214436
0.19823398853123292,0.19823398853123292
0.21781380360713692,0.21781380360713692
0.22189293174795024,0.22189293174795024
0.21781380360713692,0.21781380360713692
0.20231311667204627,0.20231311667204627
0.1892599066214436,0.1892599066214436
0.1721275684300276,0.1721275684300276
0.16070600963575027,0.16070600963575027
0.14438949707249693,0.14438949707249693
0.13215211265005694,0.13215211265005694
0.13133628702189426,0.13133628702189426
0.1892599066214436,0.1892599066214436
0.35324085788213955,0.35324085788213955
0.6763078066345555,0.6763078066345555
1.1698823116729689,1.1698823116729689
1.8233586398312647,1.8233586398312647
2.5551542282931767,2.5551542282931767
3.2273945458992137,3.2273945458992137
3.6361231856087093,3.6361231856087093
3.6287807549552453,3.6287807549552453
3.189866567003731,3.189866567003731
2.482545747386699,2.482545747386699
1.71485383128563,1.71485383128563
1.049140118704894,1.049140118704894
0.5392491011032275,0.5392491011032275
0.1892599066214436,0.1892599066214436
-0.03917126926410304,-0.03917126926410304
-0.18357240544889503,-0.18357240544889503
-0.28799808585371633,-0.28799808585371633
-0.3557116129912177,-0.3557116129912177
-0.38752881248956167,-0.38752881248956167
-0.384265509976911,-0.384265509976911
-0.372028125554471,-0.372028125554471
-0.3557116129912177,-0.3557116129912177
-0.33613179791531367,-0.33613179791531367
-0.298603819019831,-0.298603819019831
-0.254549235099047,-0.254549235099047
-0.21212630243458835,-0.21212630243458835
-0.19988891801214834,-0.19988891801214834
-0.21212630243458835,-0.21212630243458835
-0.254549235099047,-0.254549235099047
-0.298603819019831,-0.298603819019831
-0.3320526697745003,-0.3320526697745003
-0.32715771600552435,-0.32715771600552435
-0.3002354702761563,-0.3002354702761563
-0.269234096405975,-0.269234096405975
-0.25618088635537234,-0.25618088635537234
-0.24068019942028168,-0.24068019942028168
-0.21538960494723902,-0.21538960494723902
-0.18357240544889503,-0.18357240544889503
-0.171335021026455,-0.171335021026455
-0.18357240544889503,-0.18357240544889503
-0.220284558716215,-0.220284558716215
-0.269234096405975,-0.269234096405975
-0.330421018518175,-0.330421018518175
-0.384265509976911,-0.384265509976911
-0.43158339641034565,-0.43158339641034565
-0.469927200933991,-0.469927200933991
-0.5074551798294736,-0.5074551798294736
-0.5278508205335403,-0.5278508205335403
-0.5319299486743536,-0.5319299486743536
-0.5278508205335403,-0.5278508205335403
-0.538456553699655,-0.538456553699655
-0.5564047175192336,-0.5564047175192336
-0.5694579275698363,-0.5694579275698363
-0.5564047175192336,-0.5564047175192336
-0.5221400411364017,-0.5221400411364017
-0.469927200933991,-0.469927200933991
-0.42260931450055633,-0.42260931450055633
-0.384265509976911,-0.384265509976911
-0.36060656676019365,-0.36060656676019365
-0.32715771600552435,-0.32715771600552435
-0.279024003943927,-0.279024003943927
-0.21212630243458835,-0.21212630243458835
-0.14278112404076168,-0.14278112404076168
-0.06854099187795903,-0.06854099187795903
-0.0032749416249457093,-0.0032749416249457093
0.045674596064814284,0.045674596064814284
0.05872780611541695,0.05872780611541695
0.045674596064814284,0.045674596064814284
0.022015652848096954,0.022015652848096954
0.017120699079120952,0.017120699079120952
0.03343721164237429,0.03343721164237429
0.07422849305050762,0.07422849305050762
0.1256255076247556,0.1256255076247556
0.1892599066214436,0.1892599066214436
0.24963100310548092,0.24963100310548092
0.3034754945642169,0.3034754945642169
0.33855599657521157,0.33855599657521157
0.36139911416376624,0.36139911416376624
0.3671098935609049,0.3671098935609049
0.36139911416376624,0.36139911416376624
0.3352926940625609,0.3352926940625609
0.3034754945642169,0.3034754945642169
0.27084246943771023,0.27084246943771023
0.24636770059283025,0.24636770059283025
0.21699797797897424,0.21699797797897424
0.1892599066214436,0.1892599066214436
0.1721275684300276,0.1721275684300276
0.1892599066214436,0.1892599066214436
0.22270875737611293,0.22270875737611293
0.24636770059283025,0.24636770059283025
0.22923536240141426,0.22923536240141426
0.1892599066214436,0.1892599066214436
0.13215211265005694,0.13215211265005694
0.07422849305050762,0.07422849305050762
0.007330791541168956,0.007330791541168956
-0.03998709489226571,-0.03998709489226571
-0.07343594564693504,-0.07343594564693504
-0.09791071449181503,-0.09791071449181503
-0.1452286009252497,-0.1452286009252497
-0.21212630243458835,-0.21212630243458835
-0.283918957712903,-0.283918957712903
-0.32715771600552435,-0.32715771600552435
-0.34836918233775366,-0.34836918233775366
-0.3557116129912177,-0.3557116129912177
-0.3540799617348923,-0.3540799617348923
-0.32715771600552435,-0.32715771600552435
-0.286366434597391,-0.286366434597391
-0.21212630243458835,-0.21212630243458835
-0.016328151675548373,-0.016328151675548373
0.4185069081351529,0.4185069081351529
1.0409818624232674,1.0409818624232674
1.6797733292746353,1.6797733292746353
2.2231131976309713,2.2231131976309713
2.683238851914715,2.683238851914715
2.945934704183094,2.945934704183094
2.768900542871795,2.768900542871795
2.0958443996375955,2.0958443996375955
1.2783871202186035,1.2783871202186035
0.7089408317610622,0.7089408317610622
0.4470608051208462,0.4470608051208462
0.29042228451361424,0.29042228451361424
0.13215211265005694,0.13215211265005694
-0.002459115996783043,-0.002459115996783043
-0.09791071449181503,-0.09791071449181503
-0.193362312986847,-0.193362312986847
-0.269234096405975,-0.269234096405975
-0.2904455627382043,-0.2904455627382043
-0.269234096405975,-0.269234096405975
-0.26352331700883636,-0.26352331700883636
-0.269234096405975,-0.269234096405975
-0.2700499220341377,-0.2700499220341377
-0.269234096405975,-0.269234096405975
-0.29697216776350566,-0.29697216776350566
-0.32715771600552435,-0.32715771600552435
-0.33857927479980165,-0.33857927479980165
-0.32715771600552435,-0.32715771600552435
-0.332868495402663,-0.332868495402663
-0.3557116129912177,-0.3557116129912177
-0.39079211500221234,-0.39079211500221234
-0.41281940696260433,-0.41281940696260433
-0.43647835017932163,-0.43647835017932163
-0.469927200933991,-0.469927200933991
-0.5180609129955883,-0.5180609129955883
-0.5564047175192336,-0.5564047175192336
-0.5792478351077883,-0.5792478351077883
-0.5849586145049269,-0.5849586145049269
-0.5882219170175776,-0.5882219170175776
-0.5849586145049269,-0.5849586145049269
-0.5906693939020656,-0.5906693939020656
-0.6135125114906202,-0.6135125114906202
-0.653487967270591,-0.653487967270591
-0.6706203054620069,-0.6706203054620069
-0.6526721416424283,-0.6526721416424283
-0.6135125114906202,-0.6135125114906202
-0.5914852195302283,-0.5914852195302283
-0.5849586145049269,-0.5849586145049269
-0.580063660735951,-0.580063660735951
-0.5564047175192336,-0.5564047175192336
-0.5205083898800763,-0.5205083898800763
-0.469927200933991,-0.469927200933991
-0.42097766324423097,-0.42097766324423097
-0.384265509976911,-0.384265509976911
-0.37121229992630833,-0.37121229992630833
-0.3557116129912177,-0.3557116129912177
-0.31655198283940966,-0.31655198283940966
-0.24068019942028168,-0.24068019942028168
-0.15257103157871368,-0.15257103157871368
-0.06854099187795903,-0.06854099187795903
-0.006538244137596376,-0.006538244137596376
0.045674596064814284,0.045674596064814284
0.08891335435743561,0.08891335435743561
0.13215211265005694,0.13215211265005694
0.17294339405819026,0.17294339405819026
0.21781380360713692,0.21781380360713692
0.2471835262209929,0.2471835262209929
0.24636770059283025,0.24636770059283025
0.2063922448128596,0.2063922448128596
0.16070600963575027,0.16070600963575027
0.1305204613937316,0.1305204613937316
0.13215211265005694,0.13215211265005694
0.15091610209779827,0.15091610209779827
0.1892599066214436,0.1892599066214436
0.21699797797897424,0.21699797797897424
0.21781380360713692,0.21781380360713692
0.1672326146610516,0.1672326146610516
0.10278239003620095,0.10278239003620095
0.04730624732113962,0.04730624732113962
0.017120699079120952,0.017120699079120952
-0.012249023534735042,-0.012249023534735042
-0.03998709489226571,-0.03998709489226571
-0.0644618637371457,-0.0644618637371457
-0.06854099187795903,-0.06854099187795903
-0.06772516624979637,-0.06772516624979637
-0.06854099187795903,-0.06854099187795903
-0.08485750444121236,-0.08485750444121236
-0.09791071449181503,-0.09791071449181503
-0.08077837630039902,-0.08077837630039902
0.017120699079120952,0.017120699079120952
0.23984109556752892,0.23984109556752892
0.6192000126631688,0.6192000126631688
1.1282752046366729,1.1282752046366729
1.7083272262603286,1.7083272262603286
2.272878560948894,2.272878560948894
2.7403466458861017,2.7403466458861017
2.9948842418728536,2.9948842418728536
2.941039750414118,2.941039750414118
2.5510751001523633,2.5510751001523633
1.937574227774038,1.937574227774038
1.2734921664496275,1.2734921664496275
0.7048617036202488,0.7048617036202488
0.27900072571933693,0.27900072571933693
-0.011433197906572375,-0.011433197906572375
-0.20641552303744967,-0.20641552303744967
-0.32715771600552435,-0.32715771600552435
-0.394055417514863,-0.394055417514863
-0.41281940696260433,-0.41281940696260433
-0.41200358133444165,-0.41200358133444165
-0.41281940696260433,-0.41281940696260433
-0.42097766324423097,-0.42097766324423097
-0.41281940696260433,-0.41281940696260433
-0.394055417514863,-0.394055417514863
-0.384265509976911,-0.384265509976911
-0.40221367379648965,-0.40221367379648965
-0.41281940696260433,-0.41281940696260433
-0.41281940696260433,-0.41281940696260433
-0.41281940696260433,-0.41281940696260433
-0.4446366064609483,-0.4446366064609483
-0.469927200933991,-0.469927200933991
-0.4707430265621536,-0.4707430265621536
-0.44137330394829766,-0.44137330394829766
-0.41445105821892964,-0.41445105821892964
-0.384265509976911,-0.384265509976911
-0.35897491550386834,-0.35897491550386834
-0.3557116129912177,-0.3557116129912177
-0.39242376625853764,-0.39242376625853764
-0.44137330394829766,-0.44137330394829766
-0.4780854572156176,-0.4780854572156176
-0.4984810979196843,-0.4984810979196843
-0.5213242155082389,-0.5213242155082389
-0.5278508205335403,-0.5278508205335403
-0.509086831085799,-0.509086831085799
-0.469927200933991,-0.469927200933991
-0.44626825771727363,-0.44626825771727363
-0.44137330394829766,-0.44137330394829766
-0.45524233962706295,-0.45524233962706295
-0.469927200933991,-0.469927200933991
-0.48298041098459366,-0.48298041098459366
-0.469927200933991,-0.469927200933991
-0.425872617013207,-0.425872617013207
-0.3557116129912177,-0.3557116129912177
-0.2904455627382043,-0.2904455627382043
-0.24068019942028168,-0.24068019942028168
-0.20396804615296169,-0.20396804615296169
-0.1550185084632017,-0.1550185084632017
-0.09791071449181503,-0.09791071449181503
-0.03998709489226571,-0.03998709489226571
0.003251663400355623,0.003251663400355623
0.045674596064814284,0.045674596064814284
0.08075509807580894,0.08075509807580894
0.10278239003620095,0.10278239003620095
0.10359821566436361,0.10359821566436361
0.10278239003620095,0.10278239003620095
0.10441404129252628,0.10441404129252628
0.10278239003620095,0.10278239003620095
0.09217665687008628,0.09217665687008628
0.10278239003620095,0.10278239003620095
0.14112619455984626,0.14112619455984626
0.1892599066214436,0.1892599066214436
0.21862962923529958,0.21862962923529958
0.24636770059283025,0.24636770059283025
0.27818490009117425,0.27818490009117425
0.3034754945642169,0.3034754945642169
0.29531723828259027,0.29531723828259027
0.2749215975785236,0.2749215975785236
0.25615760813078225,0.25615760813078225
0.24636770059283025,0.24636770059283025
0.21862962923529958,0.21862962923529958
0.1892599066214436,0.1892599066214436
0.15662688149493692,0.15662688149493692
0.13215211265005694,0.13215211265005694
0.09707161063906228,0.09707161063906228
0.07422849305050762,0.07422849305050762
0.059543631743579614,0.059543631743579614
0.045674596064814284,0.045674596064814284
0.013857396566470288,0.013857396566470288
-0.011433197906572375,-0.011433197906572375
-0.02693388484166304,-0.02693388484166304
-0.03998709489226571,-0.03998709489226571
-0.05875108434000703,-0.05875108434000703
-0.03998709489226571,-0.03998709489226571
0.03670051415502495,0.03670051415502495
0.1892599066214436,0.1892599066214436
0.45440323577431024,0.45440323577431024
0.9055548081482648,0.9055548081482648
1.514160726757614,1.514160726757614
2.166821229287747,2.166821229287747
2.7607422865901685,2.7607422865901685
3.255948442884907,3.255948442884907
3.51701264389696,3.51701264389696
3.3424259594701495,3.3424259594701495
2.698739538849806,2.698739538849806
1.8804664338026513,1.8804664338026513
1.215568546850078,1.215568546850078
0.7913392202054915,0.7913392202054915
0.4796938302473529,0.4796938302473529
0.21781380360713692,0.21781380360713692
0.03833216541135028,0.03833216541135028
-0.03998709489226571,-0.03998709489226571
-0.08812080695386303,-0.08812080695386303
-0.1550185084632017,-0.1550185084632017
-0.230074466254167,-0.230074466254167
-0.269234096405975,-0.269234096405975
-0.27576070143127634,-0.27576070143127634
-0.269234096405975,-0.269234096405975
-0.2724973989186257,-0.2724973989186257
-0.269234096405975,-0.269234096405975
-0.26597079389332434,-0.26597079389332434
-0.269234096405975,-0.269234096405975
-0.3018671215324817,-0.3018671215324817
-0.32715771600552435,-0.32715771600552435
-0.335315972287151,-0.335315972287151
-0.32715771600552435,-0.32715771600552435
-0.33857927479980165,-0.33857927479980165
-0.3557116129912177,-0.3557116129912177
-0.3638698692728443,-0.3638698692728443
-0.3557116129912177,-0.3557116129912177
-0.35326413610672963,-0.35326413610672963
-0.3557116129912177,-0.3557116129912177
-0.35979074113203097,-0.35979074113203097
-0.3557116129912177,-0.3557116129912177
-0.354895787363055,-0.354895787363055
-0.3557116129912177,-0.3557116129912177
-0.367133171785495,-0.367133171785495
-0.384265509976911,-0.384265509976911
-0.3981345456556763,-0.3981345456556763
-0.384265509976911,-0.384265509976911
-0.36060656676019365,-0.36060656676019365
-0.3557116129912177,-0.3557116129912177
-0.3858971612332363,-0.3858971612332363
-0.41281940696260433,-0.41281940696260433
-0.418530186359743,-0.418530186359743
-0.41281940696260433,-0.41281940696260433
-0.418530186359743,-0.418530186359743
-0.41281940696260433,-0.41281940696260433
-0.38752881248956167,-0.38752881248956167
-0.3557116129912177,-0.3557116129912177
-0.3442900541969403,-0.3442900541969403
-0.32715771600552435,-0.32715771600552435
-0.2831031320847403,-0.2831031320847403
-0.21212630243458835,-0.21212630243458835
-0.14196529841259903,-0.14196529841259903
-0.06854099187795903,-0.06854099187795903
-0.0008274647404577099,-0.0008274647404577099
0.045674596064814284,0.045674596064814284
0.05220120109011561,0.05220120109011561
0.045674596064814284,0.045674596064814284
0.04322711918032628,0.04322711918032628
0.045674596064814284,0.045674596064814284
0.03914799103951295,0.03914799103951295
0.045674596064814284,0.045674596064814284
0.07096519053785695,0.07096519053785695
0.10278239003620095,0.10278239003620095
0.11746725134312894,0.11746725134312894
0.13215211265005694,0.13215211265005694
0.15581105586677427,0.15581105586677427
0.1892599066214436,0.1892599066214436
0.20312894230020892,0.20312894230020892
0.21781380360713692,0.21781380360713692
0.23168283928590225,0.23168283928590225
0.24636770059283025,0.24636770059283025
0.22678788551692625,0.22678788551692625
0.1892599066214436,0.1892599066214436
0.14846862521331028,0.14846862521331028
0.13215211265005694,0.13215211265005694
0.12725715888108094,0.12725715888108094
0.13215211265005694,0.13215211265005694
0.1231780307402676,0.1231780307402676
0.10278239003620095,0.10278239003620095
0.08401840058845961,0.08401840058845961
0.10278239003620095,0.10278239003620095
0.16396931214840094,0.16396931214840094
0.2749215975785236,0.2749215975785236
0.4837729583881662,0.4837729583881662
0.8770009111625715,0.8770009111625715
1.4570529327862274,1.4570529327862274
2.138267332302054,2.138267332302054
2.812955126792579,2.812955126792579
3.399533753441536,3.399533753441536
3.7356539122445547,3.7356539122445547
3.6287807549552453,3.6287807549552453
3.041386302678126,3.041386302678126
2.2239290232591338,2.2239290232591338
1.487238481028246,1.487238481028246
0.9626626021196515,0.9626626021196515
0.5890144644211502,0.5890144644211502
0.3034754945642169,0.3034754945642169
0.08891335435743561,0.08891335435743561
-0.06854099187795903,-0.06854099187795903
-0.21538960494723902,-0.21538960494723902
-0.3557116129912177,-0.3557116129912177
-0.4682955496776656,-0.4682955496776656
-0.5278508205335403,-0.5278508205335403
-0.550693938122095,-0.550693938122095
-0.5564047175192336,-0.5564047175192336
-0.5694579275698363,-0.5694579275698363
-0.5849586145049269,-0.5849586145049269
-0.6053542552089937,-0.6053542552089937
-0.6135125114906202,-0.6135125114906202
-0.619223290887759,-0.619223290887759
-0.6135125114906202,-0.6135125114906202
-0.6151441627469456,-0.6151441627469456
-0.6135125114906202,-0.6135125114906202
-0.619223290887759,-0.619223290887759
-0.6135125114906202,-0.6135125114906202
-0.6037226039526683,-0.6037226039526683
-0.5849586145049269,-0.5849586145049269
-0.5710895788261616,-0.5710895788261616
-0.5564047175192336,-0.5564047175192336
-0.5515097637502576,-0.5515097637502576
-0.5564047175192336,-0.5564047175192336
-0.5743528813388122,-0.5743528813388122
-0.5849586145049269,-0.5849586145049269
-0.580063660735951,-0.580063660735951
-0.5564047175192336,-0.5564047175192336
-0.536009076815167,-0.536009076815167
-0.5278508205335403,-0.5278508205335403
-0.5302982974180283,-0.5302982974180283
-0.5278508205335403,-0.5278508205335403
-0.5254033436490523,-0.5254033436490523
-0.5278508205335403,-0.5278508205335403
-0.536009076815167,-0.536009076815167
-0.5278508205335403,-0.5278508205335403
-0.5025602260604977,-0.5025602260604977
-0.469927200933991,-0.469927200933991
-0.4470840833454363,-0.4470840833454363
-0.41281940696260433,-0.41281940696260433
-0.35326413610672963,-0.35326413610672963
-0.269234096405975,-0.269234096405975
-0.198257266755823,-0.198257266755823
-0.1550185084632017,-0.1550185084632017
-0.13217539087464703,-0.13217539087464703
-0.09791071449181503,-0.09791071449181503
-0.0522244793147057,-0.0522244793147057
-0.011433197906572375,-0.011433197906572375
0.006514965913006289,0.006514965913006289
0.017120699079120952,0.017120699079120952
0.03017390912972362,0.03017390912972362
0.045674596064814284,0.045674596064814284
0.04077964229583828,0.04077964229583828
0.017120699079120952,0.017120699079120952
-0.01714397730371104,-0.01714397730371104
-0.03998709489226571,-0.03998709489226571
-0.0595669099681697,-0.0595669099681697
-0.06854099187795903,-0.06854099187795903
-0.07833089941591104,-0.07833089941591104
-0.06854099187795903,-0.06854099187795903
-0.0571194330836817,-0.0571194330836817
-0.03998709489226571,-0.03998709489226571
-0.037539618007777706,-0.037539618007777706
-0.03998709489226571,-0.03998709489226571
-0.05385613057103104,-0.05385613057103104
-0.06854099187795903,-0.06854099187795903
-0.09546323760732703,-0.09546323760732703
-0.12646461147750837,-0.12646461147750837
-0.15420268283503902,-0.15420268283503902
-0.1550185084632017,-0.1550185084632017
-0.11749052956771902,-0.11749052956771902
-0.011433197906572375,-0.011433197906572375
0.21210302420999827,0.21210302420999827
0.6192000126631688,0.6192000126631688
1.2041469880558007,1.2041469880558007
1.9090203307883447,1.9090203307883447
2.6375526167376058,2.6375526167376058
3.2845023398706004,3.2845023398706004
3.6671245594788906,3.6671245594788906
3.600226857969552,3.600226857969552
3.0544395127287283,3.0544395127287283
2.25329874587299,2.25329874587299
1.4839751785155955,1.4839751785155955
0.9055548081482648,0.9055548081482648
0.4943786915542809,0.4943786915542809
0.1892599066214436,0.1892599066214436
-0.0448820486612417,-0.0448820486612417
-0.21212630243458835,-0.21212630243458835
-0.3336843210308257,-0.3336843210308257
-0.41281940696260433,-0.41281940696260433
-0.457689816511551,-0.457689816511551
-0.469927200933991,-0.469927200933991
-0.47237467781847897,-0.47237467781847897
-0.469927200933991,-0.469927200933991
-0.47319050344664165,-0.47319050344664165
-0.469927200933991,-0.469927200933991
-0.46258477028052697,-0.46258477028052697
-0.44137330394829766,-0.44137330394829766
-0.4266884426413696,-0.4266884426413696
-0.41281940696260433,-0.41281940696260433
-0.406292801937303,-0.406292801937303
-0.384265509976911,-0.384265509976911
-0.364685694901007,-0.364685694901007
-0.3557116129912177,-0.3557116129912177
-0.37773890495160967,-0.37773890495160967
-0.41281940696260433,-0.41281940696260433
-0.440557478320135,-0.440557478320135
-0.44137330394829766,-0.44137330394829766
-0.4372941758074843,-0.4372941758074843
-0.44137330394829766,-0.44137330394829766
-0.45279486274257497,-0.45279486274257497
-0.44137330394829766,-0.44137330394829766
-0.418530186359743,-0.418530186359743
-0.41281940696260433,-0.41281940696260433
-0.4495315602299243,-0.4495315602299243
-0.4984810979196843,-0.4984810979196843
-0.5351932511870043,-0.5351932511870043
-0.5564047175192336,-0.5564047175192336
-0.5865902657612523,-0.5865902657612523
-0.6135125114906202,-0.6135125114906202
-0.621670767772247,-0.621670767772247
-0.6135125114906202,-0.6135125114906202
-0.6273815471693857,-0.6273815471693857
-0.6706203054620069,-0.6706203054620069
-0.7138590637546283,-0.7138590637546283
-0.6991742024477002,-0.6991742024477002
-0.6184074652595963,-0.6184074652595963
-0.4984810979196843,-0.4984810979196843
-0.396502894399351,-0.396502894399351
-0.32715771600552435,-0.32715771600552435
-0.2831031320847403,-0.2831031320847403
-0.24068019942028168,-0.24068019942028168
-0.20641552303744967,-0.20641552303744967
-0.18357240544889503,-0.18357240544889503
-0.17459832353910568,-0.17459832353910568
-0.1550185084632017,-0.1550185084632017
-0.1256487858493457,-0.1256487858493457
-0.09791071449181503,-0.09791071449181503
-0.08404167881304969,-0.08404167881304969
-0.06854099187795903,-0.06854099187795903
-0.05304030494286837,-0.05304030494286837
-0.03998709489226571,-0.03998709489226571
-0.03672379237961504,-0.03672379237961504
-0.011433197906572375,-0.011433197906572375
0.03180556038604895,0.03180556038604895
0.07422849305050762,0.07422849305050762
0.08728170310111028,0.08728170310111028
0.10278239003620095,0.10278239003620095
0.1231780307402676,0.1231780307402676
0.13215211265005694,0.13215211265005694
0.09299248249824894,0.09299248249824894
0.045674596064814284,0.045674596064814284
0.026910606617072952,0.026910606617072952
0.045674596064814284,0.045674596064814284
0.07178101616601962,0.07178101616601962
0.10278239003620095,0.10278239003620095
0.1280729845092436,0.1280729845092436
0.13215211265005694,0.13215211265005694
0.11665142571496627,0.11665142571496627
0.13215211265005694,0.13215211265005694
0.19497068601858225,0.19497068601858225
0.3034754945642169,0.3034754945642169
0.4911153890416302,0.4911153890416302
0.8484470141768782,0.8484470141768782
1.3673121136883342,1.3673121136883342
1.937574227774038,1.937574227774038
2.468676711707934,2.468676711707934
2.941039750414118,2.941039750414118
3.2094463820796353,3.2094463820796353
3.026701441371198,3.026701441371198
2.3348813086892566,2.3348813086892566
1.4505263277609262,1.4505263277609262
0.7423896825157315,0.7423896825157315
0.3034754945642169,0.3034754945642169
-0.002459115996783043,-0.002459115996783043
-0.24068019942028168,-0.24068019942028168
-0.3932395918867003,-0.3932395918867003
-0.469927200933991,-0.469927200933991
-0.5417198562123057,-0.5417198562123057
-0.6135125114906202,-0.6135125114906202
-0.6649095260648683,-0.6649095260648683
-0.6991742024477002,-0.6991742024477002
-0.7489395657656229,-0.7489395657656229
-0.785651719032943,-0.785651719032943
-0.785651719032943,-0.785651719032943
-0.7570978220472496,-0.7570978220472496
-0.741597135112159,-0.741597135112159
-0.7285439250615563,-0.7285439250615563
-0.7073324587293269,-0.7073324587293269
-0.6706203054620069,-0.6706203054620069
-0.6453297109889643,-0.6453297109889643
-0.6135125114906202,-0.6135125114906202
-0.5735370557106496,-0.5735370557106496
-0.5278508205335403,-0.5278508205335403
-0.5033760516886603,-0.5033760516886603
-0.4984810979196843,-0.4984810979196843
-0.5041918773168229,-0.5041918773168229
-0.4984810979196843,-0.4984810979196843
-0.4789012828437803,-0.4789012828437803
-0.44137330394829766,-0.44137330394829766
-0.41200358133444165,-0.41200358133444165
-0.41281940696260433,-0.41281940696260433
-0.45279486274257497,-0.45279486274257497
-0.4984810979196843,-0.4984810979196843
-0.5270349949053776,-0.5270349949053776
-0.5278508205335403,-0.5278508205335403
-0.5172450873674256,-0.5172450873674256
-0.4984810979196843,-0.4984810979196843
-0.4813487597282683,-0.4813487597282683
-0.469927200933991,-0.469927200933991
-0.479717108471943,-0.479717108471943
-0.4984810979196843,-0.4984810979196843
-0.5188767386237509,-0.5188767386237509
-0.5278508205335403,-0.5278508205335403
-0.5327457743025162,-0.5327457743025162
-0.5278508205335403,-0.5278508205335403
-0.509086831085799,-0.509086831085799
-0.469927200933991,-0.469927200933991
-0.43239922203850834,-0.43239922203850834
-0.41281940696260433,-0.41281940696260433
-0.416082709475255,-0.416082709475255
-0.41281940696260433,-0.41281940696260433
-0.39160794063037496,-0.39160794063037496
-0.3557116129912177,-0.3557116129912177
-0.325526064749199,-0.325526064749199
-0.298603819019831,-0.298603819019831
-0.27820817831576433,-0.27820817831576433
-0.269234096405975,-0.269234096405975
-0.2831031320847403,-0.2831031320847403
-0.298603819019831,-0.298603819019831
-0.30513042404513235,-0.30513042404513235
-0.298603819019831,-0.298603819019831
-0.298603819019831,-0.298603819019831
-0.298603819019831,-0.298603819019831
-0.303498772788807,-0.303498772788807
-0.298603819019831,-0.298603819019831
-0.2928930396226923,-0.2928930396226923
-0.269234096405975,-0.269234096405975
-0.24149602504844433,-0.24149602504844433
-0.21212630243458835,-0.21212630243458835
-0.19907309238398568,-0.19907309238398568
-0.18357240544889503,-0.18357240544889503
-0.16072928786034035,-0.16072928786034035
-0.12646461147750837,-0.12646461147750837
-0.0889366325820257,-0.0889366325820257
-0.03998709489226571,-0.03998709489226571
0.019568175963608953,0.019568175963608953
0.10278239003620095,0.10278239003620095
0.24228857245201693,0.24228857245201693
0.5041685990922329,0.5041685990922329
0.9226871463396809,0.9226871463396809
1.4790802247466195,1.4790802247466195
2.0958443996375955,2.0958443996375955
2.683238851914715,2.683238851914715
3.1188897373535793,3.1188897373535793
3.2845023398706004,3.2845023398706004
3.1058365273029764,3.1058365273029764
2.625315232315166,2.625315232315166
1.9726547297850328,1.9726547297850328
1.3069410172042968,1.3069410172042968
0.7407580312594062,0.7407580312594062
0.33202939154991024,0.33202939154991024
0.06851771365336895,0.06851771365336895
-0.09791071449181503,-0.09791071449181503
-0.23089029188232968,-0.23089029188232968
-0.3557116129912177,-0.3557116129912177
-0.4715588521903163,-0.4715588521903163
-0.5564047175192336,-0.5564047175192336
-0.6110650346061323,-0.6110650346061323
-0.6420664084763136,-0.6420664084763136
-0.6632778748085429,-0.6632778748085429
-0.6706203054620069,-0.6706203054620069
-0.6795943873717962,-0.6795943873717962
-0.6991742024477002,-0.6991742024477002
-0.7448604376248096,-0.7448604376248096
-0.785651719032943,-0.785651719032943
-0.8125739647623109,-0.8125739647623109
-0.8142056160186363,-0.8142056160186363
-0.8182847441594496,-0.8182847441594496
-0.8142056160186363,-0.8142056160186363
-0.7987049290835456,-0.7987049290835456
-0.7570978220472496,-0.7570978220472496
-0.7081482843574896,-0.7081482843574896
-0.6706203054620069,-0.6706203054620069
-0.6689886542056817,-0.6689886542056817
-0.6991742024477002,-0.6991742024477002
-0.7481237401374603,-0.7481237401374603
-0.785651719032943,-0.785651719032943
-0.807679010993335,-0.807679010993335
-0.8142056160186363,-0.8142056160186363
-0.8035998828525216,-0.8035998828525216
-0.7570978220472496,-0.7570978220472496
-0.6910159461660736,-0.6910159461660736
-0.6420664084763136,-0.6420664084763136
-0.6428822341044763,-0.6428822341044763
-0.6706203054620069,-0.6706203054620069
-0.6967267255632122,-0.6967267255632122
-0.6991742024477002,-0.6991742024477002
-0.6861209923970976,-0.6861209923970976
-0.6420664084763136,-0.6420664084763136
-0.5661946250571857,-0.5661946250571857
-0.469927200933991,-0.469927200933991
-0.39487124314302563,-0.39487124314302563
-0.3557116129912177,-0.3557116129912177
-0.3442900541969403,-0.3442900541969403
-0.32715771600552435,-0.32715771600552435
-0.28473478334106567,-0.28473478334106567
-0.21212630243458835,-0.21212630243458835
-0.13299121650280968,-0.13299121650280968
-0.06854099187795903,-0.06854099187795903
-0.032644664238801704,-0.032644664238801704
-0.011433197906572375,-0.011433197906572375
-0.004906592881271043,-0.004906592881271043
-0.011433197906572375,-0.011433197906572375
-0.03835544363594037,-0.03835544363594037
-0.06854099187795903,-0.06854099187795903
-0.10035819137630303,-0.10035819137630303
-0.12646461147750837,-0.12646461147750837
-0.15257103157871368,-0.15257103157871368
-0.1550185084632017,-0.1550185084632017
-0.13625451901546035,-0.13625451901546035
-0.09791071449181503,-0.09791071449181503
-0.07588342253142304,-0.07588342253142304
-0.06854099187795903,-0.06854099187795903
-0.08159420192856169,-0.08159420192856169
-0.09791071449181503,-0.09791071449181503
-0.11912218082404435,-0.11912218082404435
-0.12646461147750837,-0.12646461147750837
-0.11993800645220702,-0.11993800645220702
-0.09791071449181503,-0.09791071449181503
-0.07262012001877237,-0.07262012001877237
-0.03998709489226571,-0.03998709489226571
-0.005722418509433709,-0.005722418509433709
0.045674596064814284,0.045674596064814284
0.14438949707249693,0.14438949707249693
0.36139911416376624,0.36139911416376624
0.7521795900536835,0.7521795900536835
1.3354949141899901,1.3354949141899901
2.040368256922534,2.040368256922534
2.7403466458861017,2.7403466458861017
3.261659222282046,3.261659222282046
3.456641547412923,3.456641547412923
3.2445268840906296,3.2445268840906296
2.683238851914715,2.683238851914715
1.944916658427502,1.944916658427502
1.2498332232329101,1.2498332232329101
0.7187307392990142,0.7187307392990142
0.36139911416376624,0.36139911416376624
0.1109406463178276,0.1109406463178276
-0.06854099187795903,-0.06854099187795903
-0.20152056926847367,-0.20152056926847367
-0.298603819019831,-0.298603819019831
-0.38100220746426033,-0.38100220746426033
-0.44137330394829766,-0.44137330394829766
-0.479717108471943,-0.479717108471943
-0.4984810979196843,-0.4984810979196843
-0.5180609129955883,-0.5180609129955883
-0.5278508205335403,-0.5278508205335403
-0.5237716923927269,-0.5237716923927269
-0.4984810979196843,-0.4984810979196843
-0.4715588521903163,-0.4715588521903163
-0.44137330394829766,-0.44137330394829766
-0.430767570782183,-0.430767570782183
-0.44137330394829766,-0.44137330394829766
-0.48542788786908164,-0.48542788786908164
-0.5278508205335403,-0.5278508205335403
-0.5547730662629083,-0.5547730662629083
-0.5564047175192336,-0.5564047175192336
-0.555588891891071,-0.555588891891071
-0.5564047175192336,-0.5564047175192336
-0.5604838456600469,-0.5604838456600469
-0.5564047175192336,-0.5564047175192336
-0.5539572406347456,-0.5539572406347456
-0.5564047175192336,-0.5564047175192336
-0.570273753197999,-0.570273753197999
-0.5849586145049269,-0.5849586145049269
-0.599643475811855,-0.599643475811855
-0.6135125114906202,-0.6135125114906202
-0.6404347572199883,-0.6404347572199883
-0.6706203054620069,-0.6706203054620069
-0.6877526436534229,-0.6877526436534229
-0.6706203054620069,-0.6706203054620069
-0.6379872803355002,-0.6379872803355002
-0.6135125114906202,-0.6135125114906202
-0.614328337118783,-0.614328337118783
-0.6135125114906202,-0.6135125114906202
-0.594748522042879,-0.594748522042879
-0.5564047175192336,-0.5564047175192336
-0.516429261739263,-0.516429261739263
-0.469927200933991,-0.469927200933991
-0.4177143607315803,-0.4177143607315803
-0.3557116129912177,-0.3557116129912177
-0.29778799339166834,-0.29778799339166834
-0.24068019942028168,-0.24068019942028168
-0.19173066173052167,-0.19173066173052167
-0.1550185084632017,-0.1550185084632017
-0.13870199589994836,-0.13870199589994836
-0.12646461147750837,-0.12646461147750837
-0.11259557579874302,-0.11259557579874302
-0.09791071449181503,-0.09791071449181503
-0.0962790632354897,-0.0962790632354897
-0.09791071449181503,-0.09791071449181503
-0.0913841094665137,-0.0913841094665137
-0.06854099187795903,-0.06854099187795903
-0.048961176802055036,-0.048961176802055036
-0.03998709489226571,-0.03998709489226571
-0.0522244793147057,-0.0522244793147057
-0.06854099187795903,-0.06854099187795903
-0.08159420192856169,-0.08159420192856169
-0.06854099187795903,-0.06854099187795903
-0.0448820486612417,-0.0448820486612417
-0.011433197906572375,-0.011433197906572375
0.010594094053819622,0.010594094053819622
0.045674596064814284,0.045674596064814284
0.08483422621662227,0.08483422621662227
0.13215211265005694,0.13215211265005694
0.16396931214840094,0.16396931214840094
0.1892599066214436,0.1892599066214436
0.20476059355653425,0.20476059355653425
0.21781380360713692,0.21781380360713692
0.2112871985818356,0.2112871985818356
0.1892599066214436,0.1892599066214436
0.15417940461044893,0.15417940461044893
0.13215211265005694,0.13215211265005694
0.1305204613937316,0.1305204613937316
0.1892599066214436,0.1892599066214436
0.37363649858620623,0.37363649858620623
0.7627853232197982,0.7627853232197982
1.340389867958966,1.340389867958966
2.023235918731118,2.023235918731118
2.710976923272246,2.710976923272246
3.3138720624844566,3.3138720624844566
3.655703000684613,3.655703000684613
3.5431190639981653,3.5431190639981653
2.9524613092083953,2.9524613092083953
2.138267332302054,2.138267332302054
1.39668183630219,1.39668183630219
0.8484470141768782,0.8484470141768782
0.4397183744673822,0.4397183744673822
0.13215211265005694,0.13215211265005694
-0.08730498132570036,-0.08730498132570036
-0.24068019942028168,-0.24068019942028168
-0.3785547305797723,-0.3785547305797723
-0.4984810979196843,-0.4984810979196843
-0.5857744401330897,-0.5857744401330897
-0.6420664084763136,-0.6420664084763136
-0.7016216793321882,-0.7016216793321882
-0.7570978220472496,-0.7570978220472496
-0.7970732778272203,-0.7970732778272203
-0.8142056160186363,-0.8142056160186363
-0.8231796979284256,-0.8231796979284256
-0.8142056160186363,-0.8142056160186363
-0.8003365803398709,-0.8003365803398709
-0.785651719032943,-0.785651719032943
-0.7905466728019189,-0.7905466728019189
-0.785651719032943,-0.785651719032943
-0.7725985089823403,-0.7725985089823403
-0.7570978220472496,-0.7570978220472496
-0.766071903957039,-0.766071903957039
-0.785651719032943,-0.785651719032943
-0.7978891034553829,-0.7978891034553829
-0.785651719032943,-0.785651719032943
-0.7603611245599002,-0.7603611245599002
-0.7285439250615563,-0.7285439250615563
-0.6991742024477002,-0.6991742024477002
-0.6706203054620069,-0.6706203054620069
-0.6543037928987536,-0.6543037928987536
-0.6420664084763136,-0.6420664084763136
-0.6330923265665243,-0.6330923265665243
-0.6135125114906202,-0.6135125114906202
-0.5865902657612523,-0.5865902657612523
-0.5564047175192336,-0.5564047175192336
-0.5368249024433296,-0.5368249024433296
-0.5278508205335403,-0.5278508205335403
-0.5294824717898656,-0.5294824717898656
-0.5278508205335403,-0.5278508205335403
-0.5196925642519137,-0.5196925642519137
-0.4984810979196843,-0.4984810979196843
-0.47319050344664165,-0.47319050344664165
-0.44137330394829766,-0.44137330394829766
-0.41363523259076695,-0.41363523259076695
-0.384265509976911,-0.384265509976911
-0.35815908987570566,-0.35815908987570566
-0.32715771600552435,-0.32715771600552435
-0.2904455627382043,-0.2904455627382043
-0.24068019942028168,-0.24068019942028168
-0.19173066173052167,-0.19173066173052167
-0.1550185084632017,-0.1550185084632017
-0.14604442655341235,-0.14604442655341235
-0.1550185084632017,-0.1550185084632017
-0.17296667228278034,-0.17296667228278034
-0.18357240544889503,-0.18357240544889503
-0.18846735921787103,-0.18846735921787103
-0.18357240544889503,-0.18357240544889503
-0.1819407541925697,-0.1819407541925697
-0.18357240544889503,-0.18357240544889503
-0.19744144112766035,-0.19744144112766035
-0.21212630243458835,-0.21212630243458835
-0.22844281499784166,-0.22844281499784166
-0.24068019942028168,-0.24068019942028168
-0.25781253761169765,-0.25781253761169765
-0.269234096405975,-0.269234096405975
-0.276576527059439,-0.276576527059439
-0.269234096405975,-0.269234096405975
-0.25781253761169765,-0.25781253761169765
-0.24068019942028168,-0.24068019942028168
-0.22844281499784166,-0.22844281499784166
-0.21212630243458835,-0.21212630243458835
-0.19091483610235901,-0.19091483610235901
-0.1550185084632017,-0.1550185084632017
-0.11259557579874302,-0.11259557579874302
-0.06854099187795903,-0.06854099187795903
-0.037539618007777706,-0.037539618007777706
-0.011433197906572375,-0.011433197906572375
0.011409919681982288,0.011409919681982288
0.045674596064814284,0.045674596064814284
0.07586014430683294,0.07586014430683294
0.10278239003620095,0.10278239003620095
0.1133881232023156,0.1133881232023156
0.13215211265005694,0.13215211265005694
0.1549952302386116,0.1549952302386116
0.1892599066214436,0.1892599066214436
0.2039447679283716,0.2039447679283716
0.1892599066214436,0.1892599066214436
0.1525477533541236,0.1525477533541236
0.13215211265005694,0.13215211265005694
0.11665142571496627,0.11665142571496627
0.07422849305050762,0.07422849305050762
-0.006538244137596376,-0.006538244137596376
-0.06854099187795903,-0.06854099187795903
-0.07098846876244704,-0.07098846876244704
0.017120699079120952,0.017120699079120952
0.25778925938710756,0.25778925938710756
0.7334156006059421,0.7334156006059421
1.3803653237389368,1.3803653237389368
2.023235918731118,2.023235918731118
2.5649441358311287,2.5649441358311287
3.026701441371198,3.026701441371198
3.2828706886142753,3.2828706886142753
3.0552553383568912,3.0552553383568912
2.287563422255822,2.287563422255822
1.3640488111756834,1.3640488111756834
0.7064933548765742,0.7064933548765742
0.36139911416376624,0.36139911416376624
0.10359821566436361,0.10359821566436361
-0.1550185084632017,-0.1550185084632017
-0.35326413610672963,-0.35326413610672963
-0.469927200933991,-0.469927200933991
-0.5825111376204389,-0.5825111376204389
-0.6991742024477002,-0.6991742024477002
-0.7734143346105029,-0.7734143346105029
-0.785651719032943,-0.785651719032943
-0.7848358934047802,-0.7848358934047802
-0.785651719032943,-0.785651719032943
-0.7717826833541775,-0.7717826833541775
-0.7285439250615563,-0.7285439250615563
-0.6893842949097483,-0.6893842949097483
-0.6706203054620069,-0.6706203054620069
-0.6763310848591456,-0.6763310848591456
-0.6706203054620069,-0.6706203054620069
-0.6591987466677296,-0.6591987466677296
-0.6420664084763136,-0.6420664084763136
-0.636355629079175,-0.636355629079175
-0.6135125114906202,-0.6135125114906202
-0.5710895788261616,-0.5710895788261616
-0.5278508205335403,-0.5278508205335403
-0.509086831085799,-0.509086831085799
-0.4984810979196843,-0.4984810979196843
-0.4837962366127563,-0.4837962366127563
-0.469927200933991,-0.469927200933991
-0.479717108471943,-0.479717108471943
-0.4984810979196843,-0.4984810979196843
-0.5156134361111003,-0.5156134361111003
-0.5278508205335403,-0.5278508205335403
-0.5457989843531189,-0.5457989843531189
-0.5564047175192336,-0.5564047175192336
-0.5564047175192336,-0.5564047175192336
-0.5564047175192336,-0.5564047175192336
-0.5792478351077883,-0.5792478351077883
-0.6135125114906202,-0.6135125114906202
-0.6469613622452897,-0.6469613622452897
-0.6706203054620069,-0.6706203054620069
-0.7008058537040256,-0.7008058537040256
-0.7285439250615563,-0.7285439250615563
-0.7424129607403216,-0.7424129607403216
-0.7285439250615563,-0.7285439250615563
-0.6926475974223989,-0.6926475974223989
-0.6420664084763136,-0.6420664084763136
-0.5963801732992042,-0.5963801732992042
-0.5564047175192336,-0.5564047175192336
-0.5205083898800763,-0.5205083898800763
-0.469927200933991,-0.469927200933991
-0.41200358133444165,-0.41200358133444165
-0.3557116129912177,-0.3557116129912177
-0.31981528535206033,-0.31981528535206033
-0.298603819019831,-0.298603819019831
-0.2920772139945297,-0.2920772139945297
-0.298603819019831,-0.298603819019831
-0.31736780846757234,-0.31736780846757234
-0.32715771600552435,-0.32715771600552435
-0.320631110980223,-0.320631110980223
-0.298603819019831,-0.298603819019831
-0.283918957712903,-0.283918957712903
-0.269234096405975,-0.269234096405975
-0.2512859325863963,-0.2512859325863963
-0.21212630243458835,-0.21212630243458835
-0.17949327730808168,-0.17949327730808168
-0.1550185084632017,-0.1550185084632017
-0.14686025218157503,-0.14686025218157503
-0.12646461147750837,-0.12646461147750837
-0.1060689707734417,-0.1060689707734417
-0.09791071449181503,-0.09791071449181503
-0.11422722705506835,-0.11422722705506835
-0.12646461147750837,-0.12646461147750837
-0.11993800645220702,-0.11993800645220702
-0.09791071449181503,-0.09791071449181503
-0.07098846876244704,-0.07098846876244704
-0.011433197906572375,-0.011433197906572375
0.1060456925488516,0.1060456925488516
0.3034754945642169,0.3034754945642169
0.5947252438182888,0.5947252438182888
1.0205862217192008,1.0205862217192008
1.594927463945718,1.594927463945718
2.2818526428586834,2.2818526428586834
2.981831031822251,2.981831031822251
3.5716729609838587,3.5716729609838587
3.8890291303391358,3.8890291303391358
3.800919962497568,3.800919962497568
3.2869498167550883,3.2869498167550883
2.5110996443723925,2.5110996443723925
1.7140380056574673,1.7140380056574673
1.0776940156905874,1.0776940156905874
0.6265424433166329,0.6265424433166329
0.3034754945642169,0.3034754945642169
0.04649042169297695,0.04649042169297695
-0.1550185084632017,-0.1550185084632017
-0.30513042404513235,-0.30513042404513235
-0.41281940696260433,-0.41281940696260433
-0.49684944666335895,-0.49684944666335895
-0.5564047175192336,-0.5564047175192336
-0.6020909526963429,-0.6020909526963429
-0.6420664084763136,-0.6420664084763136
-0.6763310848591456,-0.6763310848591456
-0.6706203054620069,-0.6706203054620069
-0.6379872803355002,-0.6379872803355002
-0.6135125114906202,-0.6135125114906202
-0.6379872803355002,-0.6379872803355002
-0.6706203054620069,-0.6706203054620069
-0.6836735155126096,-0.6836735155126096
-0.6706203054620069,-0.6706203054620069
-0.677962736115471,-0.677962736115471
-0.6991742024477002,-0.6991742024477002
-0.722017320036255,-0.722017320036255
-0.7285439250615563,-0.7285439250615563
-0.7399654838558336,-0.7399654838558336
-0.7570978220472496,-0.7570978220472496
-0.7766776371231536,-0.7766776371231536
-0.785651719032943,-0.785651719032943
-0.7970732778272203,-0.7970732778272203
-0.8142056160186363,-0.8142056160186363
-0.8362329079790283,-0.8362329079790283
-0.8427595130043296,-0.8427595130043296
-0.8337854310945403,-0.8337854310945403
-0.8142056160186363,-0.8142056160186363
-0.8011524059680336,-0.8011524059680336
-0.785651719032943,-0.785651719032943
-0.7619927758162256,-0.7619927758162256
-0.7285439250615563,-0.7285439250615563
-0.6991742024477002,-0.6991742024477002
-0.6706203054620069,-0.6706203054620069
-0.6371714547073376,-0.6371714547073376
-0.5849586145049269,-0.5849586145049269
-0.5188767386237509,-0.5188767386237509
-0.44137330394829766,-0.44137330394829766
-0.35979074113203097,-0.35979074113203097
-0.269234096405975,-0.269234096405975
-0.18030910293624436,-0.18030910293624436
-0.09791071449181503,-0.09791071449181503
-0.032644664238801704,-0.032644664238801704
0.017120699079120952,0.017120699079120952
0.050569549833790285,0.050569549833790285
0.07422849305050762,0.07422849305050762
0.08972917998559828,0.08972917998559828
0.10278239003620095,0.10278239003620095
0.10033491315171295,0.10033491315171295
0.07422849305050762,0.07422849305050762
0.026094780988910285,0.026094780988910285
-0.011433197906572375,-0.011433197906572375
-0.023670582329012372,-0.023670582329012372
-0.011433197906572375,-0.011433197906572375
-0.016328151675548373,-0.016328151675548373
-0.03998709489226571,-0.03998709489226571
-0.0791467250440737,-0.0791467250440737
-0.09791071449181503,-0.09791071449181503
-0.10280566826079103,-0.10280566826079103
-0.09791071449181503,-0.09791071449181503
-0.09791071449181503,-0.09791071449181503
-0.09791071449181503,-0.09791071449181503
-0.1060689707734417,-0.1060689707734417
-0.12646461147750837,-0.12646461147750837
-0.16807171851380434,-0.16807171851380434
-0.21212630243458835,-0.21212630243458835
-0.23578524565130568,-0.23578524565130568
-0.21212630243458835,-0.21212630243458835
-0.1452286009252497,-0.1452286009252497
-0.011433197906572375,-0.011433197906572375
0.25697343375894494,0.25697343375894494
0.7334156006059421,0.7334156006059421
1.3656804624320087,1.3656804624320087
2.023235918731118,2.023235918731118
2.622867755430678,2.622867755430678
3.1417328549421337,3.1417328549421337
3.4305351273117175,3.4305351273117175
3.255948442884907,3.255948442884907
2.570654915228267,2.570654915228267
1.6797733292746353,1.6797733292746353
0.9455302639282355,0.9455302639282355
0.47561470210653956,0.47561470210653956
0.15091610209779827,0.15091610209779827
-0.09791071449181503,-0.09791071449181503
-0.25536506072720966,-0.25536506072720966
-0.32715771600552435,-0.32715771600552435
-0.3883446381177243,-0.3883446381177243
-0.469927200933991,-0.469927200933991
-0.5466148099812816,-0.5466148099812816
-0.5849586145049269,-0.5849586145049269
-0.6020909526963429,-0.6020909526963429
-0.6135125114906202,-0.6135125114906202
-0.6233024190285723,-0.6233024190285723
-0.6135125114906202,-0.6135125114906202
-0.5890377426457403,-0.5890377426457403
-0.5564047175192336,-0.5564047175192336
-0.5417198562123057,-0.5417198562123057
-0.5278508205335403,-0.5278508205335403
-0.5001127491760097,-0.5001127491760097
-0.44137330394829766,-0.44137330394829766
-0.40139784816832697,-0.40139784816832697
-0.41281940696260433,-0.41281940696260433
-0.47482215470296696,-0.47482215470296696
-0.5278508205335403,-0.5278508205335403
-0.5400882049559803,-0.5400882049559803
-0.5278508205335403,-0.5278508205335403
-0.5319299486743536,-0.5319299486743536
-0.5564047175192336,-0.5564047175192336
-0.5955643476710416,-0.5955643476710416
-0.6420664084763136,-0.6420664084763136
-0.702437504960351,-0.702437504960351
-0.7570978220472496,-0.7570978220472496
-0.7938099753145695,-0.7938099753145695
-0.8142056160186363,-0.8142056160186363
-0.8346012567227029,-0.8346012567227029
-0.8427595130043296,-0.8427595130043296
-0.8354170823508655,-0.8354170823508655
-0.8142056160186363,-0.8142056160186363
-0.7987049290835456,-0.7987049290835456
-0.785651719032943,-0.785651719032943
-0.7807567652639669,-0.7807567652639669
-0.785651719032943,-0.785651719032943
-0.7987049290835456,-0.7987049290835456
-0.785651719032943,-0.785651719032943
-0.739149658227671,-0.739149658227671
-0.6706203054620069,-0.6706203054620069
-0.6045384295808309,-0.6045384295808309
-0.5278508205335403,-0.5278508205335403
-0.4470840833454363,-0.4470840833454363
-0.384265509976911,-0.384265509976911
-0.362238218016519,-0.362238218016519
-0.3557116129912177,-0.3557116129912177
-0.3434742285687777,-0.3434742285687777
-0.32715771600552435,-0.32715771600552435
-0.32715771600552435,-0.32715771600552435
-0.32715771600552435,-0.32715771600552435
-0.3100253778141083,-0.3100253778141083
-0.269234096405975,-0.269234096405975
-0.23660107127946833,-0.23660107127946833
-0.21212630243458835,-0.21212630243458835
-0.19417813861500968,-0.19417813861500968
-0.1550185084632017,-0.1550185084632017
-0.11259557579874302,-0.11259557579874302
-0.06854099187795903,-0.06854099187795903
-0.03182883861063904,-0.03182883861063904
0.017120699079120952,0.017120699079120952
0.06770188802520628,0.06770188802520628
0.10278239003620095,0.10278239003620095
0.10767734380517693,0.10767734380517693
0.10278239003620095,0.10278239003620095
0.10033491315171295,0.10033491315171295
0.10278239003620095,0.10278239003620095
0.11012482068966493,0.11012482068966493
0.16070600963575027,0.16070600963575027
0.30021219205156624,0.30021219205156624
0.5620922186917822,0.5620922186917822
0.9447144383000728,0.9447144383000728
1.4505263277609262,1.4505263277609262
2.055053118229462,2.055053118229462
2.683238851914715,2.683238851914715
3.1694709262996645,3.1694709262996645
3.3424259594701495,3.3424259594701495
3.107468178559302,3.107468178559302
2.539653541358086,2.539653541358086
1.817647860434126,1.817647860434126
1.134801809661974,1.134801809661974
0.5873828131648249,0.5873828131648249
0.1892599066214436,0.1892599066214436
-0.09791071449181503,-0.09791071449181503
-0.298603819019831,-0.298603819019831
-0.44382078083278564,-0.44382078083278564
-0.5564047175192336,-0.5564047175192336
-0.6551196185269162,-0.6551196185269162
-0.7285439250615563,-0.7285439250615563
-0.7717826833541775,-0.7717826833541775
-0.785651719032943,-0.785651719032943
-0.7889150215455936,-0.7889150215455936
-0.785651719032943,-0.785651719032943
-0.7848358934047802,-0.7848358934047802
-0.785651719032943,-0.785651719032943
-0.8011524059680336,-0.8011524059680336
-0.8142056160186363,-0.8142056160186363
-0.8166530929031243,-0.8166530929031243
-0.785651719032943,-0.785651719032943
-0.7505712170219483,-0.7505712170219483
-0.7285439250615563,-0.7285439250615563
-0.7383338325995082,-0.7383338325995082
-0.7570978220472496,-0.7570978220472496
-0.7742301602386656,-0.7742301602386656
-0.785651719032943,-0.785651719032943
-0.8019682315961962,-0.8019682315961962
-0.8142056160186363,-0.8142056160186363
-0.8182847441594496,-0.8182847441594496
-0.8142056160186363,-0.8142056160186363
-0.8158372672749615,-0.8158372672749615
-0.8142056160186363,-0.8142056160186363
-0.7995207547117082,-0.7995207547117082
-0.7570978220472496,-0.7570978220472496
-0.699990028075863,-0.699990028075863
-0.6420664084763136,-0.6420664084763136
-0.6045384295808309,-0.6045384295808309
-0.5849586145049269,-0.5849586145049269
-0.5841427888767643,-0.5841427888767643
-0.5849586145049269,-0.5849586145049269
-0.572721230082487,-0.572721230082487
-0.5278508205335403,-0.5278508205335403
-0.46584807279317764,-0.46584807279317764
-0.41281940696260433,-0.41281940696260433
-0.384265509976911,-0.384265509976911
-0.3557116129912177,-0.3557116129912177
-0.30757790092962034,-0.30757790092962034
-0.24068019942028168,-0.24068019942028168
-0.17867745167991902,-0.17867745167991902
-0.12646461147750837,-0.12646461147750837
-0.08975245821018836,-0.08975245821018836
-0.06854099187795903,-0.06854099187795903
-0.0669093406216337,-0.0669093406216337
-0.06854099187795903,-0.06854099187795903
-0.07588342253142304,-0.07588342253142304
-0.09791071449181503,-0.09791071449181503
-0.14359694966892436,-0.14359694966892436
-0.18357240544889503,-0.18357240544889503
-0.198257266755823,-0.198257266755823
-0.18357240544889503,-0.18357240544889503
-0.1770458004235937,-0.1770458004235937
-0.18357240544889503,-0.18357240544889503
-0.20478387178112434,-0.20478387178112434
-0.21212630243458835,-0.21212630243458835
-0.22354786122886566,-0.22354786122886566
-0.24068019942028168,-0.24068019942028168
-0.266786619521487,-0.266786619521487
-0.269234096405975,-0.269234096405975
-0.24639097881742034,-0.24639097881742034
-0.21212630243458835,-0.21212630243458835
-0.20233639489663635,-0.20233639489663635
-0.21212630243458835,-0.21212630243458835
-0.22599533811335368,-0.22599533811335368
-0.21212630243458835,-0.21212630243458835
-0.15991346223217767,-0.15991346223217767
-0.03998709489226571,-0.03998709489226571
0.17783834782716626,0.17783834782716626
0.5327224960779262,0.5327224960779262
1.022217872975526,1.022217872975526
1.6226655353032486,1.6226655353032486
2.275326037833382,2.275326037833382
2.8839319564427313,2.8839319564427313
3.2673700016791845,3.2673700016791845
3.255948442884907,3.255948442884907
2.8072443473954407,2.8072443473954407
2.081159538330667,2.081159538330667
1.313467622229598,1.313467622229598
0.6763078066345555,0.6763078066345555
0.21047137295367294,0.21047137295367294
-0.09791071449181503,-0.09791071449181503
-0.28555060896922835,-0.28555060896922835
-0.384265509976911,-0.384265509976911
-0.43239922203850834,-0.43239922203850834
-0.44137330394829766,-0.44137330394829766
-0.42913591952585767,-0.42913591952585767
-0.41281940696260433,-0.41281940696260433
-0.4177143607315803,-0.4177143607315803
-0.44137330394829766,-0.44137330394829766
-0.48298041098459366,-0.48298041098459366
-0.5278508205335403,-0.5278508205335403
-0.5694579275698363,-0.5694579275698363
-0.5849586145049269,-0.5849586145049269
-0.580063660735951,-0.580063660735951
-0.5564047175192336,-0.5564047175192336
-0.533561599930679,-0.533561599930679
-0.4984810979196843,-0.4984810979196843
-0.4740063290748043,-0.4740063290748043
-0.469927200933991,-0.469927200933991
-0.49929692354784694,-0.49929692354784694
-0.5278508205335403,-0.5278508205335403
-0.536009076815167,-0.536009076815167
-0.5278508205335403,-0.5278508205335403
-0.5343774255588416,-0.5343774255588416
-0.5564047175192336,-0.5564047175192336
-0.5784320094796256,-0.5784320094796256
-0.5849586145049269,-0.5849586145049269
-0.592301045158391,-0.592301045158391
-0.6135125114906202,-0.6135125114906202
-0.6567512697832416,-0.6567512697832416
-0.6991742024477002,-0.6991742024477002
-0.7285439250615563,-0.7285439250615563
-0.7285439250615563,-0.7285439250615563
-0.7073324587293269,-0.7073324587293269
-0.6706203054620069,-0.6706203054620069
-0.6371714547073376,-0.6371714547073376
-0.6135125114906202,-0.6135125114906202
-0.6094333833498069,-0.6094333833498069
-0.6135125114906202,-0.6135125114906202
-0.6208549421440843,-0.6208549421440843
-0.6135125114906202,-0.6135125114906202
-0.5865902657612523,-0.5865902657612523
-0.5278508205335403,-0.5278508205335403
-0.45279486274257497,-0.45279486274257497
-0.384265509976911,-0.384265509976911
-0.34592170545326567,-0.34592170545326567
-0.32715771600552435,-0.32715771600552435
-0.31655198283940966,-0.31655198283940966
-0.298603819019831,-0.298603819019831
-0.27576070143127634,-0.27576070143127634
-0.24068019942028168,-0.24068019942028168
-0.208047174293775,-0.208047174293775
-0.18357240544889503,-0.18357240544889503
-0.17378249791094302,-0.17378249791094302
-0.1550185084632017,-0.1550185084632017
-0.11830635519588169,-0.11830635519588169
-0.06854099187795903,-0.06854099187795903
-0.03346048986696437,-0.03346048986696437
-0.011433197906572375,-0.011433197906572375
0.0008041865158676232,0.0008041865158676232
0.017120699079120952,0.017120699079120952
0.03017390912972362,0.03017390912972362
0.045674596064814284,0.045674596064814284
0.06688606239704362,0.06688606239704362
0.10278239003620095,0.10278239003620095
0.13704706641903294,0.13704706641903294
0.16070600963575027,0.16070600963575027
0.1696800915455396,0.1696800915455396
0.1892599066214436,0.1892599066214436
0.21781380360713692,0.21781380360713692
0.24636770059283025,0.24636770059283025
0.2512626543618062,0.2512626543618062
0.24636770059283025,0.24636770059283025
0.2406569211956916,0.2406569211956916
0.24636770059283025,0.24636770059283025
0.23739361868304093,0.23739361868304093
0.21781380360713692,0.21781380360713692
0.19170738350593158,0.19170738350593158
0.1892599066214436,0.1892599066214436
0.19333903476225692,0.19333903476225692
0.1892599066214436,0.1892599066214436
0.1598901840075876,0.1598901840075876
0.13215211265005694,0.13215211265005694
0.10686151817701427,0.10686151817701427
0.07422849305050762,0.07422849305050762
0.008146617169331622,0.008146617169331622
-0.06854099187795903,-0.06854099187795903
-0.11912218082404435,-0.11912218082404435
-0.09791071449181503,-0.09791071449181503
0.013857396566470288,0.013857396566470288
0.24636770059283025,0.24636770059283025
0.6249107920603075,0.6249107920603075
1.1633557066476674,1.1633557066476674
1.802962999127198,1.802962999127198
2.42462212778715,2.42462212778715
2.857009710713363,2.857009710713363
2.9695936473998112,2.9695936473998112
2.7191351795538727,2.7191351795538727
2.1953751262734404,2.1953751262734404
1.5549520081657473,1.5549520081657473
0.9626626021196515,0.9626626021196515
0.5025369478359075,0.5025369478359075
0.1892599066214436,0.1892599066214436
-0.018775628560036374,-0.018775628560036374
-0.1550185084632017,-0.1550185084632017
-0.254549235099047,-0.254549235099047
-0.32715771600552435,-0.32715771600552435
-0.3834496843487483,-0.3834496843487483
-0.41281940696260433,-0.41281940696260433
-0.42179348887239365,-0.42179348887239365
-0.41281940696260433,-0.41281940696260433
-0.4030294994246523,-0.4030294994246523
-0.384265509976911,-0.384265509976911
-0.36060656676019365,-0.36060656676019365
-0.32715771600552435,-0.32715771600552435
-0.29941964464799364,-0.29941964464799364
-0.269234096405975,-0.269234096405975
-0.244759327561095,-0.244759327561095
-0.21212630243458835,-0.21212630243458835
-0.19417813861500968,-0.19417813861500968
-0.18357240544889503,-0.18357240544889503
-0.17867745167991902,-0.17867745167991902
-0.1550185084632017,-0.1550185084632017
-0.12156965770853236,-0.12156965770853236
-0.09791071449181503,-0.09791071449181503
-0.10443731951711636,-0.10443731951711636
-0.12646461147750837,-0.12646461147750837
-0.14604442655341235,-0.14604442655341235
-0.1550185084632017,-0.1550185084632017
-0.17541414916726836,-0.17541414916726836
-0.21212630243458835,-0.21212630243458835
-0.2610758401243483,-0.2610758401243483
-0.298603819019831,-0.298603819019831
-0.32797354163368697,-0.32797354163368697
-0.3557116129912177,-0.3557116129912177
-0.38997628937404966,-0.38997628937404966
-0.41281940696260433,-0.41281940696260433
-0.41934601198790566,-0.41934601198790566
-0.41281940696260433,-0.41281940696260433
-0.41200358133444165,-0.41200358133444165
-0.41281940696260433,-0.41281940696260433
-0.416082709475255,-0.416082709475255
-0.41281940696260433,-0.41281940696260433
-0.4079244531936283,-0.4079244531936283
-0.384265509976911,-0.384265509976911
-0.337763449171639,-0.337763449171639
-0.269234096405975,-0.269234096405975
-0.20559969740928702,-0.20559969740928702
-0.1550185084632017,-0.1550185084632017
-0.12320130896485769,-0.12320130896485769
-0.09791071449181503,-0.09791071449181503
-0.08241002755672436,-0.08241002755672436
-0.06854099187795903,-0.06854099187795903
-0.0595669099681697,-0.0595669099681697
-0.03998709489226571,-0.03998709489226571
-0.022854756700849705,-0.022854756700849705
-0.011433197906572375,-0.011433197906572375
-0.014696500419223041,-0.014696500419223041
-0.011433197906572375,-0.011433197906572375
-0.0008274647404577099,-0.0008274647404577099
0.017120699079120952,0.017120699079120952
0.028542257873398286,0.028542257873398286
0.045674596064814284,0.045674596064814284
0.07096519053785695,0.07096519053785695
0.10278239003620095,0.10278239003620095
0.12154637948394227,0.12154637948394227
0.13215211265005694,0.13215211265005694
0.13949454330352093,0.13949454330352093
0.16070600963575027,0.16070600963575027
0.17865417345532894,0.17865417345532894
0.1892599066214436,0.1892599066214436
0.18518077848063025,0.18518077848063025
0.1892599066214436,0.1892599066214436
0.20068146541572093,0.20068146541572093
0.21781380360713692,0.21781380360713692
0.21862962923529958,0.21862962923529958
0.21781380360713692,0.21781380360713692
0.21944545486346226,0.21944545486346226
0.24636770059283025,0.24636770059283025
0.27573742320668626,0.27573742320668626
0.3034754945642169,0.3034754945642169
0.3083704483331929,0.3083704483331929
0.3034754945642169,0.3034754945642169
0.29531723828259027,0.29531723828259027
0.3034754945642169,0.3034754945642169
0.31244957647400623,0.31244957647400623
0.3034754945642169,0.3034754945642169
0.25615760813078225,0.25615760813078225
0.1892599066214436,0.1892599066214436
0.1256255076247556,0.1256255076247556
0.10278239003620095,0.10278239003620095
0.1452053227006596,0.1452053227006596
0.3034754945642169,0.3034754945642169
0.6289899202011209,0.6289899202011209
1.1633557066476674,1.1633557066476674
1.8674132237520487,1.8674132237520487
2.625315232315166,2.625315232315166
3.2502376634877685,3.2502376634877685
3.5716729609838587,3.5716729609838587
3.4860112700267787,3.4860112700267787
3.026701441371198,3.026701441371198
2.338144611201907,2.338144611201907
1.6226655353032486,1.6226655353032486
1.014875442322062,1.014875442322062
0.5620922186917822,0.5620922186917822
0.22841953677325158,0.22841953677325158
-0.011433197906572375,-0.011433197906572375
-0.18357240544889503,-0.18357240544889503
-0.298603819019831,-0.298603819019831
-0.38263385872058564,-0.38263385872058564
-0.44137330394829766,-0.44137330394829766
-0.4813487597282683,-0.4813487597282683
-0.4984810979196843,-0.4984810979196843
-0.5123501335984496,-0.5123501335984496
-0.5278508205335403,-0.5278508205335403
-0.5490622868657696,-0.5490622868657696
-0.5564047175192336,-0.5564047175192336
-0.5498781124939323,-0.5498781124939323
-0.5278508205335403,-0.5278508205335403
-0.5131659592266123,-0.5131659592266123
-0.4984810979196843,-0.4984810979196843
-0.49684944666335895,-0.49684944666335895
-0.4984810979196843,-0.4984810979196843
-0.5221400411364017,-0.5221400411364017
-0.5564047175192336,-0.5564047175192336
-0.5939326964147162,-0.5939326964147162
-0.6135125114906202,-0.6135125114906202
-0.6184074652595963,-0.6184074652595963
-0.6135125114906202,-0.6135125114906202
-0.6135125114906202,-0.6135125114906202
-0.6135125114906202,-0.6135125114906202
-0.6159599883751082,-0.6159599883751082
-0.6135125114906202,-0.6135125114906202
-0.6078017320934817,-0.6078017320934817
-0.5849586145049269,-0.5849586145049269
-0.5474306356094443,-0.5474306356094443
-0.4984810979196843,-0.4984810979196843
-0.4544265139989003,-0.4544265139989003
-0.41281940696260433,-0.41281940696260433
-0.38100220746426033,-0.38100220746426033
-0.3557116129912177,-0.3557116129912177
-0.3434742285687777,-0.3434742285687777
-0.32715771600552435,-0.32715771600552435
-0.3018671215324817,-0.3018671215324817
-0.269234096405975,-0.269234096405975
-0.25781253761169765,-0.25781253761169765
-0.269234096405975,-0.269234096405975
-0.28718226022555365,-0.28718226022555365
-0.269234096405975,-0.269234096405975
-0.217837081831727,-0.217837081831727
-0.1550185084632017,-0.1550185084632017
-0.11014809891425503,-0.11014809891425503
-0.06854099187795903,-0.06854099187795903
-0.025302233585337706,-0.025302233585337706
0.017120699079120952,0.017120699079120952
0.03588468852686229,0.03588468852686229
0.045674596064814284,0.045674596064814284
0.06443858551255562,0.06443858551255562
0.10278239003620095,0.10278239003620095
0.1280729845092436,0.1280729845092436
0.13215211265005694,0.13215211265005694
0.1109406463178276,0.1109406463178276
0.10278239003620095,0.10278239003620095
0.10115073877987561,0.10115073877987561
0.10278239003620095,0.10278239003620095
0.08646587747294761,0.08646587747294761
0.07422849305050762,0.07422849305050762
0.0791234468194836,0.0791234468194836
0.10278239003620095,0.10278239003620095
0.1133881232023156,0.1133881232023156
0.10278239003620095,0.10278239003620095
0.08483422621662227,0.08483422621662227
0.10278239003620095,0.10278239003620095
0.18028582471165427,0.18028582471165427
0.33202939154991024,0.33202939154991024
0.5629080443199449,0.5629080443199449
0.9055548081482648,0.9055548081482648
1.3901552312768888,1.3901552312768888
2.023235918731118,2.023235918731118
2.7207668308101978,2.7207668308101978
3.3424259594701495,3.3424259594701495
3.7332064353600667,3.7332064353600667
3.800919962497568,3.800919962497568
3.5088543876153335,3.5088543876153335
2.9124858534284246,2.9124858534284246
2.149688891096331,2.149688891096331
1.4219724307752328,1.4219724307752328
0.8647635267401315,0.8647635267401315
0.5041685990922329,0.5041685990922329
0.2692108181813849,0.2692108181813849
0.10278239003620095,0.10278239003620095
-0.018775628560036374,-0.018775628560036374
-0.09791071449181503,-0.09791071449181503
-0.15746598534768969,-0.15746598534768969
-0.21212630243458835,-0.21212630243458835
-0.27331322454678836,-0.27331322454678836
-0.32715771600552435,-0.32715771600552435
-0.374475602438959,-0.374475602438959
-0.41281940696260433,-0.41281940696260433
-0.450347385858087,-0.450347385858087
-0.469927200933991,-0.469927200933991
-0.4780854572156176,-0.4780854572156176
-0.469927200933991,-0.469927200933991
-0.4789012828437803,-0.4789012828437803
-0.4984810979196843,-0.4984810979196843
-0.5343774255588416,-0.5343774255588416
-0.5564047175192336,-0.5564047175192336
-0.5735370557106496,-0.5735370557106496
-0.5849586145049269,-0.5849586145049269
-0.6029067783245056,-0.6029067783245056
-0.6135125114906202,-0.6135125114906202
-0.616775814003271,-0.616775814003271
-0.6135125114906202,-0.6135125114906202
-0.6233024190285723,-0.6233024190285723
-0.6420664084763136,-0.6420664084763136
-0.6640937004367056,-0.6640937004367056
-0.6706203054620069,-0.6706203054620069
-0.6714361310901696,-0.6714361310901696
-0.6706203054620069,-0.6706203054620069
-0.6763310848591456,-0.6763310848591456
-0.6706203054620069,-0.6706203054620069
-0.6502246647579403,-0.6502246647579403
-0.6135125114906202,-0.6135125114906202
-0.5808794863641136,-0.5808794863641136
-0.5564047175192336,-0.5564047175192336
-0.5498781124939323,-0.5498781124939323
-0.5564047175192336,-0.5564047175192336
-0.5670104506853483,-0.5670104506853483
-0.5564047175192336,-0.5564047175192336
-0.5221400411364017,-0.5221400411364017
-0.469927200933991,-0.469927200933991
-0.41118775570627897,-0.41118775570627897
-0.32715771600552435,-0.32715771600552435
-0.225179512485191,-0.225179512485191
-0.12646461147750837,-0.12646461147750837
-0.0595669099681697,-0.0595669099681697
-0.011433197906572375,-0.011433197906572375
0.030989734757886286,0.030989734757886286
0.07422849305050762,0.07422849305050762
0.10441404129252628,0.10441404129252628
0.13215211265005694,0.13215211265005694
0.16070600963575027,0.16070600963575027
0.1892599066214436,0.1892599066214436
0.19578651164674493,0.19578651164674493
0.1892599066214436,0.1892599066214436
0.18110165033981693,0.18110165033981693
0.1892599066214436,0.1892599066214436
0.2039447679283716,0.2039447679283716
0.21781380360713692,0.21781380360713692
0.21210302420999827,0.21210302420999827
0.1892599066214436,0.1892599066214436
0.14683697395698495,0.14683697395698495
0.10278239003620095,0.10278239003620095
0.05791198048725428,0.05791198048725428
0.017120699079120952,0.017120699079120952
-0.028565536097988373,-0.028565536097988373
-0.06854099187795903,-0.06854099187795903
-0.10443731951711636,-0.10443731951711636
-0.12646461147750837,-0.12646461147750837
-0.14278112404076168,-0.14278112404076168
-0.1550185084632017,-0.1550185084632017
-0.171335021026455,-0.171335021026455
-0.18357240544889503,-0.18357240544889503
-0.19091483610235901,-0.19091483610235901
-0.18357240544889503,-0.18357240544889503
-0.17051919539829236,-0.17051919539829236
-0.1550185084632017,-0.1550185084632017
-0.15257103157871368,-0.15257103157871368
-0.1550185084632017,-0.1550185084632017
-0.1623609391166657,-0.1623609391166657
-0.1550185084632017,-0.1550185084632017
-0.15175520595055103,-0.15175520595055103
-0.1550185084632017,-0.1550185084632017
-0.18438823107705768,-0.18438823107705768
-0.21212630243458835,-0.21212630243458835
-0.227626989369679,-0.227626989369679
-0.21212630243458835,-0.21212630243458835
-0.186019882333383,-0.186019882333383
-0.1550185084632017,-0.1550185084632017
-0.12891208836199636,-0.12891208836199636
-0.09791071449181503,-0.09791071449181503
-0.0742517712750977,-0.0742517712750977
-0.06854099187795903,-0.06854099187795903
-0.08241002755672436,-0.08241002755672436
-0.06854099187795903,-0.06854099187795903
0.02283147847625962,0.02283147847625962
0.24636770059283025,0.24636770059283025
0.6306215714574462,0.6306215714574462
1.1927254292615235,1.1927254292615235
1.8853613875716273,1.8853613875716273
2.5967613353294725,2.5967613353294725
3.153154413736411,3.153154413736411
3.399533753441536,3.399533753441536
3.248606012231443,3.248606012231443
2.7403466458861017,2.7403466458861017
2.0224200931029555,2.0224200931029555
1.3069410172042968,1.3069410172042968
0.7407580312594062,0.7407580312594062
0.36139911416376624,0.36139911416376624
0.10196656440803828,0.10196656440803828
-0.09791071449181503,-0.09791071449181503
-0.25781253761169765,-0.25781253761169765
-0.3557116129912177,-0.3557116129912177
-0.3981345456556763,-0.3981345456556763
-0.41281940696260433,-0.41281940696260433
-0.43647835017932163,-0.43647835017932163
-0.469927200933991,-0.469927200933991
-0.5205083898800763,-0.5205083898800763
-0.5849586145049269,-0.5849586145049269
-0.6575670954114042,-0.6575670954114042
-0.6991742024477002,-0.6991742024477002
-0.7081482843574896,-0.7081482843574896
-0.6991742024477002,-0.6991742024477002
-0.7146748893827909,-0.7146748893827909
-0.7285439250615563,-0.7285439250615563
-0.7269122738052309,-0.7269122738052309
-0.6991742024477002,-0.6991742024477002
-0.680410212999959,-0.680410212999959
-0.6706203054620069,-0.6706203054620069
-0.6714361310901696,-0.6714361310901696
-0.6706203054620069,-0.6706203054620069
-0.6738836079746576,-0.6738836079746576
-0.6706203054620069,-0.6706203054620069
-0.6616462235522176,-0.6616462235522176
-0.6420664084763136,-0.6420664084763136
-0.6273815471693857,-0.6273815471693857
-0.6135125114906202,-0.6135125114906202
-0.6029067783245056,-0.6029067783245056
-0.5849586145049269,-0.5849586145049269
-0.5694579275698363,-0.5694579275698363
-0.5564047175192336,-0.5564047175192336
-0.5449831587249563,-0.5449831587249563
-0.5278508205335403,-0.5278508205335403
-0.5188767386237509,-0.5188767386237509
-0.5278508205335403,-0.5278508205335403
-0.5441673330967937,-0.5441673330967937
-0.5278508205335403,-0.5278508205335403
-0.4740063290748043,-0.4740063290748043
-0.41281940696260433,-0.41281940696260433
-0.3785547305797723,-0.3785547305797723
-0.3557116129912177,-0.3557116129912177
-0.32797354163368697,-0.32797354163368697
-0.298603819019831,-0.298603819019831
-0.28555060896922835,-0.28555060896922835
-0.269234096405975,-0.269234096405975
-0.22599533811335368,-0.22599533811335368
-0.1550185084632017,-0.1550185084632017
-0.09709488886365236,-0.09709488886365236
-0.06854099187795903,-0.06854099187795903
-0.060382735596332365,-0.060382735596332365
-0.03998709489226571,-0.03998709489226571
-0.018775628560036374,-0.018775628560036374
-0.011433197906572375,-0.011433197906572375
-0.03182883861063904,-0.03182883861063904
-0.03998709489226571,-0.03998709489226571
-0.032644664238801704,-0.032644664238801704
-0.011433197906572375,-0.011433197906572375
-0.010617372278409708,-0.010617372278409708
-0.011433197906572375,-0.011433197906572375
-0.011433197906572375,-0.011433197906572375
-0.011433197906572375,-0.011433197906572375
-0.03672379237961504,-0.03672379237961504
-0.06854099187795903,-0.06854099187795903
-0.09219993509467636,-0.09219993509467636
-0.09791071449181503,-0.09791071449181503
-0.09546323760732703,-0.09546323760732703
-0.06854099187795903,-0.06854099187795903
0.004067489028518289,0.004067489028518289
0.16070600963575027,0.16070600963575027
0.4372708975828942,0.4372708975828942
0.8770009111625715,0.8770009111625715
1.4643953634396913,1.4643953634396913
2.138267332302054,2.138267332302054
2.812955126792579,2.812955126792579
3.399533753441536,3.399533753441536
3.736469737872717,3.736469737872717
3.6573346519409387,3.6573346519409387
3.1278638192633683,3.1278638192633683
2.33896043683007,2.33896043683007
1.5451621006277954,1.5451621006277954
0.9055548081482648,0.9055548081482648
0.4397183744673822,0.4397183744673822
0.13215211265005694,0.13215211265005694
-0.05875108434000703,-0.05875108434000703
-0.18357240544889503,-0.18357240544889503
-0.293708865250855,-0.293708865250855
-0.384265509976911,-0.384265509976911
-0.44137330394829766,-0.44137330394829766
-0.469927200933991,-0.469927200933991
-0.5009285748041723,-0.5009285748041723
-0.5278508205335403,-0.5278508205335403
-0.5457989843531189,-0.5457989843531189
-0.5564047175192336,-0.5564047175192336
-0.589853568273903,-0.589853568273903
-0.6420664084763136,-0.6420664084763136
-0.7089641099856523,-0.7089641099856523
-0.7570978220472496,-0.7570978220472496
-0.7880991959174309,-0.7880991959174309
-0.785651719032943,-0.785651719032943
-0.7652560783288762,-0.7652560783288762
-0.7285439250615563,-0.7285439250615563
-0.6959108999350496,-0.6959108999350496
-0.6706203054620069,-0.6706203054620069
-0.6657253516930309,-0.6657253516930309
-0.6706203054620069,-0.6706203054620069
-0.6795943873717962,-0.6795943873717962
-0.6706203054620069,-0.6706203054620069
-0.6469613622452897,-0.6469613622452897
-0.6135125114906202,-0.6135125114906202
-0.599643475811855,-0.599643475811855
-0.6135125114906202,-0.6135125114906202
-0.6469613622452897,-0.6469613622452897
-0.6706203054620069,-0.6706203054620069
-0.6853051667689349,-0.6853051667689349
-0.6991742024477002,-0.6991742024477002
-0.7228331456644176,-0.7228331456644176
-0.7285439250615563,-0.7285439250615563
-0.7073324587293269,-0.7073324587293269
-0.6706203054620069,-0.6706203054620069
-0.6428822341044763,-0.6428822341044763
-0.6135125114906202,-0.6135125114906202
-0.5678262763135109,-0.5678262763135109
-0.4984810979196843,-0.4984810979196843
-0.4266884426413696,-0.4266884426413696
-0.3557116129912177,-0.3557116129912177
-0.286366434597391,-0.286366434597391
-0.21212630243458835,-0.21212630243458835
-0.14686025218157503,-0.14686025218157503
-0.09791071449181503,-0.09791071449181503
-0.07588342253142304,-0.07588342253142304
-0.06854099187795903,-0.06854099187795903
-0.06283021248082037,-0.06283021248082037
-0.03998709489226571,-0.03998709489226571
-0.016328151675548373,-0.016328151675548373
-0.011433197906572375,-0.011433197906572375
-0.037539618007777706,-0.037539618007777706
-0.06854099187795903,-0.06854099187795903
-0.09056828383835103,-0.09056828383835103
-0.09791071449181503,-0.09791071449181503
-0.09546323760732703,-0.09546323760732703
-0.06854099187795903,-0.06854099187795903
-0.032644664238801704,-0.032644664238801704
-0.011433197906572375,-0.011433197906572375
-0.03427631549512704,-0.03427631549512704
-0.06854099187795903,-0.06854099187795903
-0.09546323760732703,-0.09546323760732703
-0.09791071449181503,-0.09791071449181503
-0.1011740170044657,-0.1011740170044657
-0.09791071449181503,-0.09791071449181503
-0.09546323760732703,-0.09546323760732703
-0.09791071449181503,-0.09791071449181503
-0.12401713459302036,-0.12401713459302036
-0.1550185084632017,-0.1550185084632017
-0.171335021026455,-0.171335021026455
-0.1550185084632017,-0.1550185084632017
-0.11993800645220702,-0.11993800645220702
-0.06854099187795903,-0.06854099187795903
-0.010617372278409708,-0.010617372278409708
0.07422849305050762,0.07422849305050762
0.22352458300427558,0.22352458300427558
0.5041685990922329,0.5041685990922329
0.9414511357874221,0.9414511357874221
1.5076341217323128,1.5076341217323128
2.1146083890853364,2.1146083890853364
2.653869129300859,2.653869129300859
2.9932525906165286,2.9932525906165286
3.026701441371198,3.026701441371198
2.7207668308101978,2.7207668308101978
2.166821229287747,2.166821229287747
1.514160726757614,1.514160726757614
0.9055548081482648,0.9055548081482648
0.42258603627596625,0.42258603627596625
0.10278239003620095,0.10278239003620095
-0.0718042943906097,-0.0718042943906097
-0.1550185084632017,-0.1550185084632017
-0.227626989369679,-0.227626989369679
-0.32715771600552435,-0.32715771600552435
-0.4446366064609483,-0.4446366064609483
-0.5278508205335403,-0.5278508205335403
-0.5515097637502576,-0.5515097637502576
-0.5278508205335403,-0.5278508205335403
-0.5099026567139616,-0.5099026567139616
-0.5278508205335403,-0.5278508205335403
-0.577616183851463,-0.577616183851463
-0.6135125114906202,-0.6135125114906202
-0.6249340702848976,-0.6249340702848976
-0.6135125114906202,-0.6135125114906202
-0.6126966858624576,-0.6126966858624576
-0.6135125114906202,-0.6135125114906202
-0.619223290887759,-0.619223290887759
-0.6135125114906202,-0.6135125114906202
-0.611880860234295,-0.611880860234295
-0.6135125114906202,-0.6135125114906202
-0.6257498959130603,-0.6257498959130603
-0.6420664084763136,-0.6420664084763136
-0.6624620491803803,-0.6624620491803803
-0.6706203054620069,-0.6706203054620069
-0.6649095260648683,-0.6649095260648683
-0.6420664084763136,-0.6420664084763136
-0.6233024190285723,-0.6233024190285723
-0.6135125114906202,-0.6135125114906202
-0.6159599883751082,-0.6159599883751082
-0.6135125114906202,-0.6135125114906202
-0.6045384295808309,-0.6045384295808309
-0.5849586145049269,-0.5849586145049269
-0.5686421019416736,-0.5686421019416736
-0.5564047175192336,-0.5564047175192336
-0.5547730662629083,-0.5547730662629083
-0.5564047175192336,-0.5564047175192336
-0.5612996712882096,-0.5612996712882096
-0.5564047175192336,-0.5564047175192336
-0.538456553699655,-0.538456553699655
-0.4984810979196843,-0.4984810979196843
-0.44626825771727363,-0.44626825771727363
-0.384265509976911,-0.384265509976911
-0.3320526697745003,-0.3320526697745003
-0.298603819019831,-0.298603819019831
-0.28555060896922835,-0.28555060896922835
-0.269234096405975,-0.269234096405975
-0.23741689690763101,-0.23741689690763101
-0.18357240544889503,-0.18357240544889503
-0.12483296022118302,-0.12483296022118302
-0.06854099187795903,-0.06854099187795903
-0.03101301298247637,-0.03101301298247637
-0.011433197906572375,-0.011433197906572375
-0.011433197906572375,-0.011433197906572375
-0.011433197906572375,-0.011433197906572375
-0.012249023534735042,-0.012249023534735042
-0.011433197906572375,-0.011433197906572375
-0.01714397730371104,-0.01714397730371104
-0.011433197906572375,-0.011433197906572375
0.009778268425656956,0.009778268425656956
0.045674596064814284,0.045674596064814284
0.0766759699349956,0.0766759699349956
0.10278239003620095,0.10278239003620095
0.11991472822761694,0.11991472822761694
0.13215211265005694,0.13215211265005694
0.13215211265005694,0.13215211265005694
0.13215211265005694,0.13215211265005694
0.12399385636843027,0.12399385636843027
0.10278239003620095,0.10278239003620095
0.06035945737174228,0.06035945737174228
0.017120699079120952,0.017120699079120952
-0.011433197906572375,-0.011433197906572375
-0.011433197906572375,-0.011433197906572375
0.006514965913006289,0.006514965913006289
0.045674596064814284,0.045674596064814284
0.08483422621662227,0.08483422621662227
0.10278239003620095,0.10278239003620095
0.07422849305050762,0.07422849305050762
0.017120699079120952,0.017120699079120952
-0.040802920520428373,-0.040802920520428373
-0.06854099187795903,-0.06854099187795903
-0.0742517712750977,-0.0742517712750977
-0.06854099187795903,-0.06854099187795903
-0.0766992481595857,-0.0766992481595857
-0.09791071449181503,-0.09791071449181503
-0.129727913990159,-0.129727913990159
-0.1550185084632017,-0.1550185084632017
-0.17541414916726836,-0.17541414916726836
-0.18357240544889503,-0.18357240544889503
-0.18275657982073235,-0.18275657982073235
-0.1550185084632017,-0.1550185084632017
-0.12320130896485769,-0.12320130896485769
-0.09791071449181503,-0.09791071449181503
-0.09954236574814036,-0.09954236574814036
-0.09791071449181503,-0.09791071449181503
-0.08648915569753769,-0.08648915569753769
-0.06854099187795903,-0.06854099187795903
-0.0766992481595857,-0.0766992481595857
-0.09791071449181503,-0.09791071449181503
-0.11259557579874302,-0.11259557579874302
-0.09791071449181503,-0.09791071449181503
-0.06854099187795903,-0.06854099187795903
-0.03998709489226571,-0.03998709489226571
-0.022854756700849705,-0.022854756700849705
0.017120699079120952,0.017120699079120952
0.1305204613937316,0.1305204613937316
0.38995301114945957,0.38995301114945957
0.8231564197038355,0.8231564197038355
1.4219724307752328,1.4219724307752328
2.1154242147134994,2.1154242147134994
2.7974544398574883,2.7974544398574883
3.3057138062028297,3.3057138062028297
3.485195444398616,3.485195444398616
3.2543167916285816,3.2543167916285816
2.683238851914715,2.683238851914715
1.940021704658526,1.940021704658526
1.2212793262472168,1.2212793262472168
0.6510172121615129,0.6510172121615129
0.2749215975785236,0.2749215975785236
0.04730624732113962,0.04730624732113962
-0.09791071449181503,-0.09791071449181503
-0.212942128062751,-0.212942128062751
-0.298603819019831,-0.298603819019831
-0.35326413610672963,-0.35326413610672963
-0.384265509976911,-0.384265509976911
-0.41445105821892964,-0.41445105821892964
-0.44137330394829766,-0.44137330394829766
-0.4617689446523643,-0.4617689446523643
-0.469927200933991,-0.469927200933991
-0.4837962366127563,-0.4837962366127563
-0.4984810979196843,-0.4984810979196843
-0.5196925642519137,-0.5196925642519137
-0.5278508205335403,-0.5278508205335403
-0.533561599930679,-0.533561599930679
-0.5278508205335403,-0.5278508205335403
-0.528666646161703,-0.528666646161703
-0.5278508205335403,-0.5278508205335403
-0.5319299486743536,-0.5319299486743536
-0.5278508205335403,-0.5278508205335403
-0.5254033436490523,-0.5254033436490523
-0.5278508205335403,-0.5278508205335403
-0.536009076815167,-0.536009076815167
-0.5278508205335403,-0.5278508205335403
-0.5017444004323349,-0.5017444004323349
-0.469927200933991,-0.469927200933991
-0.45361068837073765,-0.45361068837073765
-0.44137330394829766,-0.44137330394829766
-0.428320093897695,-0.428320093897695
-0.41281940696260433,-0.41281940696260433
-0.4103719300781163,-0.4103719300781163
-0.41281940696260433,-0.41281940696260433
-0.416082709475255,-0.416082709475255
-0.41281940696260433,-0.41281940696260433
-0.41445105821892964,-0.41445105821892964
-0.41281940696260433,-0.41281940696260433
-0.39731872002751367,-0.39731872002751367
-0.3557116129912177,-0.3557116129912177
-0.30757790092962034,-0.30757790092962034
-0.269234096405975,-0.269234096405975
-0.24639097881742034,-0.24639097881742034
-0.21212630243458835,-0.21212630243458835
-0.16807171851380434,-0.16807171851380434
-0.12646461147750837,-0.12646461147750837
-0.1011740170044657,-0.1011740170044657
-0.06854099187795903,-0.06854099187795903
-0.02448640795717504,-0.02448640795717504
0.017120699079120952,0.017120699079120952
0.03343721164237429,0.03343721164237429
0.045674596064814284,0.045674596064814284
0.07014936490969428,0.07014936490969428
0.10278239003620095,0.10278239003620095
0.11175647194599027,0.11175647194599027
0.10278239003620095,0.10278239003620095
0.09380830812641161,0.09380830812641161
0.10278239003620095,0.10278239003620095
0.11012482068966493,0.11012482068966493
0.10278239003620095,0.10278239003620095
0.07504431867867027,0.07504431867867027
0.045674596064814284,0.045674596064814284
0.023647304104422288,0.023647304104422288
0.017120699079120952,0.017120699079120952
0.006514965913006289,0.006514965913006289
-0.011433197906572375,-0.011433197906572375
-0.035092141123289705,-0.035092141123289705
-0.03998709489226571,-0.03998709489226571
-0.02938136172615104,-0.02938136172615104
-0.011433197906572375,-0.011433197906572375
-0.008985721022084375,-0.008985721022084375
-0.011433197906572375,-0.011433197906572375
-0.015512326047385708,-0.015512326047385708
-0.011433197906572375,-0.011433197906572375
-0.012249023534735042,-0.012249023534735042
-0.011433197906572375,-0.011433197906572375
-0.013880674791060374,-0.013880674791060374
-0.011433197906572375,-0.011433197906572375
-0.013064849162897707,-0.013064849162897707
-0.011433197906572375,-0.011433197906572375
-0.012249023534735042,-0.012249023534735042
-0.011433197906572375,-0.011433197906572375
-0.023670582329012372,-0.023670582329012372
-0.03998709489226571,-0.03998709489226571
-0.060382735596332365,-0.060382735596332365
-0.06854099187795903,-0.06854099187795903
-0.07262012001877237,-0.07262012001877237
-0.06854099187795903,-0.06854099187795903
-0.06854099187795903,-0.06854099187795903
-0.06854099187795903,-0.06854099187795903
-0.08077837630039902,-0.08077837630039902
-0.09791071449181503,-0.09791071449181503
-0.11993800645220702,-0.11993800645220702
-0.12646461147750837,-0.12646461147750837
-0.11749052956771902,-0.11749052956771902
-0.09791071449181503,-0.09791071449181503
-0.09219993509467636,-0.09219993509467636
-0.09791071449181503,-0.09791071449181503
-0.1011740170044657,-0.1011740170044657
-0.06854099187795903,-0.06854099187795903
-0.015512326047385708,-0.015512326047385708
0.045674596064814284,0.045674596064814284
0.08728170310111028,0.08728170310111028
0.13215211265005694,0.13215211265005694
0.16804844028921426,0.16804844028921426
0.1892599066214436,0.1892599066214436
0.16804844028921426,0.16804844028921426
0.13215211265005694,0.13215211265005694
0.10441404129252628,0.10441404129252628
0.10278239003620095,0.10278239003620095
0.09870326189538761,0.09870326189538761
0.07422849305050762,0.07422849305050762
0.042411293552163616,0.042411293552163616
0.045674596064814284,0.045674596064814284
0.09054500561376094,0.09054500561376094
0.1892599066214436,0.1892599066214436
0.4005587443155742,0.4005587443155742
0.8198931171911849,0.8198931171911849
1.4366572920821608,1.4366572920821608
2.138267332302054,2.138267332302054
2.8121393011644167,2.8121393011644167
3.399533753441536,3.399533753441536
3.7536020760641335,3.7536020760641335
3.6573346519409387,3.6573346519409387
3.0446496051907763,3.0446496051907763
2.166821229287747,2.166821229287747
1.3640488111756834,1.3640488111756834
0.7913392202054915,0.7913392202054915
0.38342640612415824,0.38342640612415824
0.07422849305050762,0.07422849305050762
-0.15175520595055103,-0.15175520595055103
-0.298603819019831,-0.298603819019831
-0.40139784816832697,-0.40139784816832697
-0.469927200933991,-0.469927200933991
-0.5082710054576363,-0.5082710054576363
-0.5278508205335403,-0.5278508205335403
-0.5629313225445349,-0.5629313225445349
-0.6135125114906202,-0.6135125114906202
-0.6657253516930309,-0.6657253516930309
-0.6991742024477002,-0.6991742024477002
-0.7293597506897189,-0.7293597506897189
-0.7570978220472496,-0.7570978220472496
-0.7938099753145695,-0.7938099753145695
-0.8142056160186363,-0.8142056160186363
-0.8158372672749615,-0.8158372672749615
-0.785651719032943,-0.785651719032943
-0.7546503451627616,-0.7546503451627616
-0.7285439250615563,-0.7285439250615563
-0.7057008074730016,-0.7057008074730016
-0.6706203054620069,-0.6706203054620069
-0.6518563160142656,-0.6518563160142656
-0.6706203054620069,-0.6706203054620069
-0.7105957612419777,-0.7105957612419777
-0.6991742024477002,-0.6991742024477002
-0.6200391165159216,-0.6200391165159216
-0.5278508205335403,-0.5278508205335403
-0.48542788786908164,-0.48542788786908164
-0.469927200933991,-0.469927200933991
-0.4372941758074843,-0.4372941758074843
-0.384265509976911,-0.384265509976911
-0.36142239238835633,-0.36142239238835633
-0.384265509976911,-0.384265509976911
-0.43239922203850834,-0.43239922203850834
-0.469927200933991,-0.469927200933991
-0.49277031852254566,-0.49277031852254566
-0.4984810979196843,-0.4984810979196843
-0.5001127491760097,-0.5001127491760097
-0.4984810979196843,-0.4984810979196843
-0.5017444004323349,-0.5017444004323349
-0.4984810979196843,-0.4984810979196843
-0.49766527229152163,-0.49766527229152163
-0.4984810979196843,-0.4984810979196843
-0.506639354201311,-0.506639354201311
-0.4984810979196843,-0.4984810979196843
-0.467479724049503,-0.467479724049503
-0.41281940696260433,-0.41281940696260433
-0.36305404364468163,-0.36305404364468163
-0.32715771600552435,-0.32715771600552435
-0.3026829471606443,-0.3026829471606443
-0.269234096405975,-0.269234096405975
-0.234969420023143,-0.234969420023143
-0.21212630243458835,-0.21212630243458835
-0.21131047680642567,-0.21131047680642567
-0.21212630243458835,-0.21212630243458835
-0.21131047680642567,-0.21131047680642567
-0.21212630243458835,-0.21212630243458835
-0.220284558716215,-0.220284558716215
-0.21212630243458835,-0.21212630243458835
-0.19173066173052167,-0.19173066173052167
-0.18357240544889503,-0.18357240544889503
-0.2186529074598897,-0.2186529074598897
-0.269234096405975,-0.269234096405975
-0.3018671215324817,-0.3018671215324817
-0.298603819019831,-0.298603819019831
-0.28473478334106567,-0.28473478334106567
-0.269234096405975,-0.269234096405975
-0.2512859325863963,-0.2512859325863963
-0.21212630243458835,-0.21212630243458835
-0.166440067257479,-0.166440067257479
-0.12646461147750837,-0.12646461147750837
-0.10035819137630303,-0.10035819137630303
-0.06854099187795903,-0.06854099187795903
-0.02938136172615104,-0.02938136172615104
0.017120699079120952,0.017120699079120952
0.05791198048725428,0.05791198048725428
0.10278239003620095,0.10278239003620095
0.14683697395698495,0.14683697395698495
0.1892599066214436,0.1892599066214436
0.2161821523508116,0.2161821523508116
0.24636770059283025,0.24636770059283025
0.26839499255322224,0.26839499255322224
0.2749215975785236,0.2749215975785236
0.2406569211956916,0.2406569211956916
0.1892599066214436,0.1892599066214436
0.13704706641903294,0.13704706641903294
0.10278239003620095,0.10278239003620095
0.07178101616601962,0.07178101616601962
0.045674596064814284,0.045674596064814284
0.01793652470728362,0.01793652470728362
-0.011433197906572375,-0.011433197906572375
-0.06119856122449503,-0.06119856122449503
-0.12646461147750837,-0.12646461147750837
-0.19173066173052167,-0.19173066173052167
-0.21212630243458835,-0.21212630243458835
-0.14686025218157503,-0.14686025218157503
0.045674596064814284,0.045674596064814284
0.38342640612415824,0.38342640612415824
0.8770009111625715,0.8770009111625715
1.489685957912734,1.489685957912734
2.138267332302054,2.138267332302054
2.666106513723299,2.666106513723299
2.9124858534284246,2.9124858534284246
2.768900542871795,2.768900542871795
2.2818526428586834,2.2818526428586834
1.6104281508808087,1.6104281508808087
0.9626626021196515,0.9626626021196515
0.45521906140247287,0.45521906140247287
0.10278239003620095,0.10278239003620095
-0.1403336471562737,-0.1403336471562737
-0.298603819019831,-0.298603819019831
-0.39079211500221234,-0.39079211500221234
-0.44137330394829766,-0.44137330394829766
-0.48705953912540695,-0.48705953912540695
-0.5278508205335403,-0.5278508205335403
-0.548246461237607,-0.548246461237607
-0.5278508205335403,-0.5278508205335403
-0.4780854572156176,-0.4780854572156176
-0.41281940696260433,-0.41281940696260433
-0.36060656676019365,-0.36060656676019365
-0.32715771600552435,-0.32715771600552435
-0.315736157211247,-0.315736157211247
-0.298603819019831,-0.298603819019831
-0.2822873064565777,-0.2822873064565777
-0.269234096405975,-0.269234096405975
-0.274129050174951,-0.274129050174951
-0.269234096405975,-0.269234096405975
-0.2627074913806737,-0.2627074913806737
-0.269234096405975,-0.269234096405975
-0.310841203442271,-0.310841203442271
-0.3557116129912177,-0.3557116129912177
-0.3752914280671216,-0.3752914280671216
-0.3557116129912177,-0.3557116129912177
-0.31655198283940966,-0.31655198283940966
-0.269234096405975,-0.269234096405975
-0.24557515318925768,-0.24557515318925768
-0.269234096405975,-0.269234096405975
-0.3434742285687777,-0.3434742285687777
-0.41281940696260433,-0.41281940696260433
-0.4372941758074843,-0.4372941758074843
-0.41281940696260433,-0.41281940696260433
-0.38100220746426033,-0.38100220746426033
-0.3557116129912177,-0.3557116129912177
-0.340210926056127,-0.340210926056127
-0.32715771600552435,-0.32715771600552435
-0.332868495402663,-0.332868495402663
-0.3557116129912177,-0.3557116129912177
-0.38181803309242296,-0.38181803309242296
-0.384265509976911,-0.384265509976911
-0.37039647429814565,-0.37039647429814565
-0.3557116129912177,-0.3557116129912177
-0.3565274386193803,-0.3565274386193803
-0.3557116129912177,-0.3557116129912177
-0.3540799617348923,-0.3540799617348923
-0.3557116129912177,-0.3557116129912177
-0.367133171785495,-0.367133171785495
-0.3557116129912177,-0.3557116129912177
-0.308393726557783,-0.308393726557783
-0.24068019942028168,-0.24068019942028168
-0.19907309238398568,-0.19907309238398568
-0.18357240544889503,-0.18357240544889503
-0.176229974795431,-0.176229974795431
-0.1550185084632017,-0.1550185084632017
-0.1354386933872977,-0.1354386933872977
-0.12646461147750837,-0.12646461147750837
-0.13135956524648434,-0.13135956524648434
-0.12646461147750837,-0.12646461147750837
-0.10688479640160437,-0.10688479640160437
-0.06854099187795903,-0.06854099187795903
-0.03917126926410304,-0.03917126926410304
-0.011433197906572375,-0.011433197906572375
0.008962442797494289,0.008962442797494289
0.045674596064814284,0.045674596064814284
0.07830762119132094,0.07830762119132094
0.10278239003620095,0.10278239003620095
0.11257229757415294,0.11257229757415294
0.13215211265005694,0.13215211265005694
0.16070600963575027,0.16070600963575027
0.1892599066214436,0.1892599066214436
0.18844408099328092,0.18844408099328092
0.16070600963575027,0.16070600963575027
0.1280729845092436,0.1280729845092436
0.13215211265005694,0.13215211265005694
0.1819174759679796,0.1819174759679796
0.3034754945642169,0.3034754945642169
0.5457757061285289,0.5457757061285289
0.9626626021196515,0.9626626021196515
1.5157923780139393,1.5157923780139393
2.1097134353163605,2.1097134353163605
2.679159723773902,2.679159723773902
3.1988406489135204,3.1988406489135204
3.5308816795757254,3.5308816795757254
3.456641547412923,3.456641547412923
2.8920902127243577,2.8920902127243577
2.052605641344974,2.052605641344974
1.2424907925794462,1.2424907925794462
0.6192000126631688,0.6192000126631688
0.1598901840075876,0.1598901840075876
-0.1550185084632017,-0.1550185084632017
-0.34102675168428964,-0.34102675168428964
-0.44137330394829766,-0.44137330394829766
-0.5302982974180283,-0.5302982974180283
-0.6135125114906202,-0.6135125114906202
-0.6722519567183323,-0.6722519567183323
-0.6991742024477002,-0.6991742024477002
-0.7212014944080922,-0.7212014944080922
-0.7285439250615563,-0.7285439250615563
-0.7187540175236042,-0.7187540175236042
-0.6991742024477002,-0.6991742024477002
-0.6983583768195376,-0.6983583768195376
-0.6991742024477002,-0.6991742024477002
-0.7032533305885136,-0.7032533305885136
-0.6991742024477002,-0.6991742024477002
-0.6991742024477002,-0.6991742024477002
-0.6706203054620069,-0.6706203054620069
-0.619223290887759,-0.619223290887759
-0.5564047175192336,-0.5564047175192336
-0.5099026567139616,-0.5099026567139616
-0.469927200933991,-0.469927200933991
-0.4421891295764603,-0.4421891295764603
-0.44137330394829766,-0.44137330394829766
-0.482164585356431,-0.482164585356431
-0.5278508205335403,-0.5278508205335403
-0.5449831587249563,-0.5449831587249563
-0.5278508205335403,-0.5278508205335403
-0.5017444004323349,-0.5017444004323349
-0.469927200933991,-0.469927200933991
-0.438110001435647,-0.438110001435647
-0.41281940696260433,-0.41281940696260433
-0.40955610444995366,-0.40955610444995366
-0.41281940696260433,-0.41281940696260433
-0.406292801937303,-0.406292801937303
-0.384265509976911,-0.384265509976911
-0.3655015205291697,-0.3655015205291697
-0.3557116129912177,-0.3557116129912177
-0.3565274386193803,-0.3565274386193803
-0.3557116129912177,-0.3557116129912177
-0.34918500796591634,-0.34918500796591634
-0.32715771600552435,-0.32715771600552435
-0.29941964464799364,-0.29941964464799364
-0.269234096405975,-0.269234096405975
-0.24557515318925768,-0.24557515318925768
-0.21212630243458835,-0.21212630243458835
-0.17051919539829236,-0.17051919539829236
-0.12646461147750837,-0.12646461147750837
-0.10280566826079103,-0.10280566826079103
-0.09791071449181503,-0.09791071449181503
-0.10280566826079103,-0.10280566826079103
-0.09791071449181503,-0.09791071449181503
-0.09219993509467636,-0.09219993509467636
-0.09791071449181503,-0.09791071449181503
-0.1256487858493457,-0.1256487858493457
-0.1550185084632017,-0.1550185084632017
-0.16888754414196702,-0.16888754414196702
-0.1550185084632017,-0.1550185084632017
-0.12809626273383368,-0.12809626273383368
-0.09791071449181503,-0.09791071449181503
-0.0791467250440737,-0.0791467250440737
-0.06854099187795903,-0.06854099187795903
-0.0693568175061217,-0.0693568175061217
-0.06854099187795903,-0.06854099187795903
-0.07017264313428437,-0.07017264313428437
-0.06854099187795903,-0.06854099187795903
-0.0791467250440737,-0.0791467250440737
-0.09791071449181503,-0.09791071449181503
-0.12075383208036969,-0.12075383208036969
-0.12646461147750837,-0.12646461147750837
-0.11667470393955635,-0.11667470393955635
-0.09791071449181503,-0.09791071449181503
-0.09219993509467636,-0.09219993509467636
-0.09791071449181503,-0.09791071449181503
-0.11177975017058035,-0.11177975017058035
-0.12646461147750837,-0.12646461147750837
-0.15175520595055103,-0.15175520595055103
-0.18357240544889503,-0.18357240544889503
-0.212942128062751,-0.212942128062751
-0.21212630243458835,-0.21212630243458835
-0.18765153358970835,-0.18765153358970835
-0.1550185084632017,-0.1550185084632017
-0.1452286009252497,-0.1452286009252497
-0.1550185084632017,-0.1550185084632017
-0.193362312986847,-0.193362312986847
-0.24068019942028168,-0.24068019942028168
-0.2831031320847403,-0.2831031320847403
-0.269234096405975,-0.269234096405975
-0.20559969740928702,-0.20559969740928702
-0.12646461147750837,-0.12646461147750837
-0.09056828383835103,-0.09056828383835103
-0.09791071449181503,-0.09791071449181503
-0.12809626273383368,-0.12809626273383368
-0.1550185084632017,-0.1550185084632017
-0.18438823107705768,-0.18438823107705768
-0.21212630243458835,-0.21212630243458835
-0.23170611751049233,-0.23170611751049233
-0.21212630243458835,-0.21212630243458835
-0.11912218082404435,-0.11912218082404435
0.10278239003620095,0.10278239003620095
0.4894837377853049,0.4894837377853049
1.049140118704894,1.049140118704894
1.7287228669643953,1.7287228669643953
2.42462212778715,2.42462212778715
2.9679619961434858,2.9679619961434858
3.1988406489135204,3.1988406489135204
3.034043872024662,3.034043872024662
2.539653541358086,2.539653541358086
1.881282259430814,1.881282259430814
1.2498332232329101,1.2498332232329101
0.7538112413100089,0.7538112413100089
0.4185069081351529,0.4185069081351529
0.19823398853123292,0.19823398853123292
0.045674596064814284,0.045674596064814284
-0.0791467250440737,-0.0791467250440737
-0.18357240544889503,-0.18357240544889503
-0.2708657476623003,-0.2708657476623003
-0.32715771600552435,-0.32715771600552435
-0.35326413610672963,-0.35326413610672963
-0.3557116129912177,-0.3557116129912177
-0.36305404364468163,-0.36305404364468163
-0.384265509976911,-0.384265509976911
-0.418530186359743,-0.418530186359743
-0.44137330394829766,-0.44137330394829766
-0.457689816511551,-0.457689816511551
-0.469927200933991,-0.469927200933991
-0.5009285748041723,-0.5009285748041723
-0.5278508205335403,-0.5278508205335403
-0.5498781124939323,-0.5498781124939323
-0.5564047175192336,-0.5564047175192336
-0.5621154969163723,-0.5621154969163723
-0.5564047175192336,-0.5564047175192336
-0.5449831587249563,-0.5449831587249563
-0.5278508205335403,-0.5278508205335403
-0.5237716923927269,-0.5237716923927269
-0.5278508205335403,-0.5278508205335403
-0.533561599930679,-0.533561599930679
-0.5278508205335403,-0.5278508205335403
-0.5156134361111003,-0.5156134361111003
-0.4984810979196843,-0.4984810979196843
-0.48542788786908164,-0.48542788786908164
-0.469927200933991,-0.469927200933991
-0.457689816511551,-0.457689816511551
-0.44137330394829766,-0.44137330394829766
-0.42913591952585767,-0.42913591952585767
-0.41281940696260433,-0.41281940696260433
-0.39976619691200166,-0.39976619691200166
-0.384265509976911,-0.384265509976911
-0.37284395118263364,-0.37284395118263364
-0.3557116129912177,-0.3557116129912177
-0.3336843210308257,-0.3336843210308257
-0.298603819019831,-0.298603819019831
-0.256996711983535,-0.256996711983535
-0.21212630243458835,-0.21212630243458835
-0.17867745167991902,-0.17867745167991902
-0.1550185084632017,-0.1550185084632017
-0.14359694966892436,-0.14359694966892436
-0.12646461147750837,-0.12646461147750837
-0.10280566826079103,-0.10280566826079103
-0.06854099187795903,-0.06854099187795903
-0.03182883861063904,-0.03182883861063904
0.017120699079120952,0.017120699079120952
0.06443858551255562,0.06443858551255562
0.10278239003620095,0.10278239003620095
0.1207305538557796,0.1207305538557796
0.13215211265005694,0.13215211265005694
0.13459958953454493,0.13459958953454493
0.13215211265005694,0.13215211265005694
0.12236220511210494,0.12236220511210494
0.13215211265005694,0.13215211265005694
0.16070600963575027,0.16070600963575027
0.1892599066214436,0.1892599066214436
0.18518077848063025,0.18518077848063025
0.16070600963575027,0.16070600963575027
0.13623124079087026,0.13623124079087026
0.13215211265005694,0.13215211265005694
0.1305204613937316,0.1305204613937316
0.13215211265005694,0.13215211265005694
0.13704706641903294,0.13704706641903294
0.16070600963575027,0.16070600963575027
0.1843649528524676,0.1843649528524676
0.1892599066214436,0.1892599066214436
0.15417940461044893,0.15417940461044893
0.10278239003620095,0.10278239003620095
0.05872780611541695,0.05872780611541695
0.045674596064814284,0.045674596064814284
0.04485877043665162,0.04485877043665162
0.045674596064814284,0.045674596064814284
0.03017390912972362,0.03017390912972362
0.017120699079120952,0.017120699079120952
-0.0016432903686203764,-0.0016432903686203764
-0.011433197906572375,-0.011433197906572375
-0.022854756700849705,-0.022854756700849705
-0.011433197906572375,-0.011433197906572375
0.013041570938307621,0.013041570938307621
0.045674596064814284,0.045674596064814284
0.05546450360276628,0.05546450360276628
0.045674596064814284,0.045674596064814284
0.018752350335446286,0.018752350335446286
-0.011433197906572375,-0.011433197906572375
-0.05304030494286837,-0.05304030494286837
-0.09791071449181503,-0.09791071449181503
-0.13707034464362303,-0.13707034464362303
-0.12646461147750837,-0.12646461147750837
-0.013064849162897707,-0.013064849162897707
0.2749215975785236,0.2749215975785236
0.7684961026169368,0.7684961026169368
1.4505263277609262,1.4505263277609262
2.2231131976309713,2.2231131976309713
2.941039750414118,2.941039750414118
3.4158502660047896,3.4158502660047896
3.514565167012472,3.514565167012472
3.210262207707798,3.210262207707798
2.625315232315166,2.625315232315166
1.937574227774038,1.937574227774038
1.3069410172042968,1.3069410172042968
0.8052082558842568,0.8052082558842568
0.4470608051208462,0.4470608051208462
0.19578651164674493,0.19578651164674493
0.017120699079120952,0.017120699079120952
-0.11993800645220702,-0.11993800645220702
-0.21212630243458835,-0.21212630243458835
-0.26841827077781233,-0.26841827077781233
-0.298603819019831,-0.298603819019831
-0.32634189037736167,-0.32634189037736167
-0.3557116129912177,-0.3557116129912177
-0.386712986861399,-0.386712986861399
-0.41281940696260433,-0.41281940696260433
-0.44382078083278564,-0.44382078083278564
-0.469927200933991,-0.469927200933991
-0.49440196977887096,-0.49440196977887096
-0.4984810979196843,-0.4984810979196843
-0.5009285748041723,-0.5009285748041723
-0.4984810979196843,-0.4984810979196843
-0.5050077029449856,-0.5050077029449856
-0.4984810979196843,-0.4984810979196843
-0.4862437134972443,-0.4862437134972443
-0.469927200933991,-0.469927200933991
-0.4764538059592923,-0.4764538059592923
-0.4984810979196843,-0.4984810979196843
-0.5319299486743536,-0.5319299486743536
-0.5564047175192336,-0.5564047175192336
-0.575168706966975,-0.575168706966975
-0.5849586145049269,-0.5849586145049269
-0.5906693939020656,-0.5906693939020656
-0.5849586145049269,-0.5849586145049269
-0.5816953119922763,-0.5816953119922763
-0.5849586145049269,-0.5849586145049269
-0.6020909526963429,-0.6020909526963429
-0.6135125114906202,-0.6135125114906202
-0.6175916396314336,-0.6175916396314336
-0.6135125114906202,-0.6135125114906202
-0.614328337118783,-0.614328337118783
-0.6135125114906202,-0.6135125114906202
-0.6151441627469456,-0.6151441627469456
-0.6135125114906202,-0.6135125114906202
-0.6102492089779696,-0.6102492089779696
-0.5849586145049269,-0.5849586145049269
-0.536009076815167,-0.536009076815167
-0.469927200933991,-0.469927200933991
-0.41118775570627897,-0.41118775570627897
-0.3557116129912177,-0.3557116129912177
-0.293708865250855,-0.293708865250855
-0.21212630243458835,-0.21212630243458835
-0.13217539087464703,-0.13217539087464703
-0.06854099187795903,-0.06854099187795903
-0.027749710469825706,-0.027749710469825706
0.017120699079120952,0.017120699079120952
0.06525441114071828,0.06525441114071828
0.10278239003620095,0.10278239003620095
0.10930899506150227,0.10930899506150227
0.10278239003620095,0.10278239003620095
0.09788743626722494,0.09788743626722494
0.10278239003620095,0.10278239003620095
0.09299248249824894,0.09299248249824894
0.07422849305050762,0.07422849305050762
0.04893789857746495,0.04893789857746495
0.045674596064814284,0.045674596064814284
0.05301702671827828,0.05301702671827828
0.07422849305050762,0.07422849305050762
0.08972917998559828,0.08972917998559828
0.10278239003620095,0.10278239003620095
0.10441404129252628,0.10441404129252628
0.10278239003620095,0.10278239003620095
0.09951908752355028,0.09951908752355028
0.10278239003620095,0.10278239003620095
0.10278239003620095,0.10278239003620095
0.10278239003620095,0.10278239003620095
0.11665142571496627,0.11665142571496627
0.1892599066214436,0.1892599066214436
0.3483459041131636,0.3483459041131636
0.6192000126631688,0.6192000126631688
1.0238495242318515,1.0238495242318515
1.5932958126893928,1.5932958126893928
2.290826724768473,2.290826724768473
2.9981475443855046,2.9981475443855046
3.546382366510816,3.546382366510816
3.800919962497568,3.800919962497568
3.6728353388760295,3.6728353388760295
3.170286751927827,3.170286751927827
2.4058581383394086,2.4058581383394086
1.5932958126893928,1.5932958126893928
0.9014756800074515,0.9014756800074515
0.38995301114945957,0.38995301114945957
0.019568175963608953,0.019568175963608953
-0.24068019942028168,-0.24068019942028168
-0.42342514012871896,-0.42342514012871896
-0.5564047175192336,-0.5564047175192336
-0.6722519567183323,-0.6722519567183323
-0.7570978220472496,-0.7570978220472496
-0.7954416265708949,-0.7954416265708949
-0.785651719032943,-0.785651719032943
-0.7595452989317376,-0.7595452989317376
-0.7285439250615563,-0.7285439250615563
-0.7008058537040256,-0.7008058537040256
-0.6706203054620069,-0.6706203054620069
-0.6469613622452897,-0.6469613622452897
-0.6135125114906202,-0.6135125114906202
-0.5841427888767643,-0.5841427888767643
-0.5564047175192336,-0.5564047175192336
-0.5523255893784202,-0.5523255893784202
-0.5564047175192336,-0.5564047175192336
-0.570273753197999,-0.570273753197999
-0.5849586145049269,-0.5849586145049269
-0.6053542552089937,-0.6053542552089937
-0.6135125114906202,-0.6135125114906202
-0.6061700808371563,-0.6061700808371563
-0.5849586145049269,-0.5849586145049269
-0.5678262763135109,-0.5678262763135109
-0.5564047175192336,-0.5564047175192336
-0.5539572406347456,-0.5539572406347456
-0.5564047175192336,-0.5564047175192336
-0.5612996712882096,-0.5612996712882096
-0.5564047175192336,-0.5564047175192336
-0.550693938122095,-0.550693938122095
-0.5564047175192336,-0.5564047175192336
-0.5768003582233003,-0.5768003582233003
-0.5849586145049269,-0.5849586145049269
-0.5743528813388122,-0.5743528813388122
-0.5564047175192336,-0.5564047175192336
-0.5547730662629083,-0.5547730662629083
-0.5564047175192336,-0.5564047175192336
-0.5490622868657696,-0.5490622868657696
-0.5278508205335403,-0.5278508205335403
-0.5041918773168229,-0.5041918773168229
-0.469927200933991,-0.469927200933991
-0.428320093897695,-0.428320093897695
-0.384265509976911,-0.384265509976911
-0.354895787363055,-0.354895787363055
-0.32715771600552435,-0.32715771600552435
-0.2904455627382043,-0.2904455627382043
-0.24068019942028168,-0.24068019942028168
-0.19580978987133502,-0.19580978987133502
-0.1550185084632017,-0.1550185084632017
-0.12320130896485769,-0.12320130896485769
-0.09791071449181503,-0.09791071449181503
-0.08975245821018836,-0.08975245821018836
-0.09791071449181503,-0.09791071449181503
-0.12320130896485769,-0.12320130896485769
-0.1550185084632017,-0.1550185084632017
-0.19091483610235901,-0.19091483610235901
-0.21212630243458835,-0.21212630243458835
-0.22191620997254033,-0.22191620997254033
-0.21212630243458835,-0.21212630243458835
-0.19499396424317234,-0.19499396424317234
-0.1550185084632017,-0.1550185084632017
-0.10443731951711636,-0.10443731951711636
-0.03998709489226571,-0.03998709489226571
0.008146617169331622,0.008146617169331622
0.045674596064814284,0.045674596064814284
0.07178101616601962,0.07178101616601962
0.10278239003620095,0.10278239003620095
0.1403103689316836,0.1403103689316836
0.1892599066214436,0.1892599066214436
0.2202612804916249,0.2202612804916249
0.21781380360713692,0.21781380360713692
0.19741816290307027,0.19741816290307027
0.21781380360713692,0.21781380360713692
0.29042228451361424,0.29042228451361424
0.4185069081351529,0.4185069081351529
0.6714128528655795,0.6714128528655795
1.1633557066476674,1.1633557066476674
1.8478334086761448,1.8478334086761448
2.539653541358086,2.539653541358086
3.127047993635206,3.127047993635206
3.6287807549552453,3.6287807549552453
3.907793119786877,3.907793119786877
3.6573346519409387,3.6573346519409387
2.799086091113814,2.799086091113814
1.736881123246022,1.736881123246022
0.9438986126719101,0.9438986126719101
0.5041685990922329,0.5041685990922329
0.1941548603904196,0.1941548603904196
-0.09791071449181503,-0.09791071449181503
-0.310841203442271,-0.310841203442271
-0.41281940696260433,-0.41281940696260433
-0.4813487597282683,-0.4813487597282683
-0.5564047175192336,-0.5564047175192336
-0.6241182446567349,-0.6241182446567349
-0.6706203054620069,-0.6706203054620069
-0.7187540175236042,-0.7187540175236042
-0.7570978220472496,-0.7570978220472496
-0.7725985089823403,-0.7725985089823403
-0.7570978220472496,-0.7570978220472496
-0.7326230532023696,-0.7326230532023696
-0.6991742024477002,-0.6991742024477002
-0.6787785617436336,-0.6787785617436336
-0.6706203054620069,-0.6706203054620069
-0.680410212999959,-0.680410212999959
-0.6706203054620069,-0.6706203054620069
-0.6526721416424283,-0.6526721416424283
-0.6420664084763136,-0.6420664084763136
-0.6591987466677296,-0.6591987466677296
-0.6706203054620069,-0.6706203054620069
-0.6551196185269162,-0.6551196185269162
-0.6135125114906202,-0.6135125114906202
-0.5792478351077883,-0.5792478351077883
-0.5564047175192336,-0.5564047175192336
-0.548246461237607,-0.548246461237607
-0.5564047175192336,-0.5564047175192336
-0.5865902657612523,-0.5865902657612523
-0.6135125114906202,-0.6135125114906202
-0.621670767772247,-0.621670767772247
-0.6135125114906202,-0.6135125114906202
-0.6110650346061323,-0.6110650346061323
-0.6135125114906202,-0.6135125114906202
-0.6175916396314336,-0.6175916396314336
-0.6135125114906202,-0.6135125114906202
-0.6053542552089937,-0.6053542552089937
-0.5849586145049269,-0.5849586145049269
-0.5653787994290229,-0.5653787994290229
-0.5564047175192336,-0.5564047175192336
-0.555588891891071,-0.555588891891071
-0.5278508205335403,-0.5278508205335403
-0.4617689446523643,-0.4617689446523643
-0.384265509976911,-0.384265509976911
-0.340210926056127,-0.340210926056127
-0.32715771600552435,-0.32715771600552435
-0.32144693660838564,-0.32144693660838564
-0.298603819019831,-0.298603819019831
-0.269234096405975,-0.269234096405975
-0.24068019942028168,-0.24068019942028168
-0.21620543057540167,-0.21620543057540167
-0.18357240544889503,-0.18357240544889503
-0.15828181097585234,-0.15828181097585234
-0.1550185084632017,-0.1550185084632017
-0.19009901047419633,-0.19009901047419633
-0.24068019942028168,-0.24068019942028168
-0.276576527059439,-0.276576527059439
-0.269234096405975,-0.269234096405975
-0.24068019942028168,-0.24068019942028168
-0.21212630243458835,-0.21212630243458835
-0.19988891801214834,-0.19988891801214834
-0.18357240544889503,-0.18357240544889503
-0.16562424162931635,-0.16562424162931635
-0.1550185084632017,-0.1550185084632017
-0.16072928786034035,-0.16072928786034035
-0.1550185084632017,-0.1550185084632017
-0.13217539087464703,-0.13217539087464703
-0.09791071449181503,-0.09791071449181503
-0.07343594564693504,-0.07343594564693504
-0.03998709489226571,-0.03998709489226571
-0.005722418509433709,-0.005722418509433709
0.017120699079120952,0.017120699079120952
0.003251663400355623,0.003251663400355623
-0.011433197906572375,-0.011433197906572375
-0.005722418509433709,-0.005722418509433709
0.017120699079120952,0.017120699079120952
0.014673222194632954,0.014673222194632954
-0.011433197906572375,-0.011433197906572375
-0.046513699917567035,-0.046513699917567035
-0.06854099187795903,-0.06854099187795903
-0.07996255067223637,-0.07996255067223637
-0.06854099187795903,-0.06854099187795903
-0.03427631549512704,-0.03427631549512704
0.045674596064814284,0.045674596064814284
0.2063922448128596,0.2063922448128596
0.5041685990922329,0.5041685990922329
0.9422669614155849,0.9422669614155849
1.4790802247466195,1.4790802247466195
2.038736605666209,2.038736605666209
2.539653541358086,2.539653541358086
2.8341665931248086,2.8341665931248086
2.768900542871795,2.768900542871795
2.3079590629598887,2.3079590629598887
1.6226655353032486,1.6226655353032486
0.9512410433253742,0.9512410433253742
0.4470608051208462,0.4470608051208462
0.1109406463178276,0.1109406463178276
-0.09791071449181503,-0.09791071449181503
-0.22436368685702834,-0.22436368685702834
-0.298603819019831,-0.298603819019831
-0.3565274386193803,-0.3565274386193803
-0.41281940696260433,-0.41281940696260433
-0.4740063290748043,-0.4740063290748043
-0.5278508205335403,-0.5278508205335403
-0.5694579275698363,-0.5694579275698363
-0.5849586145049269,-0.5849586145049269
-0.577616183851463,-0.577616183851463
-0.5564047175192336,-0.5564047175192336
-0.548246461237607,-0.548246461237607
-0.5564047175192336,-0.5564047175192336
-0.5857744401330897,-0.5857744401330897
-0.6135125114906202,-0.6135125114906202
-0.6445138853608016,-0.6445138853608016
-0.6706203054620069,-0.6706203054620069
-0.7057008074730016,-0.7057008074730016
-0.7285439250615563,-0.7285439250615563
-0.7301755763178815,-0.7301755763178815
-0.6991742024477002,-0.6991742024477002
-0.6567512697832416,-0.6567512697832416
-0.6135125114906202,-0.6135125114906202
-0.5833269632486017,-0.5833269632486017
-0.5564047175192336,-0.5564047175192336
-0.538456553699655,-0.538456553699655
-0.5278508205335403,-0.5278508205335403
-0.5213242155082389,-0.5213242155082389
-0.4984810979196843,-0.4984810979196843
-0.46584807279317764,-0.46584807279317764
-0.44137330394829766,-0.44137330394829766
-0.4495315602299243,-0.4495315602299243
-0.469927200933991,-0.469927200933991
-0.4740063290748043,-0.4740063290748043
-0.44137330394829766,-0.44137330394829766
-0.40139784816832697,-0.40139784816832697
-0.384265509976911,-0.384265509976911
-0.406292801937303,-0.406292801937303
-0.44137330394829766,-0.44137330394829766
-0.4682955496776656,-0.4682955496776656
-0.469927200933991,-0.469927200933991
