ECG,PPG
-0.644083360095395,-0.644083360095395
-0.2929112797056304,-0.2929112797056304
-0.5403496019314808,-0.5403496019314808
-0.6450350459501099,-0.6450350459501099
-0.4356641579128518,-0.4356641579128518
-0.2852977928679119,-0.2852977928679119
-0.3062348816716377,-0.3062348816716377
-0.2872011645773415,-0.2872011645773415
-0.15015840149840898,-0.15015840149840898
-0.050231386753353986,-0.050231386753353986
-0.0207291252571949,-0.0207291252571949
0.03256528260683443,0.03256528260683443
0.13534735491603384,0.13534735491603384
0.19911030718192607,0.19911030718192607
0.21338559500264823,0.21338559500264823
0.22670919696865555,0.22670919696865555
0.26572831701196276,0.26572831701196276
0.28952046337983295,0.28952046337983295
0.2914238350892626,0.2914238350892626
0.28952046337983295,0.28952046337983295
0.3171193531665624,0.3171193531665624
0.3532834156457252,0.3532834156457252
0.369462075175877,0.369462075175877
0.34947667222686596,0.34947667222686596
0.3437665570985771,0.3437665570985771
0.35709015906458447,0.35709015906458447
0.369462075175877,0.369462075175877
0.3485249863721512,0.3485249863721512
0.3437665570985771,0.3437665570985771
0.3589935307740141,0.3589935307740141
0.369462075175877,0.369462075175877
0.3361530702608586,0.3361530702608586
0.3171193531665624,0.3171193531665624
0.3380564419702883,0.3380564419702883
0.369462075175877,0.369462075175877
0.34947667222686596,0.34947667222686596
0.3171193531665624,0.3171193531665624
0.3066508087646995,0.3066508087646995
0.3171193531665624,0.3171193531665624
0.3028440653458403,0.3028440653458403
0.2914238350892626,0.2914238350892626
0.2904721492345478,0.2904721492345478
0.2914238350892626,0.2914238350892626
0.26001820188367386,0.26001820188367386
0.2390811130799481,0.2390811130799481
0.23812942722523325,0.23812942722523325
0.2390811130799481,0.2390811130799481
0.20672379401964455,0.20672379401964455
0.18769007692534836,0.18769007692534836
0.19625524961778165,0.19625524961778165
0.21338559500264823,0.21338559500264823
0.18769007692534836,0.18769007692534836
0.1610428729933337,0.1610428729933337
0.1619945588480485,0.1619945588480485
0.18769007692534836,0.18769007692534836
0.1810282759423447,0.1810282759423447
0.1610428729933337,0.1610428729933337
0.15628444371975966,0.15628444371975966
0.18769007692534836,0.18769007692534836
0.20957885158378897,0.20957885158378897
0.21338559500264823,0.21338559500264823
0.19340019205363723,0.19340019205363723
0.18769007692534836,0.18769007692534836
0.19911030718192607,0.19911030718192607
0.2390811130799481,0.2390811130799481
0.27239011799496643,0.27239011799496643
0.2914238350892626,0.2914238350892626
0.2904721492345478,0.2904721492345478
0.3171193531665624,0.3171193531665624
0.38088230543245466,0.38088230543245466
0.4731958333397912,0.4731958333397912
0.5217318119302464,0.5217318119302464
0.49889135141709107,0.49889135141709107
0.4151429962021878,0.4151429962021878
0.3437665570985771,0.3437665570985771
0.3047474370552699,0.3047474370552699
0.2914238350892626,0.2914238350892626
0.2647766311572479,0.2647766311572479
0.2390811130799481,0.2390811130799481
0.20767547987435936,0.20767547987435936
0.18769007692534836,0.18769007692534836
0.1629462447027633,0.1629462447027633
0.1610428729933337,0.1610428729933337
0.17722153252348546,0.17722153252348546
0.21338559500264823,0.21338559500264823
0.20101367889135568,0.20101367889135568
0.13534735491603384,0.13534735491603384
0.08205294705200453,0.08205294705200453
0.13534735491603384,0.13534735491603384
0.1819799617970595,0.1819799617970595
0.05730911482941948,0.05730911482941948
-0.2110662962001568,-0.2110662962001568
-0.40996863983555193,-0.40996863983555193
-0.5850788371030768,-0.5850788371030768
-0.9295891165098379,-0.9295891165098379
-1.263630851514736,-1.263630851514736
-0.9562363204418526,-0.9562363204418526
0.15533275786504486,0.15533275786504486
1.383007510447149,1.383007510447149
1.967342625242042,1.967342625242042
1.9806662272080493,1.9806662272080493
1.9216617042157311,1.9216617042157311
1.9806662272080493,1.9806662272080493
2.0006516301570603,2.0006516301570603
1.9806662272080493,1.9806662272080493
1.9606808242590383,1.9606808242590383
1.797942543102806,1.797942543102806
1.3192445581812569,1.3192445581812569
0.7073105535996344,0.7073105535996344
0.2628732594478183,0.2628732594478183
0.05730911482941948,0.05730911482941948
-0.08449207752308713,-0.08449207752308713
-0.22819664158502334,-0.22819664158502334
-0.3290753421847932,-0.3290753421847932
-0.35857760368095226,-0.35857760368095226
-0.38046637833939284,-0.38046637833939284
-0.40996863983555193,-0.40996863983555193
-0.434712472058137,-0.434712472058137
-0.4356641579128518,-0.4356641579128518
-0.43851921547699624,-0.43851921547699624
-0.4356641579128518,-0.4356641579128518
-0.4470843881694295,-0.4470843881694295
-0.4623113618448665,-0.4623113618448665
-0.48039339308444784,-0.48039339308444784
-0.4623113618448665,-0.4623113618448665
-0.4375675296222814,-0.4375675296222814
-0.4356641579128518,-0.4356641579128518
-0.474683277956159,-0.474683277956159
-0.48800687992216635,-0.48800687992216635
-0.4708765345372998,-0.4708765345372998
-0.4623113618448665,-0.4623113618448665
-0.5032338535976033,-0.5032338535976033
-0.5403496019314808,-0.5403496019314808
-0.5441563453503401,-0.5441563453503401
-0.5403496019314808,-0.5403496019314808
-0.5774653502653584,-0.5774653502653584
-0.6183878420180953,-0.6183878420180953
-0.634566501548247,-0.634566501548247
-0.644083360095395,-0.644083360095395
-0.6935710245405652,-0.6935710245405652
-0.7478171182593093,-0.7478171182593093
-0.7801744373196128,-0.7801744373196128
-0.8001598402686239,-0.8001598402686239
-0.8515508764232235,-0.8515508764232235
-0.903893598432538,-0.903893598432538
-0.9305408023645527,-0.9305408023645527
-0.9295891165098379,-0.9295891165098379
-0.9448160901852748,-0.9448160901852748
-0.9562363204418526,-0.9562363204418526
-0.9533812628777081,-0.9533812628777081
-0.9295891165098379,-0.9295891165098379
-0.9115070852702565,-0.9115070852702565
-0.8781980803552382,-0.8781980803552382
-0.8306137876194977,-0.8306137876194977
-0.7735126363366092,-0.7735126363366092
-0.7306867728744427,-0.7306867728744427
-0.6697788781726949,-0.6697788781726949
-0.594595695650225,-0.594595695650225
-0.5137023979994662,-0.5137023979994662
-0.4480360740241443,-0.4480360740241443
-0.35857760368095226,-0.35857760368095226
-0.2415202435510307,-0.2415202435510307
-0.12446288342110913,-0.12446288342110913
-0.0511830726080688,-0.0511830726080688
0.005918078674819767,0.005918078674819767
0.06682597337656757,0.06682597337656757
0.13534735491603384,0.13534735491603384
0.16960804568576698,0.16960804568576698
0.18769007692534836,0.18769007692534836
0.21243390914793342,0.21243390914793342
0.26572831701196276,0.26572831701196276
0.30569912290998474,0.30569912290998474
0.3171193531665624,0.3171193531665624
0.3066508087646995,0.3066508087646995
0.3171193531665624,0.3171193531665624
0.33710475611557345,0.33710475611557345
0.3437665570985771,0.3437665570985771
0.31997441073070687,0.31997441073070687
0.3171193531665624,0.3171193531665624
0.34091149953443267,0.34091149953443267
0.369462075175877,0.369462075175877
0.35804184491929925,0.35804184491929925
0.3437665570985771,0.3437665570985771
0.34662161466272157,0.34662161466272157
0.369462075175877,0.369462075175877
0.37041376103059176,0.37041376103059176
0.369462075175877,0.369462075175877
0.36755870346644737,0.36755870346644737
0.369462075175877,0.369462075175877
0.3504283580815808,0.3504283580815808
0.3437665570985771,0.3437665570985771
0.3447182429532919,0.3447182429532919
0.3437665570985771,0.3437665570985771
0.3114092380382736,0.3114092380382736
0.2914238350892626,0.2914238350892626
0.2961822643628366,0.2961822643628366
0.3171193531665624,0.3171193531665624
0.30760249461941436,0.30760249461941436
0.2914238350892626,0.2914238350892626
0.2819069765421145,0.2819069765421145
0.2914238350892626,0.2914238350892626
0.28952046337983295,0.28952046337983295
0.2914238350892626,0.2914238350892626
0.2914238350892626,0.2914238350892626
0.2914238350892626,0.2914238350892626
0.27239011799496643,0.27239011799496643
0.26572831701196276,0.26572831701196276
0.27239011799496643,0.27239011799496643
0.2914238350892626,0.2914238350892626
0.2904721492345478,0.2904721492345478
0.2914238350892626,0.2914238350892626
0.29808563607226624,0.29808563607226624
0.3171193531665624,0.3171193531665624
0.31807103902127726,0.31807103902127726
0.3171193531665624,0.3171193531665624
0.3256845258589957,0.3256845258589957
0.369462075175877,0.369462075175877
0.4218047971851915,0.4218047971851915
0.4731958333397912,0.4731958333397912
0.48842280701522817,0.48842280701522817
0.4731958333397912,0.4731958333397912
0.4227564830399063,0.4227564830399063
0.369462075175877,0.369462075175877
0.3275878975684254,0.3275878975684254
0.3171193531665624,0.3171193531665624
0.3018923794911255,0.3018923794911255
0.26572831701196276,0.26572831701196276
0.20482042231021494,0.20482042231021494
0.18769007692534836,0.18769007692534836
0.20196536474607052,0.20196536474607052
0.21338559500264823,0.21338559500264823
0.18673839107063356,0.18673839107063356
0.18769007692534836,0.18769007692534836
0.20291705060078533,0.20291705060078533
0.18769007692534836,0.18769007692534836
0.1286855539330302,0.1286855539330302
0.13534735491603384,0.13534735491603384
0.18293164765177433,0.18293164765177433
0.13534735491603384,0.13534735491603384
-0.06450667457407613,-0.06450667457407613
-0.28053936359433784,-0.28053936359433784
-0.5060889111617477,-0.5060889111617477
-0.8515508764232235,-0.8515508764232235
-1.1913027265564105,-1.1913027265564105
-1.0333228746737522,-1.0333228746737522
-0.17680560543042365,-0.17680560543042365
0.9404735880047627,0.9404735880047627
1.698015528357751,1.698015528357751
1.9806662272080493,1.9806662272080493
2.0149269179777827,2.0149269179777827
1.9806662272080493,1.9806662272080493
1.9292751910534496,1.9292751910534496
1.9806662272080493,1.9806662272080493
2.0863033570813934,2.0863033570813934
1.9806662272080493,1.9806662272080493
1.487692954465778,1.487692954465778
0.8633870337728631,0.8633870337728631
0.4227564830399063,0.4227564830399063
0.18769007692534836,0.18769007692534836
-0.027390926240198562,-0.027390926240198562
-0.22819664158502334,-0.22819664158502334
-0.3271719704753635,-0.3271719704753635
-0.33193039974893757,-0.33193039974893757
-0.3604809753903819,-0.3604809753903819
-0.40996863983555193,-0.40996863983555193
-0.42805067107513334,-0.42805067107513334
-0.40996863983555193,-0.40996863983555193
-0.4251956135109889,-0.4251956135109889
-0.4623113618448665,-0.4623113618448665
-0.48420013650330707,-0.48420013650330707
-0.4623113618448665,-0.4623113618448665
-0.45089113158828875,-0.45089113158828875
-0.4623113618448665,-0.4623113618448665
-0.48991025163159596,-0.48991025163159596
-0.48800687992216635,-0.48800687992216635
-0.47373159210144417,-0.47373159210144417
-0.4623113618448665,-0.4623113618448665
-0.4851518223580219,-0.4851518223580219
-0.5137023979994662,-0.5137023979994662
-0.5355911726579068,-0.5355911726579068
-0.5403496019314808,-0.5403496019314808
-0.5527215180427734,-0.5527215180427734
-0.5660451200087807,-0.5660451200087807
-0.5879338946672213,-0.5879338946672213
-0.6183878420180953,-0.6183878420180953
-0.6640687630444061,-0.6640687630444061
-0.6954743962499947,-0.6954743962499947
-0.719266542617865,-0.719266542617865
-0.7478171182593093,-0.7478171182593093
-0.8039665836874831,-0.8039665836874831
-0.8515508764232235,-0.8515508764232235
-0.8905699964665307,-0.8905699964665307
-0.9295891165098379,-0.9295891165098379
-0.9847868960832968,-0.9847868960832968
-1.0076273565964522,-1.0076273565964522
-0.9962071263398745,-0.9962071263398745
-0.9819318385191524,-0.9819318385191524
-1.0019172414681634,-1.0019172414681634
-1.0076273565964522,-1.0076273565964522
-0.9781250951002932,-0.9781250951002932
-0.9295891165098379,-0.9295891165098379
-0.9086520277061121,-0.9086520277061121
-0.8781980803552382,-0.8781980803552382
-0.8201452432176348,-0.8201452432176348
-0.7478171182593093,-0.7478171182593093
-0.69452271039528,-0.69452271039528
-0.6183878420180953,-0.6183878420180953
-0.5051372253070329,-0.5051372253070329
-0.3842731217582521,-0.3842731217582521
-0.3043315099622081,-0.3043315099622081
-0.22819664158502334,-0.22819664158502334
-0.12922131269468318,-0.12922131269468318
-0.0207291252571949,-0.0207291252571949
0.043985512863412145,0.043985512863412145
0.08395631876143414,0.08395631876143414
0.12678218222360058,0.12678218222360058
0.18769007692534836,0.18769007692534836
0.22290245354979632,0.22290245354979632
0.2390811130799481,0.2390811130799481
0.25335640090067024,0.25335640090067024
0.2914238350892626,0.2914238350892626
0.3190227248759921,0.3190227248759921
0.3171193531665624,0.3171193531665624
0.2904721492345478,0.2904721492345478
0.2914238350892626,0.2914238350892626
0.3171193531665624,0.3171193531665624
0.3437665570985771,0.3437665570985771
0.33900812782500306,0.33900812782500306
0.3437665570985771,0.3437665570985771
0.3589935307740141,0.3589935307740141
0.369462075175877,0.369462075175877
0.34757330051743635,0.34757330051743635
0.3437665570985771,0.3437665570985771
0.3608969024834437,0.3608969024834437
0.369462075175877,0.369462075175877
0.3332980126967142,0.3332980126967142
0.3171193531665624,0.3171193531665624
0.34091149953443267,0.34091149953443267
0.369462075175877,0.369462075175877
0.3437665570985771,0.3437665570985771
0.3171193531665624,0.3171193531665624
0.3237811541495661,0.3237811541495661
0.3437665570985771,0.3437665570985771
0.31807103902127726,0.31807103902127726
0.2914238350892626,0.2914238350892626
0.294278892653407,0.294278892653407
0.3171193531665624,0.3171193531665624
0.30569912290998474,0.30569912290998474
0.2914238350892626,0.2914238350892626
0.29523057850812184,0.29523057850812184
0.3171193531665624,0.3171193531665624
0.30855418047412914,0.30855418047412914
0.2914238350892626,0.2914238350892626
0.28285866239682933,0.28285866239682933
0.2914238350892626,0.2914238350892626
0.28761709167040334,0.28761709167040334
0.2914238350892626,0.2914238350892626
0.3018923794911255,0.3018923794911255
0.3171193531665624,0.3171193531665624
0.3047474370552699,0.3047474370552699
0.2914238350892626,0.2914238350892626
0.2914238350892626,0.2914238350892626
0.3171193531665624,0.3171193531665624
0.33900812782500306,0.33900812782500306
0.369462075175877,0.369462075175877
0.40943288107389897,0.40943288107389897
0.4731958333397912,0.4731958333397912
0.5112632675283836,0.5112632675283836
0.49889135141709107,0.49889135141709107
0.4332250274417692,0.4332250274417692
0.369462075175877,0.369462075175877
0.33044295513256977,0.33044295513256977
0.3171193531665624,0.3171193531665624
0.29332720679869223,0.29332720679869223
0.26572831701196276,0.26572831701196276
0.22290245354979632,0.22290245354979632
0.18769007692534836,0.18769007692534836
0.15533275786504486,0.15533275786504486
0.1610428729933337,0.1610428729933337
0.18673839107063356,0.18673839107063356
0.21338559500264823,0.21338559500264823
0.19340019205363723,0.19340019205363723
0.1610428729933337,0.1610428729933337
0.149622642736756,0.149622642736756
0.18769007692534836,0.18769007692534836
0.20006199303664088,0.20006199303664088
0.13534735491603384,0.13534735491603384
-0.007405523291187565,-0.007405523291187565
-0.17585391957570884,-0.17585391957570884
-0.4375675296222814,-0.4375675296222814
-0.8258553583459237,-0.8258553583459237
-1.1522836065131032,-1.1522836065131032
-1.0076273565964522,-1.0076273565964522
-0.2519887879528936,-0.2519887879528936
0.7853487936862487,0.7853487936862487
1.5933300843391218,1.5933300843391218
1.9806662272080493,1.9806662272080493
2.0444291794739415,2.0444291794739415
1.9806662272080493,1.9806662272080493
1.9226133900704458,1.9226133900704458
1.9806662272080493,1.9806662272080493
2.073931440970101,2.073931440970101
1.9806662272080493,1.9806662272080493
1.5524075925863852,1.5524075925863852
0.9671207919367772,0.9671207919367772
0.48747112116051333,0.48747112116051333
0.21338559500264823,0.21338559500264823
0.031613596752119624,0.031613596752119624
-0.12446288342110913,-0.12446288342110913
-0.24818204453403434,-0.24818204453403434
-0.3062348816716377,-0.3062348816716377
-0.3357371431677968,-0.3357371431677968
-0.35857760368095226,-0.35857760368095226
-0.38903155103182613,-0.38903155103182613
-0.40996863983555193,-0.40996863983555193
-0.42043718423741483,-0.42043718423741483
-0.40996863983555193,-0.40996863983555193
-0.414727069109126,-0.414727069109126
-0.4356641579128518,-0.4356641579128518
-0.46992484868258494,-0.46992484868258494
-0.4623113618448665,-0.4623113618448665
-0.4309057286392778,-0.4309057286392778
-0.40996863983555193,-0.40996863983555193
-0.4375675296222814,-0.4375675296222814
-0.4623113618448665,-0.4623113618448665
-0.4670697911184405,-0.4670697911184405
-0.4623113618448665,-0.4623113618448665
-0.4861035082127367,-0.4861035082127367
-0.5137023979994662,-0.5137023979994662
-0.5317844292390476,-0.5317844292390476
-0.5403496019314808,-0.5403496019314808
-0.5669968058634955,-0.5669968058634955
-0.5917406380860806,-0.5917406380860806
-0.6145810985992359,-0.6145810985992359
-0.644083360095395,-0.644083360095395
-0.7021361972329985,-0.7021361972329985
-0.7478171182593093,-0.7478171182593093
-0.774464322191324,-0.774464322191324
-0.8001598402686239,-0.8001598402686239
-0.8572609915515124,-0.8572609915515124
-0.903893598432538,-0.903893598432538
-0.9153138286891157,-0.9153138286891157
-0.903893598432538,-0.903893598432538
-0.9162655145438305,-0.9162655145438305
-0.9295891165098379,-0.9295891165098379
-0.9276857448004083,-0.9276857448004083
-0.903893598432538,-0.903893598432538
-0.8915216823212455,-0.8915216823212455
-0.8781980803552382,-0.8781980803552382
-0.8601160491156568,-0.8601160491156568
-0.8258553583459237,-0.8258553583459237
-0.7877879241573313,-0.7877879241573313
-0.7221216001820094,-0.7221216001820094
-0.6421799883859655,-0.6421799883859655
-0.5660451200087807,-0.5660451200087807
-0.519412513127755,-0.519412513127755
-0.4623113618448665,-0.4623113618448665
-0.3728528915016744,-0.3728528915016744
-0.2538921596623232,-0.2538921596623232
-0.1539651449172682,-0.1539651449172682
-0.0721201614117946,-0.0721201614117946
-0.0016954081628987082,-0.0016954081628987082
0.08395631876143414,0.08395631876143414
0.15628444371975966,0.15628444371975966
0.21338559500264823,0.21338559500264823
0.25621145846481463,0.25621145846481463
0.3171193531665624,0.3171193531665624
0.3647036459023029,0.3647036459023029
0.369462075175877,0.369462075175877
0.3361530702608586,0.3361530702608586
0.3437665570985771,0.3437665570985771
0.39135084983431756,0.39135084983431756
0.42085311133047665,0.42085311133047665
0.3818339912871695,0.3818339912871695
0.3437665570985771,0.3437665570985771
0.35613847320986963,0.35613847320986963
0.39515759325317684,0.39515759325317684
0.39135084983431756,0.39135084983431756
0.369462075175877,0.369462075175877
0.3608969024834437,0.3608969024834437
0.369462075175877,0.369462075175877
0.3608969024834437,0.3608969024834437
0.369462075175877,0.369462075175877
0.39896433667203607,0.39896433667203607
0.42085311133047665,0.42085311133047665
0.3856407347060287,0.3856407347060287
0.3437665570985771,0.3437665570985771
0.3380564419702883,0.3380564419702883
0.369462075175877,0.369462075175877
0.369462075175877,0.369462075175877
0.3437665570985771,0.3437665570985771
0.3066508087646995,0.3066508087646995
0.2914238350892626,0.2914238350892626
0.2809552906873997,0.2809552906873997
0.2914238350892626,0.2914238350892626
0.3047474370552699,0.3047474370552699
0.3171193531665624,0.3171193531665624
0.3114092380382736,0.3114092380382736
0.3171193531665624,0.3171193531665624
0.3228294682948513,0.3228294682948513
0.3171193531665624,0.3171193531665624
0.28952046337983295,0.28952046337983295
0.2914238350892626,0.2914238350892626
0.31997441073070687,0.31997441073070687
0.3437665570985771,0.3437665570985771
0.31807103902127726,0.31807103902127726
0.2914238350892626,0.2914238350892626
0.29332720679869223,0.29332720679869223
0.3171193531665624,0.3171193531665624
0.30950586632884397,0.30950586632884397
0.2914238350892626,0.2914238350892626
0.3009406936364107,0.3009406936364107
0.369462075175877,0.369462075175877
0.44559694355306173,0.44559694355306173
0.49889135141709107,0.49889135141709107
0.5065048382548095,0.5065048382548095
0.49889135141709107,0.49889135141709107
0.4760508909039356,0.4760508909039356
0.44750031526249134,0.44750031526249134
0.40372276594561013,0.40372276594561013
0.369462075175877,0.369462075175877
0.3323463268419994,0.3323463268419994
0.2914238350892626,0.2914238350892626
0.23432268380637403,0.23432268380637403
0.21338559500264823,0.21338559500264823
0.2219507676950815,0.2219507676950815
0.2390811130799481,0.2390811130799481
0.23717774137051845,0.23717774137051845
0.26572831701196276,0.26572831701196276
0.2838103482515441,0.2838103482515441
0.2390811130799481,0.2390811130799481
0.1505743285914708,0.1505743285914708
0.1610428729933337,0.1610428729933337
0.23527436966108883,0.23527436966108883
0.18769007692534836,0.18769007692534836
-0.04452127162506513,-0.04452127162506513
-0.28053936359433784,-0.28053936359433784
-0.499427110178744,-0.499427110178744
-0.8515508764232235,-0.8515508764232235
-1.2141431870695658,-1.2141431870695658
-1.0333228746737522,-1.0333228746737522
-0.09686399363437966,-0.09686399363437966
1.0708545501006914,1.0708545501006914
1.7817638835726541,1.7817638835726541
1.9806662272080493,1.9806662272080493
1.9892313999004827,1.9892313999004827
1.9806662272080493,1.9806662272080493
1.942598793019457,1.942598793019457
1.9806662272080493,1.9806662272080493
2.080593241953104,2.080593241953104
1.9806662272080493,1.9806662272080493
1.4734176666450558,1.4734176666450558
0.8110443117635485,0.8110443117635485
0.34947667222686596,0.34947667222686596
0.13534735491603384,0.13534735491603384
-0.041666214060920706,-0.041666214060920706
-0.22819664158502334,-0.22819664158502334
-0.34810905927908936,-0.34810905927908936
-0.3842731217582521,-0.3842731217582521
-0.42995404278456295,-0.42995404278456295
-0.48800687992216635,-0.48800687992216635
-0.5108473404353218,-0.5108473404353218
-0.48800687992216635,-0.48800687992216635
-0.4870551940674515,-0.4870551940674515
-0.5137023979994662,-0.5137023979994662
-0.5470114029144845,-0.5470114029144845
-0.5403496019314808,-0.5403496019314808
-0.5241709424013291,-0.5241709424013291
-0.5137023979994662,-0.5137023979994662
-0.5308327433843327,-0.5308327433843327
-0.5403496019314808,-0.5403496019314808
-0.5441563453503401,-0.5441563453503401
-0.5403496019314808,-0.5403496019314808
-0.5536732038974882,-0.5536732038974882
-0.5660451200087807,-0.5660451200087807
-0.5793687219747881,-0.5793687219747881
-0.5917406380860806,-0.5917406380860806
-0.6221945854369545,-0.6221945854369545
-0.644083360095395,-0.644083360095395
-0.6583586479161172,-0.6583586479161172
-0.6697788781726949,-0.6697788781726949
-0.699281139668854,-0.699281139668854
-0.7221216001820094,-0.7221216001820094
-0.7430586889857352,-0.7430586889857352
-0.7735126363366092,-0.7735126363366092
-0.8315654734742125,-0.8315654734742125
-0.8781980803552382,-0.8781980803552382
-0.9057969701419677,-0.9057969701419677
-0.9295891165098379,-0.9295891165098379
-0.9762217233908635,-0.9762217233908635
-1.0076273565964522,-1.0076273565964522
-1.014289157579456,-1.014289157579456
-1.0076273565964522,-1.0076273565964522
-1.0180959009983153,-1.0180959009983153
-1.0076273565964522,-1.0076273565964522
-0.9714632941172895,-0.9714632941172895
-0.9295891165098379,-0.9295891165098379
-0.914362142834401,-0.914362142834401
-0.8781980803552382,-0.8781980803552382
-0.8049182695421978,-0.8049182695421978
-0.7221216001820094,-0.7221216001820094
-0.6735856215915541,-0.6735856215915541
-0.6183878420180953,-0.6183878420180953
-0.5270259999654735,-0.5270259999654735
-0.40996863983555193,-0.40996863983555193
-0.3167034260735006,-0.3167034260735006
-0.22819664158502334,-0.22819664158502334
-0.13588311367768682,-0.13588311367768682
-0.04642464333449475,-0.04642464333449475
0.007821450384249386,0.007821450384249386
0.05730911482941948,0.05730911482941948
0.1191686953858821,0.1191686953858821
0.18769007692534836,0.18769007692534836
0.2219507676950815,0.2219507676950815
0.2390811130799481,0.2390811130799481
0.25811483017424425,0.25811483017424425
0.2914238350892626,0.2914238350892626
0.3028440653458403,0.3028440653458403
0.2914238350892626,0.2914238350892626
0.27429348970439604,0.27429348970439604
0.2914238350892626,0.2914238350892626
0.3152159814571328,0.3152159814571328
0.3171193531665624,0.3171193531665624
0.2904721492345478,0.2904721492345478
0.2914238350892626,0.2914238350892626
0.31997441073070687,0.31997441073070687
0.3437665570985771,0.3437665570985771
0.32473284000428093,0.32473284000428093
0.3171193531665624,0.3171193531665624
0.34091149953443267,0.34091149953443267
0.369462075175877,0.369462075175877
0.3551867873551548,0.3551867873551548
0.3437665570985771,0.3437665570985771
0.3532834156457252,0.3532834156457252
0.369462075175877,0.369462075175877
0.3504283580815808,0.3504283580815808
0.3437665570985771,0.3437665570985771
0.3589935307740141,0.3589935307740141
0.369462075175877,0.369462075175877
0.3275878975684254,0.3275878975684254
0.2914238350892626,0.2914238350892626
0.29332720679869223,0.29332720679869223
0.3171193531665624,0.3171193531665624
0.3047474370552699,0.3047474370552699
0.2914238350892626,0.2914238350892626
0.29903732192698107,0.29903732192698107
0.3171193531665624,0.3171193531665624
0.294278892653407,0.294278892653407
0.26572831701196276,0.26572831701196276
0.26192157359310353,0.26192157359310353
0.2914238350892626,0.2914238350892626
0.2999890077816959,0.2999890077816959
0.2914238350892626,0.2914238350892626
0.27905191897797005,0.27905191897797005
0.2914238350892626,0.2914238350892626
0.30379575120055513,0.30379575120055513
0.3171193531665624,0.3171193531665624
0.3152159814571328,0.3152159814571328
0.3171193531665624,0.3171193531665624
0.3332980126967142,0.3332980126967142
0.39515759325317684,0.39515759325317684
0.4646306606473579,0.4646306606473579
0.49889135141709107,0.49889135141709107
0.4674857182115023,0.4674857182115023
0.42085311133047665,0.42085311133047665
0.38754410641545833,0.38754410641545833
0.369462075175877,0.369462075175877
0.3313946409872846,0.3313946409872846
0.2914238350892626,0.2914238350892626
0.24859797162709618,0.24859797162709618
0.21338559500264823,0.21338559500264823
0.16865635983105218,0.16865635983105218
0.1610428729933337,0.1610428729933337
0.18578670521591875,0.18578670521591875
0.21338559500264823,0.21338559500264823
0.19054513448949278,0.19054513448949278
0.1610428729933337,0.1610428729933337
0.1410574700443227,0.1410574700443227
0.13534735491603384,0.13534735491603384
0.129637239787745,0.129637239787745
0.1610428729933337,0.1610428729933337
0.16389793055747814,0.16389793055747814
0.031613596752119624,0.031613596752119624
-0.25865058893589726,-0.25865058893589726
-0.5660451200087807,-0.5660451200087807
-0.8296621017647829,-0.8296621017647829
-1.0076273565964522,-1.0076273565964522
-0.8867632530476715,-0.8867632530476715
-0.15015840149840898,-0.15015840149840898
1.0318354300573844,1.0318354300573844
1.9806662272080493,1.9806662272080493
2.2024090313566,2.2024090313566
1.9806662272080493,1.9806662272080493
1.8598021236592686,1.8598021236592686
1.9806662272080493,1.9806662272080493
2.0682213258418116,2.0682213258418116
1.9806662272080493,1.9806662272080493
1.7570200513500691,1.7570200513500691
1.4343985466017488,1.4343985466017488
0.9794927080480698,0.9794927080480698
0.49889135141709107,0.49889135141709107
0.1420091558990375,0.1420091558990375
-0.04642464333449475,-0.04642464333449475
-0.1634820034644163,-0.1634820034644163
-0.2538921596623232,-0.2538921596623232
-0.3233652270565043,-0.3233652270565043
-0.35857760368095226,-0.35857760368095226
-0.3871281793223965,-0.3871281793223965
-0.40996863983555193,-0.40996863983555193
-0.4290023569298481,-0.4290023569298481
-0.4356641579128518,-0.4356641579128518
-0.4518428174430036,-0.4518428174430036
-0.4623113618448665,-0.4623113618448665
-0.4727799062467294,-0.4727799062467294
-0.4623113618448665,-0.4623113618448665
-0.4566012467165776,-0.4566012467165776
-0.4623113618448665,-0.4623113618448665
-0.4937169950504552,-0.4937169950504552
-0.5137023979994662,-0.5137023979994662
-0.5213158848371846,-0.5213158848371846
-0.5137023979994662,-0.5137023979994662
-0.5241709424013291,-0.5241709424013291
-0.5403496019314808,-0.5403496019314808
-0.559383319025777,-0.559383319025777
-0.5660451200087807,-0.5660451200087807
-0.5850788371030768,-0.5850788371030768
-0.6183878420180953,-0.6183878420180953
-0.6650204488991209,-0.6650204488991209
-0.6954743962499947,-0.6954743962499947
-0.7211699143272946,-0.7211699143272946
-0.7478171182593093,-0.7478171182593093
-0.7906429817214757,-0.7906429817214757
-0.8258553583459237,-0.8258553583459237
-0.8620194208250864,-0.8620194208250864
-0.903893598432538,-0.903893598432538
-0.9562363204418526,-0.9562363204418526
-0.9819318385191524,-0.9819318385191524
-0.9904970112115857,-0.9904970112115857
-1.0076273565964522,-1.0076273565964522
-1.0514049059133335,-1.0514049059133335
-1.0599700786057669,-1.0599700786057669
-1.0161925292888856,-1.0161925292888856
-0.9562363204418526,-0.9562363204418526
-0.9381542892022712,-0.9381542892022712
-0.9295891165098379,-0.9295891165098379
-0.8943767398853899,-0.8943767398853899
-0.8258553583459237,-0.8258553583459237
-0.7649474636441759,-0.7649474636441759
-0.6954743962499947,-0.6954743962499947
-0.6117260410350915,-0.6117260410350915
-0.5137023979994662,-0.5137023979994662
-0.4290023569298481,-0.4290023569298481
-0.33193039974893757,-0.33193039974893757
-0.22534158402087892,-0.22534158402087892
-0.12446288342110913,-0.12446288342110913
-0.05784487359107247,-0.05784487359107247
0.005918078674819767,0.005918078674819767
0.07443946021428605,0.07443946021428605
0.13534735491603384,0.13534735491603384
0.1610428729933337,0.1610428729933337
0.18769007692534836,0.18769007692534836
0.23337099795165922,0.23337099795165922
0.2914238350892626,0.2914238350892626
0.3066508087646995,0.3066508087646995
0.2914238350892626,0.2914238350892626
0.27429348970439604,0.27429348970439604
0.2914238350892626,0.2914238350892626
0.30950586632884397,0.30950586632884397
0.3171193531665624,0.3171193531665624
0.3152159814571328,0.3152159814571328
0.3437665570985771,0.3437665570985771
0.3713654468853066,0.3713654468853066
0.369462075175877,0.369462075175877
0.32663621171371054,0.32663621171371054
0.3171193531665624,0.3171193531665624
0.3447182429532919,0.3447182429532919
0.369462075175877,0.369462075175877
0.34091149953443267,0.34091149953443267
0.3437665570985771,0.3437665570985771
0.4532104303907802,0.4532104303907802
0.6806633496676197,0.6806633496676197
0.9100196406538887,0.9100196406538887
1.0708545501006914,1.0708545501006914
1.1327141306571542,1.1327141306571542
1.1488927901873058,1.1488927901873058
1.1622163921533133,1.1622163921533133
1.25262654835122,1.25262654835122
1.4305918031828895,1.4305918031828895
1.6685132668615918,1.6685132668615918
1.867415610496987,1.867415610496987
1.9806662272080493,1.9806662272080493
1.9977965725929159,1.9977965725929159
1.9806662272080493,1.9806662272080493
1.967342625242042,1.967342625242042
1.9806662272080493,1.9806662272080493
1.987328028191053,1.987328028191053
1.9806662272080493,1.9806662272080493
1.967342625242042,1.967342625242042
1.9806662272080493,1.9806662272080493
1.992086457464627,1.992086457464627
1.9806662272080493,1.9806662272080493
1.9549707091307496,1.9549707091307496
1.9806662272080493,1.9806662272080493
2.031105577507934,2.031105577507934
1.9806662272080493,1.9806662272080493
1.6608997800238734,1.6608997800238734
1.0708545501006914,1.0708545501006914
0.3551867873551548,0.3551867873551548
-0.28053936359433784,-0.28053936359433784
-0.7421070031310204,-0.7421070031310204
-1.0333228746737522,-1.0333228746737522
-1.2303218465997177,-1.2303218465997177
-1.3711713530975094,-1.3711713530975094
-1.4825185980991422,-1.4825185980991422
-1.552943351348038,-1.552943351348038
-1.6090928167762117,-1.6090928167762117
-1.657628795366667,-1.657628795366667
-1.7137782607948409,-1.7137782607948409
-1.7613625535305812,-1.7613625535305812
-1.8041884169927478,-1.8041884169927478
-1.8394007936171957,-1.8394007936171957
-1.8822266570793622,-1.8822266570793622
-1.91743903370381,-1.91743903370381
-1.9469412951999692,-1.9469412951999692
-1.9688300698584098,-1.9688300698584098
-2.010704247465861,-2.010704247465861
-2.072563828022324,-2.072563828022324
-2.1544088115277975,-2.1544088115277975
-2.2286403081955526,-2.2286403081955526
-2.301920119008593,-2.301920119008593
-2.3847167883687814,-2.3847167883687814
-2.487498860677981,-2.487498860677981
-2.5921843046966098,-2.5921843046966098
-2.695918062860524,-2.695918062860524
-2.800603506879153,-2.800603506879153
-2.911950751880786,-2.911950751880786
-3.008071023206982,-3.008071023206982
-3.095626121840744,-3.095626121840744
-3.18984302145751,-3.18984302145751
-3.2983352088949984,-3.2983352088949984
-3.3725667055627535,-3.3725667055627535
-3.4039723387683423,-3.4039723387683423
-3.4239577417173535,-3.4239577417173535
-3.4563150607776567,-3.4563150607776567
-3.4496532597946534,-3.4496532597946534
-3.385890307528761,-3.385890307528761
-3.294528465476139,-3.294528465476139
-3.2183935970989546,-3.2183935970989546
-3.1127564672256107,-3.1127564672256107
-2.9481148143599487,-2.9481148143599487
-2.7482607848698386,-2.7482607848698386
-2.562682043200451,-2.562682043200451
-2.3590212702914815,-2.3590212702914815
-2.111582948065631,-2.111582948065631
-1.8394007936171957,-1.8394007936171957
-1.5900590996819157,-1.5900590996819157
-1.3454758350202096,-1.3454758350202096
-1.0875689683924963,-1.0875689683924963
-0.8258553583459237,-0.8258553583459237
-0.6031608683426583,-0.6031608683426583
-0.40996863983555193,-0.40996863983555193
-0.22534158402087892,-0.22534158402087892
-0.04642464333449475,-0.04642464333449475
0.09156980559915262,0.09156980559915262
0.18769007692534836,0.18769007692534836
0.26192157359310353,0.26192157359310353
0.3437665570985771,0.3437665570985771
0.41038456692861375,0.41038456692861375
0.44750031526249134,0.44750031526249134
0.4636789747926431,0.4636789747926431
0.49889135141709107,0.49889135141709107
0.5407655290245427,0.5407655290245427
0.5512340734264055,0.5512340734264055
0.5160216968019576,0.5160216968019576
0.49889135141709107,0.49889135141709107
0.5236351836396761,0.5236351836396761
0.5512340734264055,0.5512340734264055
0.529345298767965,0.529345298767965
0.49889135141709107,0.49889135141709107
0.49984303727180585,0.49984303727180585
0.5255385553491058,0.5255385553491058
0.518876754366102,0.518876754366102
0.49889135141709107,0.49889135141709107
0.48747112116051333,0.48747112116051333
0.49889135141709107,0.49889135141709107
0.49889135141709107,0.49889135141709107
0.49889135141709107,0.49889135141709107
0.49698797970766145,0.49698797970766145
0.49889135141709107,0.49889135141709107
0.48937449286994295,0.48937449286994295
0.49889135141709107,0.49889135141709107
0.5169733826566725,0.5169733826566725
0.5255385553491058,0.5255385553491058
0.5026980948359503,0.5026980948359503
0.49889135141709107,0.49889135141709107
0.514118325092528,0.514118325092528
0.5255385553491058,0.5255385553491058
0.5007947231265206,0.5007947231265206
0.49889135141709107,0.49889135141709107
0.5274419270585353,0.5274419270585353
0.5512340734264055,0.5512340734264055
0.5226834977849613,0.5226834977849613
0.49889135141709107,0.49889135141709107
0.5065048382548095,0.5065048382548095
0.5255385553491058,0.5255385553491058
0.5065048382548095,0.5065048382548095
0.49889135141709107,0.49889135141709107
0.5226834977849613,0.5226834977849613
0.5512340734264055,0.5512340734264055
0.5274419270585353,0.5274419270585353
0.49889135141709107,0.49889135141709107
0.5007947231265206,0.5007947231265206
0.5255385553491058,0.5255385553491058
0.5150700109472428,0.5150700109472428
0.49889135141709107,0.49889135141709107
0.5017464089812355,0.5017464089812355
0.5255385553491058,0.5255385553491058
0.5179250685113872,0.5179250685113872
0.49889135141709107,0.49889135141709107
0.48747112116051333,0.48747112116051333
0.49889135141709107,0.49889135141709107
0.49984303727180585,0.49984303727180585
0.49889135141709107,0.49889135141709107
0.49318123628880217,0.49318123628880217
0.49889135141709107,0.49889135141709107
0.49698797970766145,0.49698797970766145
0.49889135141709107,0.49889135141709107
0.4960362938529466,0.4960362938529466
0.49889135141709107,0.49889135141709107
0.4855677494510837,0.4855677494510837
0.4731958333397912,0.4731958333397912
0.46177560308321347,0.46177560308321347
0.4731958333397912,0.4731958333397912
0.47890594846808004,0.47890594846808004
0.4731958333397912,0.4731958333397912
0.4484520011172061,0.4484520011172061
0.44750031526249134,0.44750031526249134
0.4608239172284987,0.4608239172284987
0.4731958333397912,0.4731958333397912
0.45606548795492463,0.45606548795492463
0.44750031526249134,0.44750031526249134
0.4465486294077765,0.4465486294077765
0.44750031526249134,0.44750031526249134
0.42465985474933593,0.42465985474933593
0.42085311133047665,0.42085311133047665
0.4427418859889173,0.4427418859889173
0.4731958333397912,0.4731958333397912
0.4712924616303616,0.4712924616303616
0.4731958333397912,0.4731958333397912
0.4855677494510837,0.4855677494510837
0.49889135141709107,0.49889135141709107
0.47795426261336527,0.47795426261336527
0.4731958333397912,0.4731958333397912
0.5169733826566725,0.5169733826566725
0.6035767954357201,0.6035767954357201
0.6473543447526013,0.6473543447526013
0.6292723135130199,0.6292723135130199
0.5607509319735536,0.5607509319735536
0.49889135141709107,0.49889135141709107
0.45796885966435424,0.45796885966435424
0.44750031526249134,0.44750031526249134
0.42941828402290994,0.42941828402290994
0.39515759325317684,0.39515759325317684
0.3313946409872846,0.3313946409872846
0.2914238350892626,0.2914238350892626
0.27810023312325527,0.27810023312325527
0.2914238350892626,0.2914238350892626
0.2961822643628366,0.2961822643628366
0.3171193531665624,0.3171193531665624
0.3209260965854217,0.3209260965854217
0.2914238350892626,0.2914238350892626
0.23622605551580364,0.23622605551580364
0.2390811130799481,0.2390811130799481
0.24859797162709618,0.24859797162709618
0.13534735491603384,0.13534735491603384
-0.1539651449172682,-0.1539651449172682
-0.48800687992216635,-0.48800687992216635
-0.7906429817214757,-0.7906429817214757
-1.0076273565964522,-1.0076273565964522
-0.919120572107975,-0.919120572107975
-0.2025011235077235,-0.2025011235077235
0.973782592919781,0.973782592919781
1.9283235051987349,1.9283235051987349
2.1700517122962966,2.1700517122962966
1.9806662272080493,1.9806662272080493
1.8778841548988499,1.8778841548988499
1.9806662272080493,1.9806662272080493
2.041574121909797,2.041574121909797
1.9806662272080493,1.9806662272080493
1.8436234641291167,1.8436234641291167
1.5904750267749774,1.5904750267749774
1.1289073872382949,1.1289073872382949
0.6035767954357201,0.6035767954357201
0.22861256867808516,0.22861256867808516
0.05730911482941948,0.05730911482941948
-0.05594150188164285,-0.05594150188164285
-0.17585391957570884,-0.17585391957570884
-0.2738775626113342,-0.2738775626113342
-0.3062348816716377,-0.3062348816716377
-0.3167034260735006,-0.3167034260735006
-0.33193039974893757,-0.33193039974893757
-0.35667423197152265,-0.35667423197152265
-0.35857760368095226,-0.35857760368095226
-0.354770860262093,-0.354770860262093
-0.35857760368095226,-0.35857760368095226
-0.38998323688654096,-0.38998323688654096
-0.40996863983555193,-0.40996863983555193
-0.4156787549638408,-0.4156787549638408
-0.40996863983555193,-0.40996863983555193
-0.4261472993657037,-0.4261472993657037
-0.4356641579128518,-0.4356641579128518
-0.43851921547699624,-0.43851921547699624
-0.4356641579128518,-0.4356641579128518
-0.4623113618448665,-0.4623113618448665
-0.48800687992216635,-0.48800687992216635
-0.4975237384693144,-0.4975237384693144
-0.48800687992216635,-0.48800687992216635
-0.4956203667598848,-0.4956203667598848
-0.5137023979994662,-0.5137023979994662
-0.5413012877861957,-0.5413012877861957
-0.5660451200087807,-0.5660451200087807
-0.6050642400520879,-0.6050642400520879
-0.644083360095395,-0.644083360095395
-0.6783440508651282,-0.6783440508651282
-0.6954743962499947,-0.6954743962499947
-0.7202182284725798,-0.7202182284725798
-0.7478171182593093,-0.7478171182593093
-0.7811261231743276,-0.7811261231743276
-0.8001598402686239,-0.8001598402686239
-0.8230003007817792,-0.8230003007817792
-0.8515508764232235,-0.8515508764232235
-0.8839081954835271,-0.8839081954835271
-0.8781980803552382,-0.8781980803552382
-0.8486958188590791,-0.8486958188590791
-0.8258553583459237,-0.8258553583459237
-0.8353722168930717,-0.8353722168930717
-0.8258553583459237,-0.8258553583459237
-0.7811261231743276,-0.7811261231743276
-0.7221216001820094,-0.7221216001820094
-0.6964260821047096,-0.6964260821047096
-0.6697788781726949,-0.6697788781726949
-0.6183878420180953,-0.6183878420180953
-0.5403496019314808,-0.5403496019314808
-0.4756349638108738,-0.4756349638108738
-0.40996863983555193,-0.40996863983555193
-0.33859220073194124,-0.33859220073194124
-0.2538921596623232,-0.2538921596623232
-0.18156403470399768,-0.18156403470399768
-0.09876736534380927,-0.09876736534380927
-0.014067324274191231,-0.014067324274191231
0.05730911482941948,0.05730911482941948
0.09347317730858223,0.09347317730858223
0.13534735491603384,0.13534735491603384
0.18959344863477798,0.18959344863477798
0.2390811130799481,0.2390811130799481
0.2524047150459554,0.2524047150459554
0.26572831701196276,0.26572831701196276
0.2914238350892626,0.2914238350892626
0.3171193531665624,0.3171193531665624
0.3133126097477032,0.3133126097477032
0.3171193531665624,0.3171193531665624
0.3418631853891475,0.3418631853891475
0.369462075175877,0.369462075175877
0.35804184491929925,0.35804184491929925
0.3437665570985771,0.3437665570985771
0.34757330051743635,0.34757330051743635
0.369462075175877,0.369462075175877
0.37041376103059176,0.37041376103059176
0.369462075175877,0.369462075175877
0.369462075175877,0.369462075175877
0.369462075175877,0.369462075175877
0.3485249863721512,0.3485249863721512
0.3437665570985771,0.3437665570985771
0.3551867873551548,0.3551867873551548
0.369462075175877,0.369462075175877
0.3447182429532919,0.3447182429532919
0.3171193531665624,0.3171193531665624
0.30569912290998474,0.30569912290998474
0.3171193531665624,0.3171193531665624
0.30855418047412914,0.30855418047412914
0.2914238350892626,0.2914238350892626
0.27810023312325527,0.27810023312325527
0.2914238350892626,0.2914238350892626
0.2961822643628366,0.2961822643628366
0.2914238350892626,0.2914238350892626
0.27905191897797005,0.27905191897797005
0.2914238350892626,0.2914238350892626
0.3009406936364107,0.3009406936364107
0.2914238350892626,0.2914238350892626
0.2524047150459554,0.2524047150459554
0.2390811130799481,0.2390811130799481
0.2514530291912406,0.2514530291912406
0.26572831701196276,0.26572831701196276
0.24669459991766654,0.24669459991766654
0.2390811130799481,0.2390811130799481
0.25811483017424425,0.25811483017424425
0.2914238350892626,0.2914238350892626
0.29332720679869223,0.29332720679869223
0.2914238350892626,0.2914238350892626
0.2999890077816959,0.2999890077816959
0.3171193531665624,0.3171193531665624
0.3104575521835588,0.3104575521835588
0.3171193531665624,0.3171193531665624
0.3628002741928733,0.3628002741928733
0.44750031526249134,0.44750031526249134
0.49984303727180585,0.49984303727180585
0.49889135141709107,0.49889135141709107
0.44750031526249134,0.44750031526249134
0.39515759325317684,0.39515759325317684
0.35709015906458447,0.35709015906458447
0.3437665570985771,0.3437665570985771
0.3237811541495661,0.3237811541495661
0.2914238350892626,0.2914238350892626
0.2324193120969444,0.2324193120969444
0.18769007692534836,0.18769007692534836
0.16580130226690776,0.16580130226690776
0.18769007692534836,0.18769007692534836
0.21624065256679265,0.21624065256679265
0.2390811130799481,0.2390811130799481
0.2219507676950815,0.2219507676950815
0.18769007692534836,0.18769007692534836
0.14581589931789676,0.14581589931789676
0.13534735491603384,0.13534735491603384
0.13820241248017828,0.13820241248017828
0.13534735491603384,0.13534735491603384
0.06587428752185276,0.06587428752185276
-0.09876736534380927,-0.09876736534380927
-0.374756263211104,-0.374756263211104
-0.6954743962499947,-0.6954743962499947
-0.9410093467664156,-0.9410093467664156
-0.903893598432538,-0.903893598432538
-0.439470901331711,-0.439470901331711
0.42085311133047665,0.42085311133047665
1.3554086206604194,1.3554086206604194
1.9806662272080493,1.9806662272080493
2.1186606761416966,2.1186606761416966
1.9806662272080493,1.9806662272080493
1.8854976417365683,1.8854976417365683
1.9806662272080493,1.9806662272080493
2.088206728790823,2.088206728790823
1.9806662272080493,1.9806662272080493
1.5866682833561183,1.5866682833561183
1.0708545501006914,1.0708545501006914
0.6111902822734385,0.6111902822734385
0.2914238350892626,0.2914238350892626
0.06587428752185276,0.06587428752185276
-0.09876736534380927,-0.09876736534380927
-0.21867978303787525,-0.21867978303787525
-0.28053936359433784,-0.28053936359433784
-0.3128966826546414,-0.3128966826546414
-0.33193039974893757,-0.33193039974893757
-0.3452540017149449,-0.3452540017149449
-0.33193039974893757,-0.33193039974893757
-0.3205101694923599,-0.3205101694923599
-0.33193039974893757,-0.33193039974893757
-0.3728528915016744,-0.3728528915016744
-0.3842731217582521,-0.3842731217582521
-0.3766596349205336,-0.3766596349205336
-0.3842731217582521,-0.3842731217582521
-0.4356641579128518,-0.4356641579128518
-0.4623113618448665,-0.4623113618448665
-0.4413742730411407,-0.4413742730411407
-0.40996863983555193,-0.40996863983555193
-0.4470843881694295,-0.4470843881694295
-0.5137023979994662,-0.5137023979994662
-0.5470114029144845,-0.5470114029144845
-0.5137023979994662,-0.5137023979994662
-0.47373159210144417,-0.47373159210144417
-0.4623113618448665,-0.4623113618448665
-0.499427110178744,-0.499427110178744
-0.5660451200087807,-0.5660451200087807
-0.6459867318048247,-0.6459867318048247
-0.6954743962499947,-0.6954743962499947
-0.7164114850537205,-0.7164114850537205
-0.7221216001820094,-0.7221216001820094
-0.7478171182593093,-0.7478171182593093
-0.7735126363366092,-0.7735126363366092
-0.8001598402686239,-0.8001598402686239
-0.8258553583459237,-0.8258553583459237
-0.8772463945005233,-0.8772463945005233
-0.9295891165098379,-0.9295891165098379
-0.963849807279571,-0.963849807279571
-0.9562363204418526,-0.9562363204418526
-0.934347545783412,-0.934347545783412
-0.903893598432538,-0.903893598432538
-0.8753430227910938,-0.8753430227910938
-0.8258553583459237,-0.8258553583459237
-0.7725609504818943,-0.7725609504818943
-0.7221216001820094,-0.7221216001820094
-0.689764281121706,-0.689764281121706
-0.644083360095395,-0.644083360095395
-0.5793687219747881,-0.5793687219747881
-0.48800687992216635,-0.48800687992216635
-0.3918866085959706,-0.3918866085959706
-0.28053936359433784,-0.28053936359433784
-0.17109549030213478,-0.17109549030213478
-0.0721201614117946,-0.0721201614117946
-0.004550465727043137,-0.004550465727043137
0.05730911482941948,0.05730911482941948
0.11345858025759323,0.11345858025759323
0.1610428729933337,0.1610428729933337
0.18388333350648914,0.18388333350648914
0.21338559500264823,0.21338559500264823
0.2524047150459554,0.2524047150459554
0.2914238350892626,0.2914238350892626
0.30379575120055513,0.30379575120055513
0.3171193531665624,0.3171193531665624
0.33900812782500306,0.33900812782500306
0.369462075175877,0.369462075175877
0.3723171327400214,0.3723171327400214
0.369462075175877,0.369462075175877
0.3637519600475881,0.3637519600475881
0.369462075175877,0.369462075175877
0.3628002741928733,0.3628002741928733
0.369462075175877,0.369462075175877
0.3799306195777399,0.3799306195777399
0.39515759325317684,0.39515759325317684
0.3827856771418843,0.3827856771418843
0.369462075175877,0.369462075175877
0.35994521662872886,0.35994521662872886
0.369462075175877,0.369462075175877
0.36660701761173253,0.36660701761173253
0.369462075175877,0.369462075175877
0.38659242056074355,0.38659242056074355
0.4731958333397912,0.4731958333397912
0.6397408579148829,0.6397408579148829
0.8890825518501629,0.8890825518501629
1.1355691882212986,1.1355691882212986
1.3049692703605347,1.3049692703605347
1.3439883904038419,1.3439883904038419
1.3306647884378344,1.3306647884378344
1.3544569348057047,1.3544569348057047
1.4867412686110633,1.4867412686110633
1.6761267536993103,1.6761267536993103
1.8502852651121204,1.8502852651121204
1.9445021647288865,1.9445021647288865
1.9806662272080493,1.9806662272080493
1.982569598917479,1.982569598917479
1.9806662272080493,1.9806662272080493
1.9721010545156161,1.9721010545156161
1.9806662272080493,1.9806662272080493
1.986376342336338,1.986376342336338
1.9806662272080493,1.9806662272080493
1.9644875676778975,1.9644875676778975
1.9806662272080493,1.9806662272080493
1.9996999443023455,1.9996999443023455
1.9806662272080493,1.9806662272080493
1.9397437354553124,1.9397437354553124
1.9806662272080493,1.9806662272080493
2.0606078390040934,2.0606078390040934
1.9806662272080493,1.9806662272080493
1.5657311945523924,1.5657311945523924
0.9147780699274628,0.9147780699274628
0.23717774137051845,0.23717774137051845
-0.33193039974893757,-0.33193039974893757
-0.7887396100120461,-0.7887396100120461
-1.1113611147603666,-1.1113611147603666
-1.308360086686332,-1.308360086686332
-1.423514075106824,-1.423514075106824
-1.528199519125453,-1.528199519125453
-1.6052860733573526,-1.6052860733573526
-1.6414501358365154,-1.6414501358365154
-1.657628795366667,-1.657628795366667
-1.7052130881024077,-1.7052130881024077
-1.7613625535305812,-1.7613625535305812
-1.8051401028474625,-1.8051401028474625
-1.8394007936171957,-1.8394007936171957
-1.8936468873359398,-1.8936468873359398
-1.9431345517811098,-1.9431345517811098
-1.9812019859697023,-1.9812019859697023
-2.0211727918677242,-2.0211727918677242
-2.0954042885354793,-2.0954042885354793
-2.177249272040953,-2.177249272040953
-2.2467223394351343,-2.2467223394351343
-2.306678548282167,-2.306678548282167
-2.3894752176423557,-2.3894752176423557
-2.488450546532696,-2.488450546532696
-2.5845708178588915,-2.5845708178588915
-2.670222544783224,-2.670222544783224
-2.7749079888018535,-2.7749079888018535
-2.9043372650430674,-2.9043372650430674
-3.0375732847031407,-3.0375732847031407
-3.1384519853029107,-3.1384519853029107
-3.2231520263725284,-3.2231520263725284
-3.320223983553439,-3.320223983553439
-3.430619542700357,-3.430619542700357
-3.501995981803968,-3.501995981803968
-3.5314982433001267,-3.5314982433001267
-3.5543387038132823,-3.5543387038132823
-3.5971645672754486,-3.5971645672754486
-3.605729739967882,-3.605729739967882
-3.549580274539708,-3.549580274539708
-3.4496532597946534,-3.4496532597946534
-3.3573397318873166,-3.3573397318873166
-3.2421857434668246,-3.2421857434668246
-3.0784957764558776,-3.0784957764558776
-2.8786417469657675,-2.8786417469657675
-2.6806910891850873,-2.6806910891850873
-2.462755028455396,-2.462755028455396
-2.2115099628106862,-2.2115099628106862
-1.9431345517811098,-1.9431345517811098
-1.6890344285722558,-1.6890344285722558
-1.423514075106824,-1.423514075106824
-1.14371843382067,-1.14371843382067
-0.8781980803552382,-0.8781980803552382
-0.6631170771896913,-0.6631170771896913
-0.4623113618448665,-0.4623113618448665
-0.250085416243464,-0.250085416243464
-0.04642464333449475,-0.04642464333449475
0.09537654901801185,0.09537654901801185
0.18769007692534836,0.18769007692534836
0.2714384321402516,0.2714384321402516
0.369462075175877,0.369462075175877
0.44940368697192096,0.44940368697192096
0.49889135141709107,0.49889135141709107
0.5236351836396761,0.5236351836396761
0.5512340734264055,0.5512340734264055
0.5797846490678499,0.5797846490678499
0.6035767954357201,0.6035767954357201
0.6054801671451497,0.6054801671451497
0.6035767954357201,0.6035767954357201
0.598818366162146,0.598818366162146
0.6035767954357201,0.6035767954357201
0.6016734237262905,0.6016734237262905
0.6035767954357201,0.6035767954357201
0.6007217378715757,0.6007217378715757
0.6035767954357201,0.6035767954357201
0.598818366162146,0.598818366162146
0.6035767954357201,0.6035767954357201
0.6026251095810052,0.6026251095810052
0.6035767954357201,0.6035767954357201
0.594059936888572,0.594059936888572
0.6035767954357201,0.6035767954357201
0.6102385964187238,0.6102385964187238
0.6035767954357201,0.6035767954357201
0.5750262197942758,0.5750262197942758
0.5769295915037054,0.5769295915037054
0.5978666803074312,0.5978666803074312
0.6035767954357201,0.6035767954357201
0.5645576753924129,0.5645576753924129
0.5512340734264055,0.5512340734264055
0.5759779056489907,0.5759779056489907
0.6035767954357201,0.6035767954357201
0.5750262197942758,0.5750262197942758
0.5512340734264055,0.5512340734264055
0.5655093612471277,0.5655093612471277
0.6035767954357201,0.6035767954357201
0.5959633085980016,0.5959633085980016
0.5769295915037054,0.5769295915037054
0.5769295915037054,0.5769295915037054
0.6035767954357201,0.6035767954357201
0.6064318529998645,0.6064318529998645
0.6035767954357201,0.6035767954357201
0.5997700520168608,0.5997700520168608
0.6035767954357201,0.6035767954357201
0.5845430783414239,0.5845430783414239
0.5769295915037054,0.5769295915037054
0.5845430783414239,0.5845430783414239
0.6035767954357201,0.6035767954357201
0.5931082510338572,0.5931082510338572
0.5769295915037054,0.5769295915037054
0.5674127329565574,0.5674127329565574
0.5769295915037054,0.5769295915037054
0.5693161046659869,0.5693161046659869
0.5512340734264055,0.5512340734264055
0.5331520421868242,0.5331520421868242
0.5512340734264055,0.5512340734264055
0.5721711622301314,0.5721711622301314
0.5769295915037054,0.5769295915037054
0.55408913099055,0.55408913099055
0.5512340734264055,0.5512340734264055
0.5655093612471277,0.5655093612471277
0.5769295915037054,0.5769295915037054
0.549330701716976,0.549330701716976
0.5255385553491058,0.5255385553491058
0.5264902412038205,0.5264902412038205
0.5512340734264055,0.5512340734264055
0.5464756441528316,0.5464756441528316
0.5255385553491058,0.5255385553491058
0.5007947231265206,0.5007947231265206
0.49889135141709107,0.49889135141709107
0.4960362938529466,0.4960362938529466
0.49889135141709107,0.49889135141709107
0.4960362938529466,0.4960362938529466
0.49889135141709107,0.49889135141709107
0.49318123628880217,0.49318123628880217
0.49889135141709107,0.49889135141709107
0.5007947231265206,0.5007947231265206
0.49889135141709107,0.49889135141709107
0.4855677494510837,0.4855677494510837
0.49889135141709107,0.49889135141709107
0.5198284402208169,0.5198284402208169
0.5255385553491058,0.5255385553491058
0.49889135141709107,0.49889135141709107
0.49889135141709107,0.49889135141709107
0.5264902412038205,0.5264902412038205
0.5512340734264055,0.5512340734264055
0.5455239582981167,0.5455239582981167
0.5769295915037054,0.5769295915037054
0.6511610881714606,0.6511610881714606
0.7073105535996344,0.7073105535996344
0.6711464911204715,0.6711464911204715
0.6035767954357201,0.6035767954357201
0.5626543036829833,0.5626543036829833
0.5512340734264055,0.5512340734264055
0.514118325092528,0.514118325092528
0.4731958333397912,0.4731958333397912
0.4417902001342025,0.4417902001342025
0.42085311133047665,0.42085311133047665
0.3732688185947362,0.3732688185947362
0.3437665570985771,0.3437665570985771
0.34566992880800673,0.34566992880800673
0.369462075175877,0.369462075175877
0.34947667222686596,0.34947667222686596
0.3171193531665624,0.3171193531665624
0.2999890077816959,0.2999890077816959
0.3171193531665624,0.3171193531665624
0.3171193531665624,0.3171193531665624
0.2914238350892626,0.2914238350892626
0.2105305374385038,0.2105305374385038
0.05730911482941948,0.05730911482941948
-0.20725955278129754,-0.20725955278129754
-0.5403496019314808,-0.5403496019314808
-0.8420340178760755,-0.8420340178760755
-0.903893598432538,-0.903893598432538
-0.5298810575296179,-0.5298810575296179
0.3171193531665624,0.3171193531665624
1.307824327924679,1.307824327924679
1.9806662272080493,1.9806662272080493
2.1205640478511265,2.1205640478511265
1.9806662272080493,1.9806662272080493
1.8997729295572905,1.8997729295572905
1.9806662272080493,1.9806662272080493
2.0510909804569453,2.0510909804569453
1.9806662272080493,1.9806662272080493
1.732276219127484,1.732276219127484
1.3563603065151344,1.3563603065151344
0.9052612113803147,0.9052612113803147
0.49889135141709107,0.49889135141709107
0.21528896671207784,0.21528896671207784
0.05730911482941948,0.05730911482941948
-0.06355498871936133,-0.06355498871936133
-0.17585391957570884,-0.17585391957570884
-0.26150564650004166,-0.26150564650004166
-0.28053936359433784,-0.28053936359433784
-0.2710225050471898,-0.2710225050471898
-0.28053936359433784,-0.28053936359433784
-0.31955848363764505,-0.31955848363764505
-0.33193039974893757,-0.33193039974893757
-0.3167034260735006,-0.3167034260735006
-0.3062348816716377,-0.3062348816716377
-0.3395438865866561,-0.3395438865866561
-0.35857760368095226,-0.35857760368095226
-0.3471573734243745,-0.3471573734243745
-0.33193039974893757,-0.33193039974893757
-0.3623843470998115,-0.3623843470998115
-0.3842731217582521,-0.3842731217582521
-0.374756263211104,-0.374756263211104
-0.35857760368095226,-0.35857760368095226
-0.3852248076129669,-0.3852248076129669
-0.40996863983555193,-0.40996863983555193
-0.40996863983555193,-0.40996863983555193
-0.40996863983555193,-0.40996863983555193
-0.46135967599015165,-0.46135967599015165
-0.5137023979994662,-0.5137023979994662
-0.5270259999654735,-0.5270259999654735
-0.5137023979994662,-0.5137023979994662
-0.5413012877861957,-0.5413012877861957
-0.5917406380860806,-0.5917406380860806
-0.6326631298388173,-0.6326631298388173
-0.644083360095395,-0.644083360095395
-0.6650204488991209,-0.6650204488991209
-0.6954743962499947,-0.6954743962499947
-0.7297350870197279,-0.7297350870197279
-0.7478171182593093,-0.7478171182593093
-0.7735126363366092,-0.7735126363366092
-0.8001598402686239,-0.8001598402686239
-0.8268070442006384,-0.8268070442006384
-0.8258553583459237,-0.8258553583459237
-0.8163384997987756,-0.8163384997987756
-0.8001598402686239,-0.8001598402686239
-0.7877879241573313,-0.7877879241573313
-0.7478171182593093,-0.7478171182593093
-0.69452271039528,-0.69452271039528
-0.644083360095395,-0.644083360095395
-0.6221945854369545,-0.6221945854369545
-0.5917406380860806,-0.5917406380860806
-0.5384462302220512,-0.5384462302220512
-0.4623113618448665,-0.4623113618448665
-0.39854840957897425,-0.39854840957897425
-0.33193039974893757,-0.33193039974893757
-0.2605539606453269,-0.2605539606453269
-0.17585391957570884,-0.17585391957570884
-0.1016224229079537,-0.1016224229079537
-0.0207291252571949,-0.0207291252571949
0.05255068555584543,0.05255068555584543
0.10965183683873399,0.10965183683873399
0.1401057841896079,0.1401057841896079
0.18769007692534836,0.18769007692534836
0.24669459991766654,0.24669459991766654
0.2914238350892626,0.2914238350892626
0.28952046337983295,0.28952046337983295
0.2914238350892626,0.2914238350892626
0.3218777824401365,0.3218777824401365
0.369462075175877,0.369462075175877
0.3799306195777399,0.3799306195777399
0.369462075175877,0.369462075175877
0.3589935307740141,0.3589935307740141
0.369462075175877,0.369462075175877
0.37041376103059176,0.37041376103059176
0.369462075175877,0.369462075175877
0.3637519600475881,0.3637519600475881
0.369462075175877,0.369462075175877
0.36660701761173253,0.36660701761173253
0.369462075175877,0.369462075175877
0.36660701761173253,0.36660701761173253
0.369462075175877,0.369462075175877
0.3637519600475881,0.3637519600475881
0.369462075175877,0.369462075175877
0.37041376103059176,0.37041376103059176
0.369462075175877,0.369462075175877
0.34947667222686596,0.34947667222686596
0.3437665570985771,0.3437665570985771
0.34947667222686596,0.34947667222686596
0.369462075175877,0.369462075175877
0.3647036459023029,0.3647036459023029
0.3437665570985771,0.3437665570985771
0.31616766731184764,0.31616766731184764
0.3171193531665624,0.3171193531665624
0.3218777824401365,0.3218777824401365
0.3171193531665624,0.3171193531665624
0.2923755209439774,0.2923755209439774
0.2914238350892626,0.2914238350892626
0.30569912290998474,0.30569912290998474
0.3171193531665624,0.3171193531665624
0.29808563607226624,0.29808563607226624
0.2914238350892626,0.2914238350892626
0.3018923794911255,0.3018923794911255
0.3171193531665624,0.3171193531665624
0.3009406936364107,0.3009406936364107
0.2914238350892626,0.2914238350892626
0.29903732192698107,0.29903732192698107
0.3171193531665624,0.3171193531665624
0.3123609238929884,0.3123609238929884
0.3171193531665624,0.3171193531665624
0.3399598136797179,0.3399598136797179
0.369462075175877,0.369462075175877
0.36565533175701775,0.36565533175701775
0.369462075175877,0.369462075175877
0.4122879386380434,0.4122879386380434
0.49889135141709107,0.49889135141709107
0.5550408168452649,0.5550408168452649
0.5512340734264055,0.5512340734264055
0.48747112116051333,0.48747112116051333
0.42085311133047665,0.42085311133047665
0.37612387615888065,0.37612387615888065
0.369462075175877,0.369462075175877
0.3647036459023029,0.3647036459023029
0.3437665570985771,0.3437665570985771
0.28761709167040334,0.28761709167040334
0.2390811130799481,0.2390811130799481
0.20862716572907417,0.20862716572907417
0.21338559500264823,0.21338559500264823
0.22385413940451113,0.22385413940451113
0.2390811130799481,0.2390811130799481
0.2305159403875148,0.2305159403875148
0.21338559500264823,0.21338559500264823
0.18578670521591875,0.18578670521591875
0.18769007692534836,0.18769007692534836
0.20386873645550013,0.20386873645550013
0.21338559500264823,0.21338559500264823
0.1401057841896079,0.1401057841896079
-0.04642464333449475,-0.04642464333449475
-0.3443023158602301,-0.3443023158602301
-0.6697788781726949,-0.6697788781726949
-0.9229273155268343,-0.9229273155268343
-0.9295891165098379,-0.9295891165098379
-0.5270259999654735,-0.5270259999654735
0.3171193531665624,0.3171193531665624
1.3002108410869606,1.3002108410869606
1.9806662272080493,1.9806662272080493
2.130080906398274,2.130080906398274
1.9806662272080493,1.9806662272080493
1.8864493275912833,1.8864493275912833
1.9806662272080493,1.9806662272080493
2.0758348126795303,2.0758348126795303
1.9806662272080493,1.9806662272080493
1.6418660629295772,1.6418660629295772
1.1745883082646058,1.1745883082646058
0.7063588677449195,0.7063588677449195
0.3437665570985771,0.3437665570985771
0.09442486316329704,0.09442486316329704
-0.0721201614117946,-0.0721201614117946
-0.2025011235077235,-0.2025011235077235
-0.28053936359433784,-0.28053936359433784
-0.3167034260735006,-0.3167034260735006
-0.33193039974893757,-0.33193039974893757
-0.3538191744073782,-0.3538191744073782
-0.35857760368095226,-0.35857760368095226
-0.35286748855266337,-0.35286748855266337
-0.35857760368095226,-0.35857760368095226
-0.394741666160115,-0.394741666160115
-0.40996863983555193,-0.40996863983555193
-0.40711358227140754,-0.40711358227140754
-0.40996863983555193,-0.40996863983555193
-0.44898775987885914,-0.44898775987885914
-0.4623113618448665,-0.4623113618448665
-0.4375675296222814,-0.4375675296222814
-0.40996863983555193,-0.40996863983555193
-0.434712472058137,-0.434712472058137
-0.4623113618448665,-0.4623113618448665
-0.4651664194090109,-0.4651664194090109
-0.4623113618448665,-0.4623113618448665
-0.5013304818881736,-0.5013304818881736
-0.5403496019314808,-0.5403496019314808
-0.5460597170597697,-0.5460597170597697
-0.5403496019314808,-0.5403496019314808
-0.5812720936842176,-0.5812720936842176
-0.644083360095395,-0.644083360095395
-0.6869092235575615,-0.6869092235575615
-0.6954743962499947,-0.6954743962499947
-0.7230732860367243,-0.7230732860367243
-0.7735126363366092,-0.7735126363366092
-0.8372755886025014,-0.8372755886025014
-0.8781980803552382,-0.8781980803552382
-0.9096037135608269,-0.9096037135608269
-0.9295891165098379,-0.9295891165098379
-0.9505262053135637,-0.9505262053135637
-0.9562363204418526,-0.9562363204418526
-0.9600430638607118,-0.9600430638607118
-0.9562363204418526,-0.9562363204418526
-0.9524295770229934,-0.9524295770229934
-0.9295891165098379,-0.9295891165098379
-0.8972317974495344,-0.8972317974495344
-0.8515508764232235,-0.8515508764232235
-0.8087250129610571,-0.8087250129610571
-0.7478171182593093,-0.7478171182593093
-0.6764406791556986,-0.6764406791556986
-0.5917406380860806,-0.5917406380860806
-0.5108473404353218,-0.5108473404353218
-0.40996863983555193,-0.40996863983555193
-0.3033798241074933,-0.3033798241074933
-0.2025011235077235,-0.2025011235077235
-0.12731794098525356,-0.12731794098525356
-0.04642464333449475,-0.04642464333449475
0.03732371188040848,0.03732371188040848
0.10965183683873399,0.10965183683873399
0.14676758517261157,0.14676758517261157
0.18769007692534836,0.18769007692534836
0.2400327989346629,0.2400327989346629
0.2914238350892626,0.2914238350892626
0.29808563607226624,0.29808563607226624
0.2914238350892626,0.2914238350892626
0.3018923794911255,0.3018923794911255
0.3437665570985771,0.3437665570985771
0.369462075175877,0.369462075175877
0.369462075175877,0.369462075175877
0.34757330051743635,0.34757330051743635
0.3437665570985771,0.3437665570985771
0.35138004393629557,0.35138004393629557
0.369462075175877,0.369462075175877
0.37041376103059176,0.37041376103059176
0.369462075175877,0.369462075175877
0.3637519600475881,0.3637519600475881
0.369462075175877,0.369462075175877
0.36851038932116215,0.36851038932116215
0.369462075175877,0.369462075175877
0.3637519600475881,0.3637519600475881
0.369462075175877,0.369462075175877
0.369462075175877,0.369462075175877
0.369462075175877,0.369462075175877
0.3532834156457252,0.3532834156457252
0.3437665570985771,0.3437665570985771
0.3361530702608586,0.3361530702608586
0.3437665570985771,0.3437665570985771
0.3361530702608586,0.3361530702608586
0.3171193531665624,0.3171193531665624
0.28856877752511817,0.28856877752511817
0.2914238350892626,0.2914238350892626
0.3066508087646995,0.3066508087646995
0.3171193531665624,0.3171193531665624
0.29808563607226624,0.29808563607226624
0.2914238350892626,0.2914238350892626
0.3018923794911255,0.3018923794911255
0.3171193531665624,0.3171193531665624
0.3028440653458403,0.3028440653458403
0.2914238350892626,0.2914238350892626
0.28761709167040334,0.28761709167040334
0.2914238350892626,0.2914238350892626
0.2800036048326849,0.2800036048326849
0.2914238350892626,0.2914238350892626
0.3209260965854217,0.3209260965854217
0.3437665570985771,0.3437665570985771
0.32473284000428093,0.32473284000428093
0.3171193531665624,0.3171193531665624
0.33710475611557345,0.33710475611557345
0.369462075175877,0.369462075175877
0.3818339912871695,0.3818339912871695
0.42085311133047665,0.42085311133047665
0.4855677494510837,0.4855677494510837
0.5255385553491058,0.5255385553491058
0.4836643777416541,0.4836643777416541
0.42085311133047665,0.42085311133047665
0.3856407347060287,0.3856407347060287
0.369462075175877,0.369462075175877
0.3256845258589957,0.3256845258589957
0.2914238350892626,0.2914238350892626
0.27905191897797005,0.27905191897797005
0.26572831701196276,0.26572831701196276
0.2114822232932186,0.2114822232932186
0.18769007692534836,0.18769007692534836
0.2105305374385038,0.2105305374385038
0.2390811130799481,0.2390811130799481
0.2105305374385038,0.2105305374385038
0.18769007692534836,0.18769007692534836
0.19054513448949278,0.19054513448949278
0.18769007692534836,0.18769007692534836
0.14867095688204118,0.14867095688204118
0.1610428729933337,0.1610428729933337
0.19530356376306685,0.19530356376306685
0.10965183683873399,0.10965183683873399
-0.16062694590027188,-0.16062694590027188
-0.4623113618448665,-0.4623113618448665
-0.7230732860367243,-0.7230732860367243
-0.9562363204418526,-0.9562363204418526
-0.9952554404851598,-0.9952554404851598
-0.4623113618448665,-0.4623113618448665
0.609286910564009,0.609286910564009
1.6161705448522774,1.6161705448522774
2.0206370331060715,2.0206370331060715
1.9806662272080493,1.9806662272080493
1.9245167617798755,1.9245167617798755
1.9806662272080493,1.9806662272080493
1.9987482584476306,1.9987482584476306
1.9806662272080493,1.9806662272080493
1.9435504788741718,1.9435504788741718
1.7465515069482063,1.7465515069482063
1.2507231766417906,1.2507231766417906
0.6549678315903198,0.6549678315903198
0.2419361706440925,0.2419361706440925
0.05730911482941948,0.05730911482941948
-0.07973364824951308,-0.07973364824951308
-0.22819664158502334,-0.22819664158502334
-0.3262202846206487,-0.3262202846206487
-0.33193039974893757,-0.33193039974893757
-0.32812365633007834,-0.32812365633007834
-0.35857760368095226,-0.35857760368095226
-0.4033068388525483,-0.4033068388525483
-0.40996863983555193,-0.40996863983555193
-0.4023551529978335,-0.4023551529978335
-0.40996863983555193,-0.40996863983555193
-0.45089113158828875,-0.45089113158828875
-0.4623113618448665,-0.4623113618448665
-0.43851921547699624,-0.43851921547699624
-0.40996863983555193,-0.40996863983555193
-0.43185741449399256,-0.43185741449399256
-0.4623113618448665,-0.4623113618448665
-0.47182822039201455,-0.47182822039201455
-0.4623113618448665,-0.4623113618448665
-0.4832484506485923,-0.4832484506485923
-0.5137023979994662,-0.5137023979994662
-0.5355911726579068,-0.5355911726579068
-0.5403496019314808,-0.5403496019314808
-0.5631900624446363,-0.5631900624446363
-0.5917406380860806,-0.5917406380860806
-0.6202912137275248,-0.6202912137275248
-0.644083360095395,-0.644083360095395
-0.6850058518481319,-0.6850058518481319
-0.7221216001820094,-0.7221216001820094
-0.7525755475328834,-0.7525755475328834
-0.7735126363366092,-0.7735126363366092
-0.8115800705252015,-0.8115800705252015
-0.8515508764232235,-0.8515508764232235
-0.8943767398853899,-0.8943767398853899
-0.9295891165098379,-0.9295891165098379
-0.9752700375361487,-0.9752700375361487
-1.0076273565964522,-1.0076273565964522
-1.0219026444171744,-1.0219026444171744
-1.0076273565964522,-1.0076273565964522
-0.9952554404851598,-0.9952554404851598
-0.9819318385191524,-0.9819318385191524
-0.9695599224078599,-0.9695599224078599
-0.9295891165098379,-0.9295891165098379
-0.8801014520646678,-0.8801014520646678
-0.8258553583459237,-0.8258553583459237
-0.7830294948837573,-0.7830294948837573
-0.7221216001820094,-0.7221216001820094
-0.6402766166765358,-0.6402766166765358
-0.5403496019314808,-0.5403496019314808
-0.449939445733574,-0.449939445733574
-0.35857760368095226,-0.35857760368095226
-0.26911913333776016,-0.26911913333776016
-0.17585391957570884,-0.17585391957570884
-0.09876736534380927,-0.09876736534380927
-0.0207291252571949,-0.0207291252571949
0.04874394213698619,0.04874394213698619
0.10965183683873399,0.10965183683873399
0.14676758517261157,0.14676758517261157
0.18769007692534836,0.18769007692534836
0.22861256867808516,0.22861256867808516
0.26572831701196276,0.26572831701196276
0.27714854726854043,0.27714854726854043
0.2914238350892626,0.2914238350892626
0.30569912290998474,0.30569912290998474
0.3171193531665624,0.3171193531665624
0.30950586632884397,0.30950586632884397
0.3171193531665624,0.3171193531665624
0.334249698551429,0.334249698551429
0.3437665570985771,0.3437665570985771
0.3209260965854217,0.3209260965854217
0.3171193531665624,0.3171193531665624
0.3418631853891475,0.3418631853891475
0.369462075175877,0.369462075175877
0.34947667222686596,0.34947667222686596
0.3171193531665624,0.3171193531665624
0.3018923794911255,0.3018923794911255
0.3171193531665624,0.3171193531665624
0.3275878975684254,0.3275878975684254
0.3437665570985771,0.3437665570985771
0.3589935307740141,0.3589935307740141
0.369462075175877,0.369462075175877
0.3447182429532919,0.3447182429532919
0.3171193531665624,0.3171193531665624
0.3047474370552699,0.3047474370552699
0.3171193531665624,0.3171193531665624
0.3114092380382736,0.3114092380382736
0.2914238350892626,0.2914238350892626
0.27239011799496643,0.27239011799496643
0.2914238350892626,0.2914238350892626
0.3152159814571328,0.3152159814571328
0.3171193531665624,0.3171193531665624
0.2819069765421145,0.2819069765421145
0.26572831701196276,0.26572831701196276
0.2733418038496812,0.2733418038496812
0.2914238350892626,0.2914238350892626
0.27714854726854043,0.27714854726854043
0.26572831701196276,0.26572831701196276
0.27048674628553676,0.27048674628553676
0.2914238350892626,0.2914238350892626
0.2914238350892626,0.2914238350892626
0.2914238350892626,0.2914238350892626
0.2914238350892626,0.2914238350892626
0.2914238350892626,0.2914238350892626
0.27714854726854043,0.27714854726854043
0.2914238350892626,0.2914238350892626
0.329491269277855,0.329491269277855
0.369462075175877,0.369462075175877
0.3837373629965991,0.3837373629965991
0.42085311133047665,0.42085311133047665
0.4760508909039356,0.4760508909039356
0.49889135141709107,0.49889135141709107
0.44083851427948767,0.44083851427948767
0.369462075175877,0.369462075175877
0.34091149953443267,0.34091149953443267
0.3437665570985771,0.3437665570985771
0.3123609238929884,0.3123609238929884
0.26572831701196276,0.26572831701196276
0.22670919696865555,0.22670919696865555
0.21338559500264823,0.21338559500264823
0.1914968203442076,0.1914968203442076
0.18769007692534836,0.18769007692534836
0.19815862132721127,0.19815862132721127
0.21338559500264823,0.21338559500264823
0.19625524961778165,0.19625524961778165
0.18769007692534836,0.18769007692534836
0.18769007692534836,0.18769007692534836
0.18769007692534836,0.18769007692534836
0.15723612957447447,0.15723612957447447
0.13534735491603384,0.13534735491603384
0.09156980559915262,0.09156980559915262
-0.04642464333449475,-0.04642464333449475
-0.34049557244137085,-0.34049557244137085
-0.6954743962499947,-0.6954743962499947
-0.9609947497154266,-0.9609947497154266
-0.9562363204418526,-0.9562363204418526
-0.5479630887691993,-0.5479630887691993
0.2914238350892626,0.2914238350892626
1.2811771239926644,1.2811771239926644
1.9806662272080493,1.9806662272080493
2.1395977649454223,2.1395977649454223
1.9806662272080493,1.9806662272080493
1.8778841548988499,1.8778841548988499
1.9806662272080493,1.9806662272080493
2.0853516712266784,2.0853516712266784
1.9806662272080493,1.9806662272080493
1.6199772882711365,1.6199772882711365
1.1488927901873058,1.1488927901873058
0.6968420091977714,0.6968420091977714
0.3437665570985771,0.3437665570985771
0.0801495753425749,0.0801495753425749
-0.09876736534380927,-0.09876736534380927
-0.21772809718316044,-0.21772809718316044
-0.28053936359433784,-0.28053936359433784
-0.314800054364071,-0.314800054364071
-0.33193039974893757,-0.33193039974893757
-0.35667423197152265,-0.35667423197152265
-0.3842731217582521,-0.3842731217582521
-0.41092032569026676,-0.41092032569026676
-0.40996863983555193,-0.40996863983555193
-0.4042585247072631,-0.4042585247072631
-0.40996863983555193,-0.40996863983555193
-0.4470843881694295,-0.4470843881694295
-0.4623113618448665,-0.4623113618448665
-0.4518428174430036,-0.4518428174430036
-0.4356641579128518,-0.4356641579128518
-0.4604079901354369,-0.4604079901354369
-0.48800687992216635,-0.48800687992216635
-0.49847542432402925,-0.49847542432402925
-0.48800687992216635,-0.48800687992216635
-0.4975237384693144,-0.4975237384693144
-0.5137023979994662,-0.5137023979994662
-0.5308327433843327,-0.5308327433843327
-0.5403496019314808,-0.5403496019314808
-0.5660451200087807,-0.5660451200087807
-0.5917406380860806,-0.5917406380860806
-0.61933952787281,-0.61933952787281
-0.644083360095395,-0.644083360095395
-0.6850058518481319,-0.6850058518481319
-0.7221216001820094,-0.7221216001820094
-0.7601890343706018,-0.7601890343706018
-0.8001598402686239,-0.8001598402686239
-0.8582126774062272,-0.8582126774062272
-0.903893598432538,-0.903893598432538
-0.9362509174928415,-0.9362509174928415
-0.9562363204418526,-0.9562363204418526
-0.9885936395021561,-0.9885936395021561
-1.0076273565964522,-1.0076273565964522
-1.0066756707417375,-1.0066756707417375
-0.9819318385191524,-0.9819318385191524
-0.9676565506984303,-0.9676565506984303
-0.9562363204418526,-0.9562363204418526
-0.934347545783412,-0.934347545783412
-0.8781980803552382,-0.8781980803552382
-0.8125317563799164,-0.8125317563799164
-0.7478171182593093,-0.7478171182593093
-0.69452271039528,-0.69452271039528
-0.6183878420180953,-0.6183878420180953
-0.5289293716749032,-0.5289293716749032
-0.4356641579128518,-0.4356641579128518
-0.3557225461168078,-0.3557225461168078
-0.2538921596623232,-0.2538921596623232
-0.1425449146606905,-0.1425449146606905
-0.04642464333449475,-0.04642464333449475
0.005918078674819767,0.005918078674819767
0.05730911482941948,0.05730911482941948
0.12297543880474132,0.12297543880474132
0.18769007692534836,0.18769007692534836
0.21528896671207784,0.21528896671207784
0.2390811130799481,0.2390811130799481
0.26858337457610715,0.26858337457610715
0.2914238350892626,0.2914238350892626
0.28476203410625894,0.28476203410625894
0.2914238350892626,0.2914238350892626
0.31997441073070687,0.31997441073070687
0.3437665570985771,0.3437665570985771
0.3256845258589957,0.3256845258589957
0.3171193531665624,0.3171193531665624
0.3399598136797179,0.3399598136797179
0.369462075175877,0.369462075175877
0.35709015906458447,0.35709015906458447
0.3437665570985771,0.3437665570985771
0.35138004393629557,0.35138004393629557
0.369462075175877,0.369462075175877
0.3532834156457252,0.3532834156457252
0.3437665570985771,0.3437665570985771
0.35423510150044,0.35423510150044
0.369462075175877,0.369462075175877
0.3428148712438623,0.3428148712438623
0.3171193531665624,0.3171193531665624
0.31997441073070687,0.31997441073070687
0.3437665570985771,0.3437665570985771
0.33520138440614383,0.33520138440614383
0.3171193531665624,0.3171193531665624
0.30855418047412914,0.30855418047412914
0.3171193531665624,0.3171193531665624
0.30569912290998474,0.30569912290998474
0.2914238350892626,0.2914238350892626
0.2819069765421145,0.2819069765421145
0.2914238350892626,0.2914238350892626
0.2904721492345478,0.2904721492345478
0.2914238350892626,0.2914238350892626
0.28761709167040334,0.28761709167040334
0.2914238350892626,0.2914238350892626
0.27905191897797005,0.27905191897797005
0.26572831701196276,0.26572831701196276
0.2524047150459554,0.2524047150459554
0.26572831701196276,0.26572831701196276
0.2800036048326849,0.2800036048326849
0.2914238350892626,0.2914238350892626
0.28476203410625894,0.28476203410625894
0.2914238350892626,0.2914238350892626
0.3028440653458403,0.3028440653458403
0.3171193531665624,0.3171193531665624
0.3114092380382736,0.3114092380382736
0.3171193531665624,0.3171193531665624
0.3428148712438623,0.3428148712438623
0.39515759325317684,0.39515759325317684
0.4465486294077765,0.4465486294077765
0.49889135141709107,0.49889135141709107
0.5217318119302464,0.5217318119302464
0.49889135141709107,0.49889135141709107
0.4275149123134803,0.4275149123134803
0.369462075175877,0.369462075175877
0.34662161466272157,0.34662161466272157
0.3437665570985771,0.3437665570985771
0.30950586632884397,0.30950586632884397
0.26572831701196276,0.26572831701196276
0.22480582525922593,0.22480582525922593
0.21338559500264823,0.21338559500264823
0.20482042231021494,0.20482042231021494
0.21338559500264823,0.21338559500264823
0.22290245354979632,0.22290245354979632
0.2390811130799481,0.2390811130799481
0.2209990818403667,0.2209990818403667
0.18769007692534836,0.18769007692534836
0.1705597315404818,0.1705597315404818
0.21338559500264823,0.21338559500264823
0.2295642545328,0.2295642545328
0.13534735491603384,0.13534735491603384
-0.054038130172213227,-0.054038130172213227
-0.22819664158502334,-0.22819664158502334
-0.45089113158828875,-0.45089113158828875
-0.8258553583459237,-0.8258553583459237
-1.1760757528809735,-1.1760757528809735
-1.0076273565964522,-1.0076273565964522
-0.15682020248141265,-0.15682020248141265
0.9404735880047627,0.9404735880047627
1.6913537273747472,1.6913537273747472
1.9806662272080493,1.9806662272080493
2.016830289687212,2.016830289687212
1.9806662272080493,1.9806662272080493
1.9311785627628792,1.9311785627628792
1.9806662272080493,1.9806662272080493
2.0796415560983896,2.0796415560983896
1.9806662272080493,1.9806662272080493
1.508630043269504,1.508630043269504
0.8890825518501629,0.8890825518501629
0.42941828402290994,0.42941828402290994
0.18769007692534836,0.18769007692534836
-0.0007437223081838989,-0.0007437223081838989
-0.17585391957570884,-0.17585391957570884
-0.2824427353037675,-0.2824427353037675
-0.3062348816716377,-0.3062348816716377
-0.3271719704753635,-0.3271719704753635
-0.35857760368095226,-0.35857760368095226
-0.38046637833939284,-0.38046637833939284
-0.3842731217582521,-0.3842731217582521
-0.40045178128840386,-0.40045178128840386
-0.40996863983555193,-0.40996863983555193
-0.4128236973996964,-0.4128236973996964
-0.40996863983555193,-0.40996863983555193
-0.4290023569298481,-0.4290023569298481
-0.4356641579128518,-0.4356641579128518
-0.434712472058137,-0.434712472058137
-0.4356641579128518,-0.4356641579128518
-0.4680214769731553,-0.4680214769731553
-0.48800687992216635,-0.48800687992216635
-0.49086193748631074,-0.49086193748631074
-0.48800687992216635,-0.48800687992216635
-0.514654083854181,-0.514654083854181
-0.5403496019314808,-0.5403496019314808
-0.5555765756069178,-0.5555765756069178
-0.5660451200087807,-0.5660451200087807
-0.5964990673596546,-0.5964990673596546
-0.6183878420180953,-0.6183878420180953
-0.6269530147105284,-0.6269530147105284
-0.644083360095395,-0.644083360095395
-0.6973777679594244,-0.6973777679594244
-0.7478171182593093,-0.7478171182593093
-0.7782710656101832,-0.7782710656101832
-0.8001598402686239,-0.8001598402686239
-0.8525025622779383,-0.8525025622779383
-0.903893598432538,-0.903893598432538
-0.9381542892022712,-0.9381542892022712
-0.9562363204418526,-0.9562363204418526
-0.9895453253568709,-0.9895453253568709
-1.0076273565964522,-1.0076273565964522
-0.9952554404851598,-0.9952554404851598
-0.9562363204418526,-0.9562363204418526
-0.9381542892022712,-0.9381542892022712
-0.9295891165098379,-0.9295891165098379
-0.9105553994155418,-0.9105553994155418
-0.8515508764232235,-0.8515508764232235
-0.7849328665931868,-0.7849328665931868
-0.7221216001820094,-0.7221216001820094
-0.6688271923179802,-0.6688271923179802
-0.5917406380860806,-0.5917406380860806
-0.4956203667598848,-0.4956203667598848
-0.3842731217582521,-0.3842731217582521
-0.2814910494490527,-0.2814910494490527
-0.17585391957570884,-0.17585391957570884
-0.08734713508723156,-0.08734713508723156
-0.0207291252571949,-0.0207291252571949
0.022096738204971527,0.022096738204971527
0.08395631876143414,0.08395631876143414
0.15628444371975966,0.15628444371975966
0.21338559500264823,0.21338559500264823
0.22480582525922593,0.22480582525922593
0.2390811130799481,0.2390811130799481
0.27619686141382566,0.27619686141382566
0.3171193531665624,0.3171193531665624
0.31997441073070687,0.31997441073070687
0.3171193531665624,0.3171193531665624
0.334249698551429,0.334249698551429
0.369462075175877,0.369462075175877
0.37707556201359543,0.37707556201359543
0.369462075175877,0.369462075175877
0.3608969024834437,0.3608969024834437
0.369462075175877,0.369462075175877
0.369462075175877,0.369462075175877
0.369462075175877,0.369462075175877
0.36565533175701775,0.36565533175701775
0.369462075175877,0.369462075175877
0.3647036459023029,0.3647036459023029
0.369462075175877,0.369462075175877
0.369462075175877,0.369462075175877
0.369462075175877,0.369462075175877
0.35138004393629557,0.35138004393629557
0.3437665570985771,0.3437665570985771
0.34757330051743635,0.34757330051743635
0.369462075175877,0.369462075175877
0.36660701761173253,0.36660701761173253
0.3437665570985771,0.3437665570985771
0.3114092380382736,0.3114092380382736
0.3171193531665624,0.3171193531665624
0.33710475611557345,0.33710475611557345
0.3437665570985771,0.3437665570985771
0.3114092380382736,0.3114092380382736
0.2914238350892626,0.2914238350892626
0.2961822643628366,0.2961822643628366
0.3171193531665624,0.3171193531665624
0.30855418047412914,0.30855418047412914
0.2914238350892626,0.2914238350892626
0.2809552906873997,0.2809552906873997
0.2914238350892626,0.2914238350892626
0.2914238350892626,0.2914238350892626
0.2914238350892626,0.2914238350892626
0.28761709167040334,0.28761709167040334
0.2914238350892626,0.2914238350892626
0.28476203410625894,0.28476203410625894
0.2914238350892626,0.2914238350892626
0.3018923794911255,0.3018923794911255
0.3171193531665624,0.3171193531665624
0.3133126097477032,0.3133126097477032
0.3171193531665624,0.3171193531665624
0.3323463268419994,0.3323463268419994
0.369462075175877,0.369462075175877
0.4122879386380434,0.4122879386380434
0.4731958333397912,0.4731958333397912
0.5122149533830984,0.5122149533830984
0.49889135141709107,0.49889135141709107
0.4256115406040507,0.4256115406040507
0.369462075175877,0.369462075175877
0.3589935307740141,0.3589935307740141
0.369462075175877,0.369462075175877
0.3399598136797179,0.3399598136797179
0.2914238350892626,0.2914238350892626
0.24288785649880731,0.24288785649880731
0.21338559500264823,0.21338559500264823
0.1819799617970595,0.1819799617970595
0.18769007692534836,0.18769007692534836
0.21624065256679265,0.21624065256679265
0.2390811130799481,0.2390811130799481
0.2114822232932186,0.2114822232932186
0.18769007692534836,0.18769007692534836
0.18388333350648914,0.18388333350648914
0.18769007692534836,0.18769007692534836
0.15913950128390408,0.15913950128390408
0.13534735491603384,0.13534735491603384
0.09156980559915262,0.09156980559915262
-0.04642464333449475,-0.04642464333449475
-0.334785457313082,-0.334785457313082
-0.6697788781726949,-0.6697788781726949
-0.9172172003985454,-0.9172172003985454
-0.9295891165098379,-0.9295891165098379
-0.5708035492823548,-0.5708035492823548
0.2390811130799481,0.2390811130799481
1.2478681190776462,1.2478681190776462
1.9806662272080493,1.9806662272080493
2.147211251783141,2.147211251783141
1.9806662272080493,1.9806662272080493
1.8788358407535648,1.8788358407535648
1.9806662272080493,1.9806662272080493
2.0767864985342452,2.0767864985342452
1.9806662272080493,1.9806662272080493
1.6608997800238734,1.6608997800238734
1.2269310302739203,1.2269310302739203
0.7644117048825229,0.7644117048825229
0.369462075175877,0.369462075175877
0.08681137632557857,0.08681137632557857
-0.0721201614117946,-0.0721201614117946
-0.1729988620115644,-0.1729988620115644
-0.2538921596623232,-0.2538921596623232
-0.32812365633007834,-0.32812365633007834
-0.35857760368095226,-0.35857760368095226
-0.3576259178262374,-0.3576259178262374
-0.35857760368095226,-0.35857760368095226
-0.38807986517711135,-0.38807986517711135
-0.40996863983555193,-0.40996863983555193
-0.414727069109126,-0.414727069109126
-0.40996863983555193,-0.40996863983555193
-0.4309057286392778,-0.4309057286392778
-0.4356641579128518,-0.4356641579128518
-0.4232922418015593,-0.4232922418015593
-0.40996863983555193,-0.40996863983555193
-0.43851921547699624,-0.43851921547699624
-0.4623113618448665,-0.4623113618448665
-0.4661181052637257,-0.4661181052637257
-0.4623113618448665,-0.4623113618448665
-0.48991025163159596,-0.48991025163159596
-0.5137023979994662,-0.5137023979994662
-0.5175091414183254,-0.5175091414183254
-0.5137023979994662,-0.5137023979994662
-0.5479630887691993,-0.5479630887691993
-0.5917406380860806,-0.5917406380860806
-0.624097957146384,-0.624097957146384
-0.644083360095395,-0.644083360095395
-0.6840541659934171,-0.6840541659934171
-0.7221216001820094,-0.7221216001820094
-0.7506721758234537,-0.7506721758234537
-0.7735126363366092,-0.7735126363366092
-0.8249036724912089,-0.8249036724912089
-0.8781980803552382,-0.8781980803552382
-0.9162655145438305,-0.9162655145438305
-0.9295891165098379,-0.9295891165098379
-0.9533812628777081,-0.9533812628777081
-0.9819318385191524,-0.9819318385191524
-1.0095307283058819,-1.0095307283058819
-1.0076273565964522,-1.0076273565964522
-0.983835210228582,-0.983835210228582
-0.9295891165098379,-0.9295891165098379
-0.8734396510816641,-0.8734396510816641
-0.8258553583459237,-0.8258553583459237
-0.8039665836874831,-0.8039665836874831
-0.7735126363366092,-0.7735126363366092
-0.7173631709084354,-0.7173631709084354
-0.6183878420180953,-0.6183878420180953
-0.5108473404353218,-0.5108473404353218
-0.40996863983555193,-0.40996863983555193
-0.3252685987659339,-0.3252685987659339
-0.22819664158502334,-0.22819664158502334
-0.1311246844041128,-0.1311246844041128
-0.04642464333449475,-0.04642464333449475
0.004966392820104958,0.004966392820104958
0.05730911482941948,0.05730911482941948
0.1191686953858821,0.1191686953858821
0.18769007692534836,0.18769007692534836
0.2314676262422296,0.2314676262422296
0.26572831701196276,0.26572831701196276
0.2914238350892626,0.2914238350892626
0.3171193531665624,0.3171193531665624
0.32663621171371054,0.32663621171371054
0.3437665570985771,0.3437665570985771
0.3589935307740141,0.3589935307740141
0.369462075175877,0.369462075175877
0.3608969024834437,0.3608969024834437
0.369462075175877,0.369462075175877
0.38659242056074355,0.38659242056074355
0.39515759325317684,0.39515759325317684
0.3732688185947362,0.3732688185947362
0.369462075175877,0.369462075175877
0.39325422154374723,0.39325422154374723
0.42085311133047665,0.42085311133047665
0.4027710800908953,0.4027710800908953
0.369462075175877,0.369462075175877
0.3532834156457252,0.3532834156457252
0.369462075175877,0.369462075175877
0.3732688185947362,0.3732688185947362
0.369462075175877,0.369462075175877
0.36184858833815847,0.36184858833815847
0.369462075175877,0.369462075175877
0.3608969024834437,0.3608969024834437
0.3437665570985771,0.3437665570985771
0.3171193531665624,0.3171193531665624
0.3171193531665624,0.3171193531665624
0.3275878975684254,0.3275878975684254
0.3437665570985771,0.3437665570985771
0.3332980126967142,0.3332980126967142
0.3171193531665624,0.3171193531665624
0.2961822643628366,0.2961822643628366
0.2914238350892626,0.2914238350892626
0.28666540581568856,0.28666540581568856
0.2914238350892626,0.2914238350892626
0.28856877752511817,0.28856877752511817
0.2914238350892626,0.2914238350892626
0.2857137199609737,0.2857137199609737
0.2914238350892626,0.2914238350892626
0.2914238350892626,0.2914238350892626
0.2914238350892626,0.2914238350892626
0.2819069765421145,0.2819069765421145
0.2914238350892626,0.2914238350892626
0.30569912290998474,0.30569912290998474
0.3171193531665624,0.3171193531665624
0.30855418047412914,0.30855418047412914
0.3171193531665624,0.3171193531665624
0.3399598136797179,0.3399598136797179
0.369462075175877,0.369462075175877
0.3837373629965991,0.3837373629965991
0.42085311133047665,0.42085311133047665
0.47034077577564676,0.47034077577564676
0.49889135141709107,0.49889135141709107
0.46653403235678753,0.46653403235678753
0.42085311133047665,0.42085311133047665
0.38944747812488795,0.38944747812488795
0.369462075175877,0.369462075175877
0.32663621171371054,0.32663621171371054
0.2914238350892626,0.2914238350892626
0.26668000286667753,0.26668000286667753
0.2390811130799481,0.2390811130799481
0.18293164765177433,0.18293164765177433
0.1610428729933337,0.1610428729933337
0.18293164765177433,0.18293164765177433
0.21338559500264823,0.21338559500264823
0.19815862132721127,0.19815862132721127
0.18769007692534836,0.18769007692534836
0.19054513448949278,0.19054513448949278
0.18769007692534836,0.18769007692534836
0.15913950128390408,0.15913950128390408
0.18769007692534836,0.18769007692534836
0.2400327989346629,0.2400327989346629
0.18769007692534836,0.18769007692534836
-0.043569585770350326,-0.043569585770350326
-0.33193039974893757,-0.33193039974893757
-0.6069676117615175,-0.6069676117615175
-0.8515508764232235,-0.8515508764232235
-0.9124587711249713,-0.9124587711249713
-0.4623113618448665,-0.4623113618448665
0.4836643777416541,0.4836643777416541
1.4343985466017488,1.4343985466017488
1.9111931598138683,1.9111931598138683
1.9806662272080493,1.9806662272080493
1.957825766694894,1.957825766694894
1.9806662272080493,1.9806662272080493
1.9806662272080493,1.9806662272080493
1.9806662272080493,1.9806662272080493
1.9540190232760346,1.9540190232760346
1.7465515069482063,1.7465515069482063
1.243109689804072,1.243109689804072
0.6549678315903198,0.6549678315903198
0.254308086755385,0.254308086755385
0.08395631876143414,0.08395631876143414
-0.03690778478734666,-0.03690778478734666
-0.17585391957570884,-0.17585391957570884
-0.2833944211584823,-0.2833944211584823
-0.3062348816716377,-0.3062348816716377
-0.30908993923578215,-0.30908993923578215
-0.33193039974893757,-0.33193039974893757
-0.3652394046639559,-0.3652394046639559
-0.35857760368095226,-0.35857760368095226
-0.334785457313082,-0.334785457313082
-0.33193039974893757,-0.33193039974893757
-0.3766596349205336,-0.3766596349205336
-0.40996863983555193,-0.40996863983555193
-0.41758212667327044,-0.41758212667327044
-0.40996863983555193,-0.40996863983555193
-0.4290023569298481,-0.4290023569298481
-0.4356641579128518,-0.4356641579128518
-0.4232922418015593,-0.4232922418015593
-0.40996863983555193,-0.40996863983555193
-0.4442293306052851,-0.4442293306052851
-0.48800687992216635,-0.48800687992216635
-0.5117990262900366,-0.5117990262900366
-0.5137023979994662,-0.5137023979994662
-0.5374945443673365,-0.5374945443673365
-0.5660451200087807,-0.5660451200087807
-0.5850788371030768,-0.5850788371030768
-0.5917406380860806,-0.5917406380860806
-0.624097957146384,-0.624097957146384
-0.6697788781726949,-0.6697788781726949
-0.7173631709084354,-0.7173631709084354
-0.7478171182593093,-0.7478171182593093
-0.7858845524479017,-0.7858845524479017
-0.8258553583459237,-0.8258553583459237
-0.8648744783892308,-0.8648744783892308
-0.8781980803552382,-0.8781980803552382
-0.879149766209953,-0.879149766209953
-0.8781980803552382,-0.8781980803552382
-0.9010385408683936,-0.9010385408683936
-0.9295891165098379,-0.9295891165098379
-0.9505262053135637,-0.9505262053135637
-0.9295891165098379,-0.9295891165098379
-0.8848598813382419,-0.8848598813382419
-0.8258553583459237,-0.8258553583459237
-0.7773193797554684,-0.7773193797554684
-0.7221216001820094,-0.7221216001820094
-0.6631170771896913,-0.6631170771896913
-0.5917406380860806,-0.5917406380860806
-0.5222675706918994,-0.5222675706918994
-0.4356641579128518,-0.4356641579128518
-0.33859220073194124,-0.33859220073194124
-0.22819664158502334,-0.22819664158502334
-0.14064154295126088,-0.14064154295126088
-0.0721201614117946,-0.0721201614117946
-0.016922381838335658,-0.016922381838335658
0.05730911482941948,0.05730911482941948
0.1305889256424598,0.1305889256424598
0.18769007692534836,0.18769007692534836
0.2114822232932186,0.2114822232932186
0.2390811130799481,0.2390811130799481
0.27714854726854043,0.27714854726854043
0.3171193531665624,0.3171193531665624
0.3313946409872846,0.3313946409872846
0.3437665570985771,0.3437665570985771
0.3551867873551548,0.3551867873551548
0.369462075175877,0.369462075175877
0.3647036459023029,0.3647036459023029
0.369462075175877,0.369462075175877
0.3818339912871695,0.3818339912871695
0.39515759325317684,0.39515759325317684
0.38088230543245466,0.38088230543245466
0.369462075175877,0.369462075175877
0.3647036459023029,0.3647036459023029
0.369462075175877,0.369462075175877
0.3608969024834437,0.3608969024834437
0.369462075175877,0.369462075175877
0.38659242056074355,0.38659242056074355
0.39515759325317684,0.39515759325317684
0.36565533175701775,0.36565533175701775
0.3437665570985771,0.3437665570985771
0.34662161466272157,0.34662161466272157
0.369462075175877,0.369462075175877
0.3628002741928733,0.3628002741928733
0.3437665570985771,0.3437665570985771
0.3228294682948513,0.3228294682948513
0.3171193531665624,0.3171193531665624
0.3009406936364107,0.3009406936364107
0.2914238350892626,0.2914238350892626
0.28666540581568856,0.28666540581568856
0.2914238350892626,0.2914238350892626
0.27048674628553676,0.27048674628553676
0.2390811130799481,0.2390811130799481
0.21719233842150745,0.21719233842150745
0.2390811130799481,0.2390811130799481
0.26572831701196276,0.26572831701196276
0.26572831701196276,0.26572831701196276
0.22766088282337035,0.22766088282337035
0.21338559500264823,0.21338559500264823
0.22480582525922593,0.22480582525922593
0.2390811130799481,0.2390811130799481
0.2209990818403667,0.2209990818403667
0.21338559500264823,0.21338559500264823
0.22575751111394074,0.22575751111394074
0.2390811130799481,0.2390811130799481
0.21814402427622226,0.21814402427622226
0.21338559500264823,0.21338559500264823
0.24479122820823693,0.24479122820823693
0.2914238350892626,0.2914238350892626
0.28761709167040334,0.28761709167040334
0.26572831701196276,0.26572831701196276
0.27429348970439604,0.27429348970439604
0.3437665570985771,0.3437665570985771
0.42085311133047665,0.42085311133047665
0.4731958333397912,0.4731958333397912
0.46843740406621714,0.46843740406621714
0.42085311133047665,0.42085311133047665
0.3523317297910104,0.3523317297910104
0.3171193531665624,0.3171193531665624
0.31426429560241803,0.31426429560241803
0.3171193531665624,0.3171193531665624
0.2838103482515441,0.2838103482515441
0.2390811130799481,0.2390811130799481
0.19815862132721127,0.19815862132721127
0.18769007692534836,0.18769007692534836
0.1810282759423447,0.1810282759423447
0.18769007692534836,0.18769007692534836
0.19435187790835204,0.19435187790835204
0.21338559500264823,0.21338559500264823
0.19340019205363723,0.19340019205363723
0.13534735491603384,0.13534735491603384
0.08776306218029338,0.08776306218029338
0.13534735491603384,0.13534735491603384
0.18864176278006317,0.18864176278006317
0.10965183683873399,0.10965183683873399
-0.09971905119852408,-0.09971905119852408
-0.28053936359433784,-0.28053936359433784
-0.47944170722973306,-0.47944170722973306
-0.8515508764232235,-0.8515508764232235
-1.2189016163431399,-1.2189016163431399
-1.0076273565964522,-1.0076273565964522
-0.039762842351491086,-0.039762842351491086
1.123197272110006,1.123197272110006
1.8036526582310948,1.8036526582310948
1.9806662272080493,1.9806662272080493
1.9854246564816234,1.9854246564816234
1.9806662272080493,1.9806662272080493
1.942598793019457,1.942598793019457
1.9806662272080493,1.9806662272080493
2.0843999853719635,2.0843999853719635
1.9806662272080493,1.9806662272080493
1.4572390071149042,1.4572390071149042
0.7853487936862487,0.7853487936862487
0.334249698551429,0.334249698551429
0.13534735491603384,0.13534735491603384
-0.03881115649677627,-0.03881115649677627
-0.22819664158502334,-0.22819664158502334
-0.3395438865866561,-0.3395438865866561
-0.35857760368095226,-0.35857760368095226
-0.38807986517711135,-0.38807986517711135
-0.4356641579128518,-0.4356641579128518
-0.4623113618448665,-0.4623113618448665
-0.4623113618448665,-0.4623113618448665
-0.48039339308444784,-0.48039339308444784
-0.48800687992216635,-0.48800687992216635
-0.4756349638108738,-0.4756349638108738
-0.4623113618448665,-0.4623113618448665
-0.49086193748631074,-0.49086193748631074
-0.5137023979994662,-0.5137023979994662
-0.5089439687258921,-0.5089439687258921
-0.48800687992216635,-0.48800687992216635
-0.5013304818881736,-0.5013304818881736
-0.5137023979994662,-0.5137023979994662
-0.5156057697088958,-0.5156057697088958
-0.5137023979994662,-0.5137023979994662
-0.5432046594956252,-0.5432046594956252
-0.5660451200087807,-0.5660451200087807
-0.5679484917182103,-0.5679484917182103
-0.5660451200087807,-0.5660451200087807
-0.6012574966332287,-0.6012574966332287
-0.644083360095395,-0.644083360095395
-0.6754889933009838,-0.6754889933009838
-0.6954743962499947,-0.6954743962499947
-0.7373485738574463,-0.7373485738574463
-0.7735126363366092,-0.7735126363366092
-0.8011115261233386,-0.8011115261233386
-0.8258553583459237,-0.8258553583459237
-0.8801014520646678,-0.8801014520646678
-0.9295891165098379,-0.9295891165098379
-0.9562363204418526,-0.9562363204418526
-0.9562363204418526,-0.9562363204418526
-0.9686082365531451,-0.9686082365531451
-0.9819318385191524,-0.9819318385191524
-0.9828835243738672,-0.9828835243738672
-0.9562363204418526,-0.9562363204418526
-0.9295891165098379,-0.9295891165098379
-0.903893598432538,-0.903893598432538
-0.8781980803552382,-0.8781980803552382
-0.8258553583459237,-0.8258553583459237
-0.7630440919347462,-0.7630440919347462
-0.6954743962499947,-0.6954743962499947
-0.6383732449671062,-0.6383732449671062
-0.5660451200087807,-0.5660451200087807
-0.4813450789391627,-0.4813450789391627
-0.3842731217582521,-0.3842731217582521
-0.2957663372697748,-0.2957663372697748
-0.2025011235077235,-0.2025011235077235
-0.11684939658339065,-0.11684939658339065
-0.04642464333449475,-0.04642464333449475
-0.0007437223081838989,-0.0007437223081838989
0.05730911482941948,0.05730911482941948
0.12678218222360058,0.12678218222360058
0.18769007692534836,0.18769007692534836
0.21338559500264823,0.21338559500264823
0.2390811130799481,0.2390811130799481
0.27048674628553676,0.27048674628553676
0.2914238350892626,0.2914238350892626
0.28285866239682933,0.28285866239682933
0.2914238350892626,0.2914238350892626
0.3218777824401365,0.3218777824401365
0.3437665570985771,0.3437665570985771
0.3228294682948513,0.3228294682948513
0.3171193531665624,0.3171193531665624
0.3447182429532919,0.3447182429532919
0.369462075175877,0.369462075175877
0.34091149953443267,0.34091149953443267
0.3171193531665624,0.3171193531665624
0.334249698551429,0.334249698551429
0.369462075175877,0.369462075175877
0.3608969024834437,0.3608969024834437
0.3437665570985771,0.3437665570985771
0.3485249863721512,0.3485249863721512
0.369462075175877,0.369462075175877
0.34947667222686596,0.34947667222686596
0.3171193531665624,0.3171193531665624
0.3018923794911255,0.3018923794911255
0.3171193531665624,0.3171193531665624
0.3209260965854217,0.3209260965854217
0.3171193531665624,0.3171193531665624
0.3028440653458403,0.3028440653458403
0.2914238350892626,0.2914238350892626
0.26858337457610715,0.26858337457610715
0.26572831701196276,0.26572831701196276
0.2752451755591108,0.2752451755591108
0.2914238350892626,0.2914238350892626
0.27810023312325527,0.27810023312325527
0.26572831701196276,0.26572831701196276
0.26668000286667753,0.26668000286667753
0.2914238350892626,0.2914238350892626
0.2914238350892626,0.2914238350892626
0.26572831701196276,0.26572831701196276
0.2295642545328,0.2295642545328
0.2390811130799481,0.2390811130799481
0.2714384321402516,0.2714384321402516
0.2914238350892626,0.2914238350892626
0.2714384321402516,0.2714384321402516
0.26572831701196276,0.26572831701196276
0.2857137199609737,0.2857137199609737
0.3171193531665624,0.3171193531665624
0.31616766731184764,0.31616766731184764
0.3171193531665624,0.3171193531665624
0.334249698551429,0.334249698551429
0.369462075175877,0.369462075175877
0.39801265081732123,0.39801265081732123
0.44750031526249134,0.44750031526249134
0.4950846079982318,0.4950846079982318
0.49889135141709107,0.49889135141709107
0.4313216557323396,0.4313216557323396
0.369462075175877,0.369462075175877
0.35804184491929925,0.35804184491929925
0.369462075175877,0.369462075175877
0.3380564419702883,0.3380564419702883
0.2914238350892626,0.2914238350892626
0.25621145846481463,0.25621145846481463
0.2390811130799481,0.2390811130799481
0.20196536474607052,0.20196536474607052
0.18769007692534836,0.18769007692534836
0.20672379401964455,0.20672379401964455
0.2390811130799481,0.2390811130799481
0.2295642545328,0.2295642545328
0.21338559500264823,0.21338559500264823
0.20006199303664088,0.20006199303664088
0.18769007692534836,0.18769007692534836
0.15723612957447447,0.15723612957447447
0.1610428729933337,0.1610428729933337
0.15438107201033005,0.15438107201033005
0.031613596752119624,0.031613596752119624
-0.25865058893589726,-0.25865058893589726
-0.5917406380860806,-0.5917406380860806
-0.8648744783892308,-0.8648744783892308
-0.9819318385191524,-0.9819318385191524
-0.7630440919347462,-0.7630440919347462
0.005918078674819767,0.005918078674819767
1.117487156981717,1.117487156981717
1.9806662272080493,1.9806662272080493
2.181471942552874,2.181471942552874
1.9806662272080493,1.9806662272080493
1.8645605529328426,1.8645605529328426
1.9806662272080493,1.9806662272080493
2.0777381843889597,2.0777381843889597
1.9806662272080493,1.9806662272080493
1.6951604707936065,1.6951604707936065
1.3049692703605347,1.3049692703605347
0.8462566883879965,0.8462566883879965
0.42085311133047665,0.42085311133047665
0.10965183683873399,0.10965183683873399
-0.0721201614117946,-0.0721201614117946
-0.19488763667000503,-0.19488763667000503
-0.28053936359433784,-0.28053936359433784
-0.334785457313082,-0.334785457313082
-0.35857760368095226,-0.35857760368095226
-0.3852248076129669,-0.3852248076129669
-0.40996863983555193,-0.40996863983555193
-0.4251956135109889,-0.4251956135109889
-0.40996863983555193,-0.40996863983555193
-0.40140346714311864,-0.40140346714311864
-0.40996863983555193,-0.40996863983555193
-0.439470901331711,-0.439470901331711
-0.4356641579128518,-0.4356641579128518
-0.414727069109126,-0.414727069109126
-0.40996863983555193,-0.40996863983555193
-0.454697875007148,-0.454697875007148
-0.48800687992216635,-0.48800687992216635
-0.48420013650330707,-0.48420013650330707
-0.4623113618448665,-0.4623113618448665
-0.47944170722973306,-0.47944170722973306
-0.5137023979994662,-0.5137023979994662
-0.5374945443673365,-0.5374945443673365
-0.5403496019314808,-0.5403496019314808
-0.5612866907352067,-0.5612866907352067
-0.5917406380860806,-0.5917406380860806
-0.624097957146384,-0.624097957146384
-0.644083360095395,-0.644083360095395
-0.6707305640274097,-0.6707305640274097
-0.6954743962499947,-0.6954743962499947
-0.7297350870197279,-0.7297350870197279
-0.7735126363366092,-0.7735126363366092
-0.8353722168930717,-0.8353722168930717
-0.8781980803552382,-0.8781980803552382
-0.9048452842872529,-0.9048452842872529
-0.9295891165098379,-0.9295891165098379
-0.9771734092455784,-0.9771734092455784
-1.0076273565964522,-1.0076273565964522
-1.0076273565964522,-1.0076273565964522
-0.9819318385191524,-0.9819318385191524
-0.9695599224078599,-0.9695599224078599
-0.9562363204418526,-0.9562363204418526
-0.9295891165098379,-0.9295891165098379
-0.8781980803552382,-0.8781980803552382
-0.8287104159100681,-0.8287104159100681
-0.7735126363366092,-0.7735126363366092
-0.7164114850537205,-0.7164114850537205
-0.644083360095395,-0.644083360095395
-0.5736586068464992,-0.5736586068464992
-0.48800687992216635,-0.48800687992216635
-0.3918866085959706,-0.3918866085959706
-0.28053936359433784,-0.28053936359433784
-0.18346740641342732,-0.18346740641342732
-0.09876736534380927,-0.09876736534380927
-0.025487554530768945,-0.025487554530768945
0.05730911482941948,0.05730911482941948
0.1305889256424598,0.1305889256424598
0.18769007692534836,0.18769007692534836
0.21338559500264823,0.21338559500264823
0.2390811130799481,0.2390811130799481
0.2647766311572479,0.2647766311572479
0.2914238350892626,0.2914238350892626
0.3009406936364107,0.3009406936364107
0.3171193531665624,0.3171193531665624
0.34091149953443267,0.34091149953443267
0.369462075175877,0.369462075175877
0.3723171327400214,0.3723171327400214
0.369462075175877,0.369462075175877
0.3647036459023029,0.3647036459023029
0.369462075175877,0.369462075175877
0.36565533175701775,0.36565533175701775
0.369462075175877,0.369462075175877
0.369462075175877,0.369462075175877
0.369462075175877,0.369462075175877
0.35994521662872886,0.35994521662872886
0.369462075175877,0.369462075175877
0.37897893372302505,0.37897893372302505
0.369462075175877,0.369462075175877
0.32853958342314016,0.32853958342314016
0.3171193531665624,0.3171193531665624
0.34091149953443267,0.34091149953443267
0.369462075175877,0.369462075175877
0.3485249863721512,0.3485249863721512
0.3171193531665624,0.3171193531665624
0.3047474370552699,0.3047474370552699
0.3171193531665624,0.3171193531665624
0.30760249461941436,0.30760249461941436
0.2914238350892626,0.2914238350892626
0.2809552906873997,0.2809552906873997
0.2914238350892626,0.2914238350892626
0.2914238350892626,0.2914238350892626
0.2914238350892626,0.2914238350892626
0.28761709167040334,0.28761709167040334
0.2914238350892626,0.2914238350892626
0.269535060430822,0.269535060430822
0.2390811130799481,0.2390811130799481
0.21719233842150745,0.21719233842150745
0.2390811130799481,0.2390811130799481
0.2733418038496812,0.2733418038496812
0.2914238350892626,0.2914238350892626
0.27239011799496643,0.27239011799496643
0.26572831701196276,0.26572831701196276
0.2752451755591108,0.2752451755591108
0.2914238350892626,0.2914238350892626
0.28476203410625894,0.28476203410625894
0.2914238350892626,0.2914238350892626
0.31616766731184764,0.31616766731184764
0.3437665570985771,0.3437665570985771
0.329491269277855,0.329491269277855
0.3171193531665624,0.3171193531665624
0.3447182429532919,0.3447182429532919
0.42085311133047665,0.42085311133047665
0.4817610060322245,0.4817610060322245
0.49889135141709107,0.49889135141709107
0.4655823465020727,0.4655823465020727
0.42085311133047665,0.42085311133047665
0.3827856771418843,0.3827856771418843
0.369462075175877,0.369462075175877
0.3523317297910104,0.3523317297910104
0.3171193531665624,0.3171193531665624
0.254308086755385,0.254308086755385
0.21338559500264823,0.21338559500264823
0.19815862132721127,0.19815862132721127
0.21338559500264823,0.21338559500264823
0.21624065256679265,0.21624065256679265
0.21338559500264823,0.21338559500264823
0.19625524961778165,0.19625524961778165
0.18769007692534836,0.18769007692534836
0.1619945588480485,0.1619945588480485
0.13534735491603384,0.13534735491603384
0.12392712465945614,0.12392712465945614
0.1610428729933337,0.1610428729933337
0.16865635983105218,0.16865635983105218
0.05730911482941948,0.05730911482941948
-0.18632246397757174,-0.18632246397757174
-0.4623113618448665,-0.4623113618448665
-0.7516238616781685,-0.7516238616781685
-1.0076273565964522,-1.0076273565964522
-0.9885936395021561,-0.9885936395021561
-0.35857760368095226,-0.35857760368095226
0.7510881029165155,0.7510881029165155
1.7208559888709063,1.7208559888709063
2.0653662682776672,2.0653662682776672
1.9806662272080493,1.9806662272080493
1.907386416395009,1.907386416395009
1.9806662272080493,1.9806662272080493
2.0253954623796453,2.0253954623796453
1.9806662272080493,1.9806662272080493
1.847430207547976,1.847430207547976
1.5647795086976777,1.5647795086976777
1.073709607664836,1.073709607664836
0.5512340734264055,0.5512340734264055
0.19340019205363723,0.19340019205363723
0.005918078674819767,0.005918078674819767
-0.14920671564369417,-0.14920671564369417
-0.28053936359433784,-0.28053936359433784
-0.3462056875696597,-0.3462056875696597
-0.35857760368095226,-0.35857760368095226
-0.3852248076129669,-0.3852248076129669
-0.40996863983555193,-0.40996863983555193
-0.4128236973996964,-0.4128236973996964
-0.40996863983555193,-0.40996863983555193
-0.4432776447505703,-0.4432776447505703
-0.4623113618448665,-0.4623113618448665
-0.4518428174430036,-0.4518428174430036
-0.4356641579128518,-0.4356641579128518
-0.4651664194090109,-0.4651664194090109
-0.48800687992216635,-0.48800687992216635
-0.4813450789391627,-0.4813450789391627
-0.4623113618448665,-0.4623113618448665
-0.4861035082127367,-0.4861035082127367
-0.5137023979994662,-0.5137023979994662
-0.5203641989824699,-0.5203641989824699
-0.5137023979994662,-0.5137023979994662
-0.5384462302220512,-0.5384462302220512
-0.5660451200087807,-0.5660451200087807
-0.5812720936842176,-0.5812720936842176
-0.5917406380860806,-0.5917406380860806
-0.6326631298388173,-0.6326631298388173
-0.6697788781726949,-0.6697788781726949
-0.6869092235575615,-0.6869092235575615
-0.6954743962499947,-0.6954743962499947
-0.7335418304385871,-0.7335418304385871
-0.7735126363366092,-0.7735126363366092
-0.8115800705252015,-0.8115800705252015
-0.8515508764232235,-0.8515508764232235
-0.9153138286891157,-0.9153138286891157
-0.9562363204418526,-0.9562363204418526
-0.9619464355701414,-0.9619464355701414
-0.9562363204418526,-0.9562363204418526
-0.983835210228582,-0.983835210228582
-1.0076273565964522,-1.0076273565964522
-0.999062183904019,-0.999062183904019
-0.9562363204418526,-0.9562363204418526
-0.9267340589456935,-0.9267340589456935
-0.903893598432538,-0.903893598432538
-0.86868122180809,-0.86868122180809
-0.8001598402686239,-0.8001598402686239
-0.7325901445838724,-0.7325901445838724
-0.6697788781726949,-0.6697788781726949
-0.6079192976162323,-0.6079192976162323
-0.5137023979994662,-0.5137023979994662
-0.40901695398083715,-0.40901695398083715
-0.3062348816716377,-0.3062348816716377
-0.2215348406020197,-0.2215348406020197
-0.12446288342110913,-0.12446288342110913
-0.025487554530768945,-0.025487554530768945
0.05730911482941948,0.05730911482941948
0.09823160658215628,0.09823160658215628
0.13534735491603384,0.13534735491603384
0.18483501936120394,0.18483501936120394
0.2390811130799481,0.2390811130799481
0.26763168872139237,0.26763168872139237
0.2914238350892626,0.2914238350892626
0.3171193531665624,0.3171193531665624
0.3437665570985771,0.3437665570985771
0.3418631853891475,0.3418631853891475
0.3437665570985771,0.3437665570985771
0.3532834156457252,0.3532834156457252
0.369462075175877,0.369462075175877
0.3647036459023029,0.3647036459023029
0.369462075175877,0.369462075175877
0.3827856771418843,0.3827856771418843
0.39515759325317684,0.39515759325317684
0.37707556201359543,0.37707556201359543
0.369462075175877,0.369462075175877
0.37707556201359543,0.37707556201359543
0.39515759325317684,0.39515759325317684
0.3827856771418843,0.3827856771418843
0.369462075175877,0.369462075175877
0.3608969024834437,0.3608969024834437
0.369462075175877,0.369462075175877
0.3723171327400214,0.3723171327400214
0.42085311133047665,0.42085311133047665
0.5464756441528316,0.5464756441528316
0.7587015897542341,0.7587015897542341
0.9718792212103513,0.9718792212103513
1.123197272110006,1.123197272110006
1.1726849365551761,1.1726849365551761
1.1745883082646058,1.1745883082646058
1.1698298789910317,1.1698298789910317
1.2269310302739203,1.2269310302739203
1.3639737933528528,1.3639737933528528
1.5904750267749774,1.5904750267749774
1.8245897470348205,1.8245897470348205
1.9806662272080493,1.9806662272080493
2.0092168028494934,2.0092168028494934
1.9806662272080493,1.9806662272080493
1.961632510113753,1.961632510113753
1.9806662272080493,1.9806662272080493
1.9882797140457678,1.9882797140457678
1.9806662272080493,1.9806662272080493
1.9692459969514715,1.9692459969514715
1.9806662272080493,1.9806662272080493
1.986376342336338,1.986376342336338
1.9806662272080493,1.9806662272080493
1.9644875676778975,1.9644875676778975
1.9806662272080493,1.9806662272080493
2.013023546268353,2.013023546268353
1.9806662272080493,1.9806662272080493
1.7170492454520472,1.7170492454520472
1.1488927901873058,1.1488927901873058
0.37802724786831027,0.37802724786831027
-0.33193039974893757,-0.33193039974893757
-0.8087250129610571,-0.8087250129610571
-1.0599700786057669,-1.0599700786057669
-1.2169982446337104,-1.2169982446337104
-1.3454758350202096,-1.3454758350202096
-1.46824331027842,-1.46824331027842
-1.5795905552800527,-1.5795905552800527
-1.6814209417345374,-1.6814209417345374
-1.7356670354532815,-1.7356670354532815
-1.7470872657098593,-1.7470872657098593
-1.7613625535305812,-1.7613625535305812
-1.823222134087044,-1.823222134087044
-1.8907918297717954,-1.8907918297717954
-1.9364727507981063,-1.9364727507981063
-1.9688300698584098,-1.9688300698584098
-2.0249795352865836,-2.0249795352865836
-2.072563828022324,-2.072563828022324
-2.1058728329373424,-2.1058728329373424
-2.150602068108938,-2.150602068108938
-2.2495773969992787,-2.2495773969992787
-2.3590212702914815,-2.3590212702914815
-2.4437213113610996,-2.4437213113610996
-2.5150977504647103,-2.5150977504647103
-2.612169707645621,-2.612169707645621
-2.7225652667925386,-2.7225652667925386
-2.826299024956453,-2.826299024956453
-2.9300327831203674,-2.9300327831203674
-3.0594620593615813,-3.0594620593615813
-3.18984302145751,-3.18984302145751
-3.295480151330854,-3.295480151330854
-3.3725667055627535,-3.3725667055627535
-3.451556631504083,-3.451556631504083
-3.5276914998812674,-3.5276914998812674
-3.585744337018871,-3.585744337018871
-3.605729739967882,-3.605729739967882
-3.611439855096171,-3.611439855096171
-3.605729739967882,-3.605729739967882
-3.5800342218905823,-3.5800342218905823
-3.501995981803968,-3.501995981803968
-3.3906487368023353,-3.3906487368023353
-3.2678812615441246,-3.2678812615441246
-3.139403671157625,-3.139403671157625
-2.956679987052382,-2.956679987052382
-2.7254203243566835,-2.7254203243566835
-2.488450546532696,-2.488450546532696
-2.2800313443501525,-2.2800313443501525
-2.0468683099450242,-2.0468683099450242
-1.7670726686588702,-1.7670726686588702
-1.4758567971161385,-1.4758567971161385
-1.2227083597619992,-1.2227083597619992
-0.9819318385191524,-0.9819318385191524
-0.7297350870197279,-0.7297350870197279
-0.48800687992216635,-0.48800687992216635
-0.2957663372697748,-0.2957663372697748
-0.12446288342110913,-0.12446288342110913
0.04493719871812695,0.04493719871812695
0.18769007692534836,0.18769007692534836
0.27239011799496643,0.27239011799496643
0.3437665570985771,0.3437665570985771
0.4275149123134803,0.4275149123134803
0.49889135141709107,0.49889135141709107
0.518876754366102,0.518876754366102
0.5255385553491058,0.5255385553491058
0.5569441885546944,0.5569441885546944
0.6035767954357201,0.6035767954357201
0.614045339837583,0.614045339837583
0.6035767954357201,0.6035767954357201
0.5950116227432868,0.5950116227432868
0.6035767954357201,0.6035767954357201
0.6026251095810052,0.6026251095810052
0.6035767954357201,0.6035767954357201
0.6026251095810052,0.6026251095810052
0.6035767954357201,0.6035767954357201
0.5854947641961387,0.5854947641961387
0.5769295915037054,0.5769295915037054
0.5826397066319943,0.5826397066319943
0.6035767954357201,0.6035767954357201
0.5978666803074312,0.5978666803074312
0.5769295915037054,0.5769295915037054
0.5578958744094092,0.5578958744094092
0.5769295915037054,0.5769295915037054
0.6007217378715757,0.6007217378715757
0.6035767954357201,0.6035767954357201
0.5674127329565574,0.5674127329565574
0.5512340734264055,0.5512340734264055
0.5664610471018425,0.5664610471018425
0.6035767954357201,0.6035767954357201
0.6102385964187238,0.6102385964187238
0.6035767954357201,0.6035767954357201
0.5931082510338572,0.5931082510338572
0.6035767954357201,0.6035767954357201
0.6035767954357201,0.6035767954357201
0.6035767954357201,0.6035767954357201
0.5969149944527165,0.5969149944527165
0.6035767954357201,0.6035767954357201
0.6007217378715757,0.6007217378715757
0.6035767954357201,0.6035767954357201
0.598818366162146,0.598818366162146
0.6035767954357201,0.6035767954357201
0.5997700520168608,0.5997700520168608
0.6035767954357201,0.6035767954357201
0.6007217378715757,0.6007217378715757
0.6035767954357201,0.6035767954357201
0.5969149944527165,0.5969149944527165
0.6035767954357201,0.6035767954357201
0.6026251095810052,0.6026251095810052
0.6035767954357201,0.6035767954357201
0.594059936888572,0.594059936888572
0.6035767954357201,0.6035767954357201
0.609286910564009,0.609286910564009
0.6035767954357201,0.6035767954357201
0.5759779056489907,0.5759779056489907
0.5769295915037054,0.5769295915037054
0.5950116227432868,0.5950116227432868
0.6035767954357201,0.6035767954357201
0.5693161046659869,0.5693161046659869
0.5512340734264055,0.5512340734264055
0.5683644188112721,0.5683644188112721
0.6035767954357201,0.6035767954357201
0.5893015076149979,0.5893015076149979
0.5512340734264055,0.5512340734264055
0.5274419270585353,0.5274419270585353
0.5512340734264055,0.5512340734264055
0.5731228480848461,0.5731228480848461
0.5769295915037054,0.5769295915037054
0.5569441885546944,0.5569441885546944
0.5512340734264055,0.5512340734264055
0.5417172148792575,0.5417172148792575
0.5255385553491058,0.5255385553491058
0.4950846079982318,0.4950846079982318
0.49889135141709107,0.49889135141709107
0.5274419270585353,0.5274419270585353
0.5512340734264055,0.5512340734264055
0.5283936129132502,0.5283936129132502
0.49889135141709107,0.49889135141709107
0.4865194353057985,0.4865194353057985
0.49889135141709107,0.49889135141709107
0.49793966556237623,0.49793966556237623
0.49889135141709107,0.49889135141709107
0.49793966556237623,0.49793966556237623
0.49889135141709107,0.49889135141709107
0.47890594846808004,0.47890594846808004
0.4731958333397912,0.4731958333397912
0.4817610060322245,0.4817610060322245
0.49889135141709107,0.49889135141709107
0.4865194353057985,0.4865194353057985
0.4731958333397912,0.4731958333397912
0.46653403235678753,0.46653403235678753
0.4731958333397912,0.4731958333397912
0.4674857182115023,0.4674857182115023
0.4731958333397912,0.4731958333397912
0.4846160635963689,0.4846160635963689
0.49889135141709107,0.49889135141709107
0.49318123628880217,0.49318123628880217
0.49889135141709107,0.49889135141709107
0.5112632675283836,0.5112632675283836
0.5255385553491058,0.5255385553491058
0.538862157315113,0.538862157315113
0.6035767954357201,0.6035767954357201
