ECG,PPG
-0.3965853952485116,-0.3965853952485116
-0.5187138738239152,-0.5187138738239152
-0.46700181532802354,-0.46700181532802354
-0.39108411242979974,-0.39108411242979974
-0.3267191034508708,-0.3267191034508708
-0.23924870663335202,-0.23924870663335202
-0.18643639157371802,-0.18643639157371802
-0.23484768037838252,-0.23484768037838252
-0.3267191034508708,-0.3267191034508708
-0.3569761589537861,-0.3569761589537861
-0.3267191034508708,-0.3267191034508708
-0.2926111499748572,-0.2926111499748572
-0.2563026833713588,-0.2563026833713588
-0.2045906248754672,-0.2045906248754672
-0.18643639157371802,-0.18643639157371802
-0.22494537130470113,-0.22494537130470113
-0.2563026833713588,-0.2563026833713588
-0.22769601271405707,-0.22769601271405707
-0.18643639157371802,-0.18643639157371802
-0.18093510875500615,-0.18093510875500615
-0.18643639157371802,-0.18643639157371802
-0.19303793095617228,-0.19303793095617228
-0.2563026833713588,-0.2563026833713588
-0.3635776983362404,-0.3635776983362404
-0.3965853952485116,-0.3965853952485116
-0.31956743578654534,-0.31956743578654534
-0.2563026833713588,-0.2563026833713588
-0.27390678839123683,-0.27390678839123683
-0.2563026833713588,-0.2563026833713588
-0.13252381995034168,-0.13252381995034168
-0.04560355141469407,-0.04560355141469407
-0.1391253593327959,-0.1391253593327959
-0.3267191034508708,-0.3267191034508708
-0.4405956577982066,-0.4405956577982066
-0.46700181532802354,-0.46700181532802354
-0.4620506607911829,-0.4620506607911829
-0.3965853952485116,-0.3965853952485116
-0.230446654123413,-0.230446654123413
-0.04560355141469407,-0.04560355141469407
0.07432441403322476,0.07432441403322476
0.16454545226009948,0.16454545226009948
0.2817227762986624,0.2817227762986624
0.37524458421676427,0.37524458421676427
0.40440138315593716,0.40440138315593716
0.4456610042962762,0.4456610042962762
0.580442433354717,0.580442433354717
0.7262264280505817,0.7262264280505817
0.7355786088423919,0.7355786088423919
0.5859437161734289,0.5859437161734289
0.4088024094109067,0.4088024094109067
0.30537829241912345,0.30537829241912345
0.25036546423200473,0.25036546423200473
0.16454545226009948,0.16454545226009948
0.024812868664817907,0.024812868664817907
-0.11601997149420605,-0.11601997149420605
-0.2309967824052842,-0.2309967824052842
-0.3267191034508708,-0.3267191034508708
-0.43784501638885065,-0.43784501638885065
-0.5374182354075355,-0.5374182354075355
-0.5704259323198069,-0.5704259323198069
-0.5374182354075355,-0.5374182354075355
-0.5055107950590066,-0.5055107950590066
-0.5374182354075355,-0.5374182354075355
-0.6083847837689188,-0.6083847837689188
-0.6777009472846883,-0.6777009472846883
-0.7569194198741394,-0.7569194198741394
-0.8884000792413531,-0.8884000792413531
-1.0303331759641194,-1.0303331759641194
-1.028682791118506,-1.028682791118506
-0.7151096704519291,-0.7151096704519291
-0.04560355141469407,-0.04560355141469407
0.9000669651218769,0.9000669651218769
2.060287511588211,2.060287511588211
3.4328575748568233,3.4328575748568233
4.797725842179239,4.797725842179239
5.515093121739268,5.515093121739268
4.938558682338263,4.938558682338263
3.193551772242857,3.193551772242857
1.217490983761552,1.217490983761552
-0.1391253593327959,-0.1391253593327959
-0.8179836591618411,-0.8179836591618411
-1.184919223169923,-1.184919223169923
-1.3796646349523234,-1.3796646349523234
-1.3213510370739776,-1.3213510370739776
-1.0985490829161466,-1.0985490829161466
-0.9159064933349125,-0.9159064933349125
-0.8179836591618411,-0.8179836591618411
-0.7272124926530953,-0.7272124926530953
-0.6777009472846883,-0.6777009472846883
-0.7343641603174207,-0.7343641603174207
-0.8179836591618411,-0.8179836591618411
-0.7921276299138953,-0.7921276299138953
-0.6777009472846883,-0.6777009472846883
-0.6056341423595628,-0.6056341423595628
-0.6072845272051764,-0.6072845272051764
-0.6078346554870476,-0.6078346554870476
-0.5374182354075355,-0.5374182354075355
-0.4471971971806608,-0.4471971971806608
-0.3965853952485116,-0.3965853952485116
-0.4180403982414879,-0.4180403982414879
-0.46700181532802354,-0.46700181532802354
-0.49010720316661344,-0.49010720316661344
-0.46700181532802354,-0.46700181532802354
-0.4070378326040641,-0.4070378326040641
-0.3267191034508708,-0.3267191034508708
-0.22824614099592827,-0.22824614099592827
-0.11601997149420605,-0.11601997149420605
0.015460687873007722,0.015460687873007722
0.16454545226009948,0.16454545226009948
0.3202317560296455,0.3202317560296455
0.4456610042962762,0.4456610042962762
0.5259797334494696,0.5259797334494696
0.5859437161734289,0.5859437161734289
0.6734141129909477,0.6734141129909477
0.7966428481300937,0.7966428481300937
0.9259229943698227,0.9259229943698227
1.0073419800867585,1.0073419800867585
1.008992364932372,1.008992364932372
0.9369255600072465,0.9369255600072465
0.8494551631897277,0.8494551631897277
0.7966428481300937,0.7966428481300937
0.7762881017008597,0.7762881017008597
0.7262264280505817,0.7262264280505817
0.6090491040120188,0.6090491040120188
0.4456610042962762,0.4456610042962762
0.2916250853723438,0.2916250853723438
0.16454545226009948,0.16454545226009948
0.054519795885862025,0.054519795885862025
-0.04560355141469407,-0.04560355141469407
-0.12372176744040267,-0.12372176744040267
-0.18643639157371802,-0.18643639157371802
-0.26895563385439614,-0.26895563385439614
-0.3965853952485116,-0.3965853952485116
-0.533017209152566,-0.533017209152566
-0.6072845272051764,-0.6072845272051764
-0.5924310635946544,-0.5924310635946544
-0.5374182354075355,-0.5374182354075355
-0.512112334441461,-0.512112334441461
-0.5374182354075355,-0.5374182354075355
-0.582528754520973,-0.582528754520973
-0.6072845272051764,-0.6072845272051764
-0.5907806787490408,-0.5907806787490408
-0.5374182354075355,-0.5374182354075355
-0.4791046375291897,-0.4791046375291897
-0.46700181532802354,-0.46700181532802354
-0.5231149000788847,-0.5231149000788847
-0.6072845272051764,-0.6072845272051764
-0.6446932503724171,-0.6446932503724171
-0.6072845272051764,-0.6072845272051764
-0.5467704161993457,-0.5467704161993457
-0.5374182354075355,-0.5374182354075355
-0.5808783696753594,-0.5808783696753594
-0.6072845272051764,-0.6072845272051764
-0.5588732384005118,-0.5588732384005118
-0.46700181532802354,-0.46700181532802354
-0.40263680634909466,-0.40263680634909466
-0.3965853952485116,-0.3965853952485116
-0.4086882174496777,-0.4086882174496777
-0.3965853952485116,-0.3965853952485116
-0.35752628723565727,-0.35752628723565727
-0.3267191034508708,-0.3267191034508708
-0.31956743578654534,-0.31956743578654534
-0.3267191034508708,-0.3267191034508708
-0.32891961657835556,-0.32891961657835556
-0.3267191034508708,-0.3267191034508708
-0.32396846204151486,-0.32396846204151486
-0.3267191034508708,-0.3267191034508708
-0.3481741064438471,-0.3481741064438471
-0.3965853952485116,-0.3965853952485116
-0.43124347700639637,-0.43124347700639637
-0.3965853952485116,-0.3965853952485116
-0.3080147418672504,-0.3080147418672504
-0.2563026833713588,-0.2563026833713588
-0.28215871261930464,-0.28215871261930464
-0.3267191034508708,-0.3267191034508708
-0.32946974486022673,-0.32946974486022673
-0.3267191034508708,-0.3267191034508708
-0.3619273134906268,-0.3619273134906268
-0.3965853952485116,-0.3965853952485116
-0.3586265437993997,-0.3586265437993997
-0.2563026833713588,-0.2563026833713588
-0.1440765138696366,-0.1440765138696366
-0.04560355141469407,-0.04560355141469407
0.05727043729521796,0.05727043729521796
0.16454545226009948,0.16454545226009948
0.27072021066123864,0.27072021066123864
0.37524458421676427,0.37524458421676427
0.4726172901079644,0.4726172901079644
0.515527296093917,0.515527296093917
0.4764681880810627,0.4764681880810627
0.37524458421676427,0.37524458421676427
0.26631918440626917,0.26631918440626917
0.16454545226009948,0.16454545226009948
0.06167146355018746,0.06167146355018746
-0.04560355141469407,-0.04560355141469407
-0.13307394823221286,-0.13307394823221286
-0.18643639157371802,-0.18643639157371802
-0.26015358134445715,-0.26015358134445715
-0.3965853952485116,-0.3965853952485116
-0.5715261888835492,-0.5715261888835492
-0.6777009472846883,-0.6777009472846883
-0.6859528715127562,-0.6859528715127562
-0.6777009472846883,-0.6777009472846883
-0.7134592856063156,-0.7134592856063156
-0.7475672390823291,-0.7475672390823291
-0.7228114663981258,-0.7228114663981258
-0.6777009472846883,-0.6777009472846883
-0.6611970988285527,-0.6611970988285527
-0.6777009472846883,-0.6777009472846883
-0.7580196764378817,-0.7580196764378817
-0.9582663710389939,-0.9582663710389939
-1.1557624242307503,-1.1557624242307503
-1.028682791118506,-1.028682791118506
-0.3520250044169454,-0.3520250044169454
0.7966428481300937,0.7966428481300937
2.2110226608209165,2.2110226608209165
3.6749140188801457,3.6749140188801457
4.810928920944147,4.810928920944147
5.078841394215416,5.078841394215416
4.242646405771211,4.242646405771211
2.691834779176334,2.691834779176334
1.1228689192797077,1.1228689192797077
-0.04560355141469407,-0.04560355141469407
-0.7772741663033733,-0.7772741663033733
-1.1689655029956587,-1.1689655029956587
-1.2894435967254487,-1.2894435967254487
-1.2393819230751706,-1.2393819230751706
-1.1310066515465467,-1.1310066515465467
-1.028682791118506,-1.028682791118506
-0.9412123943009871,-0.9412123943009871
-0.8884000792413531,-0.8884000792413531
-0.8795980267314141,-0.8795980267314141
-0.8884000792413531,-0.8884000792413531
-0.8685954610939903,-0.8685954610939903
-0.8179836591618411,-0.8179836591618411
-0.7706726269209191,-0.7706726269209191
-0.7475672390823291,-0.7475672390823291
-0.7321636471899359,-0.7321636471899359
-0.6777009472846883,-0.6777009472846883
-0.6023333726683358,-0.6023333726683358
-0.5374182354075355,-0.5374182354075355
-0.5055107950590066,-0.5055107950590066
-0.46700181532802354,-0.46700181532802354
-0.41969078308710145,-0.41969078308710145
-0.3965853952485116,-0.3965853952485116
-0.388883599302315,-0.388883599302315
-0.3267191034508708,-0.3267191034508708
-0.18588626329184685,-0.18588626329184685
-0.04560355141469407,-0.04560355141469407
0.0468179999396654,0.0468179999396654
0.16454545226009948,0.16454545226009948
0.40495151143780833,0.40495151143780833
0.7262264280505817,0.7262264280505817
0.9985399275768194,0.9985399275768194
1.1476246919639113,1.1476246919639113
1.222992266580264,1.222992266580264
1.287907403841064,1.287907403841064
1.3484215148468945,1.3484215148468945
1.358323823920576,1.358323823920576
1.3066117654246843,1.3066117654246843
1.217490983761552,1.217490983761552
1.1190180213066094,1.1190180213066094
1.0073419800867585,1.0073419800867585
0.8929152974575515,0.8929152974575515
0.7966428481300937,0.7966428481300937
0.7097225795944461,0.7097225795944461
0.5859437161734289,0.5859437161734289
0.430257412403883,0.430257412403883
0.30537829241912345,0.30537829241912345
0.23936289859458096,0.23936289859458096
0.16454545226009948,0.16454545226009948
0.03031415148352978,0.03031415148352978
-0.11601997149420605,-0.11601997149420605
-0.20569088143920958,-0.20569088143920958
-0.2563026833713588,-0.2563026833713588
-0.3217679489140301,-0.3217679489140301
-0.3965853952485116,-0.3965853952485116
-0.4433462992075625,-0.4433462992075625
-0.46700181532802354,-0.46700181532802354
-0.5022100253677796,-0.5022100253677796
-0.5374182354075355,-0.5374182354075355
-0.5275159263338541,-0.5275159263338541
-0.46700181532802354,-0.46700181532802354
-0.40813808916780653,-0.40813808916780653
-0.3965853952485116,-0.3965853952485116
-0.42904296387891167,-0.42904296387891167
-0.46700181532802354,-0.46700181532802354
-0.4785545092473185,-0.4785545092473185
-0.46700181532802354,-0.46700181532802354
-0.45985014766369814,-0.45985014766369814
-0.46700181532802354,-0.46700181532802354
-0.45434886484498627,-0.45434886484498627
-0.3965853952485116,-0.3965853952485116
-0.3311201297058403,-0.3311201297058403
-0.3267191034508708,-0.3267191034508708
-0.3745802639736641,-0.3745802639736641
-0.3965853952485116,-0.3965853952485116
-0.3580764155175285,-0.3580764155175285
-0.3267191034508708,-0.3267191034508708
-0.35532577410817257,-0.35532577410817257
-0.3965853952485116,-0.3965853952485116
-0.3767807771011488,-0.3767807771011488
-0.3267191034508708,-0.3267191034508708
-0.32781936001461315,-0.32781936001461315
-0.3965853952485116,-0.3965853952485116
-0.4642511739186676,-0.4642511739186676
-0.46700181532802354,-0.46700181532802354
-0.38558282961108786,-0.38558282961108786
-0.2563026833713588,-0.2563026833713588
-0.16388113201699936,-0.16388113201699936
-0.18643639157371802,-0.18643639157371802
-0.2816085843374334,-0.2816085843374334
-0.3267191034508708,-0.3267191034508708
-0.28600961059240293,-0.28600961059240293
-0.2563026833713588,-0.2563026833713588
-0.29536179138421315,-0.29536179138421315
-0.3267191034508708,-0.3267191034508708
-0.29041063684737245,-0.29041063684737245
-0.2563026833713588,-0.2563026833713588
-0.292061021692986,-0.292061021692986
-0.3267191034508708,-0.3267191034508708
-0.25520242680761646,-0.25520242680761646
-0.11601997149420605,-0.11601997149420605
-0.0357012423410127,-0.0357012423410127
-0.04560355141469407,-0.04560355141469407
-0.048354192824050006,-0.048354192824050006
0.02426274038294672,0.02426274038294672
0.12328583111976044,0.12328583111976044
0.16454545226009948,0.16454545226009948
0.17059686336068255,0.17059686336068255
0.23496187233961147,0.23496187233961147
0.3983499720553541,0.3983499720553541
0.5859437161734289,0.5859437161734289
0.7196248886681275,0.7196248886681275
0.7966428481300937,0.7966428481300937
0.8379024692704328,0.8379024692704328
0.7966428481300937,0.7966428481300937
0.6255529524681545,0.6255529524681545
0.37524458421676427,0.37524458421676427
0.17829865930687916,0.17829865930687916
0.0946791604624587,0.0946791604624587
0.06882313121451289,0.06882313121451289
0.02426274038294672,0.02426274038294672
-0.056606117052117814,-0.056606117052117814
-0.11601997149420605,-0.11601997149420605
-0.12812279369537216,-0.12812279369537216
-0.11601997149420605,-0.11601997149420605
-0.16828215827196885,-0.16828215827196885
-0.3267191034508708,-0.3267191034508708
-0.515413104132688,-0.515413104132688
-0.6072845272051764,-0.6072845272051764
-0.5632742646554814,-0.5632742646554814
-0.46700181532802354,-0.46700181532802354
-0.3828321882017319,-0.3828321882017319
-0.3267191034508708,-0.3267191034508708
-0.37237975084617936,-0.37237975084617936
-0.6072845272051764,-0.6072845272051764
-0.8823486681407701,-0.8823486681407701
-0.8179836591618411,-0.8179836591618411
-0.19083741782868752,-0.19083741782868752
0.8665091399277345,0.8665091399277345
2.1466576518419873,2.1466576518419873
3.534081178721122,3.534081178721122
4.743813270555862,4.743813270555862
5.219124106092568,5.219124106092568
4.644240051537178,4.644240051537178
3.323932175046328,3.323932175046328
1.8358351725847666,1.8358351725847666
0.515527296093917,0.515527296093917
-0.4956084859853253,-0.4956084859853253
-1.028682791118506,-1.028682791118506
-1.0413357416015432,-1.0413357416015432
-0.8179836591618411,-0.8179836591618411
-0.6859528715127562,-0.6859528715127562
-0.6777009472846883,-0.6777009472846883
-0.6523950463186138,-0.6523950463186138
-0.6072845272051764,-0.6072845272051764
-0.6298397867618951,-0.6298397867618951
-0.6777009472846883,-0.6777009472846883
-0.6243385039431832,-0.6243385039431832
-0.46700181532802354,-0.46700181532802354
-0.31956743578654534,-0.31956743578654534
-0.2563026833713588,-0.2563026833713588
-0.2750070449549792,-0.2750070449549792
-0.3267191034508708,-0.3267191034508708
-0.3657782114637251,-0.3657782114637251
-0.3267191034508708,-0.3267191034508708
-0.24254947632457913,-0.24254947632457913
-0.18643639157371802,-0.18643639157371802
-0.19138754611055872,-0.19138754611055872
-0.18643639157371802,-0.18643639157371802
-0.1226215108766603,-0.1226215108766603
-0.04560355141469407,-0.04560355141469407
0.009409276772424662,0.009409276772424662
0.0946791604624587,0.0946791604624587
0.26026777330568607,0.26026777330568607
0.4456610042962762,0.4456610042962762
0.5534861475430289,0.5534861475430289
0.5859437161734289,0.5859437161734289
0.6464578271792595,0.6464578271792595
0.7966428481300937,0.7966428481300937
0.9946890296037211,0.9946890296037211
1.1476246919639113,1.1476246919639113
1.2136400857884537,1.2136400857884537
1.217490983761552,1.217490983761552
1.2125398292247114,1.2125398292247114
1.217490983761552,1.217490983761552
1.2268431645533622,1.2268431645533622
1.217490983761552,1.217490983761552
1.1723804646481146,1.1723804646481146
1.0772082718843992,1.0772082718843992
0.962231460973321,0.962231460973321
0.8665091399277345,0.8665091399277345
0.7828896410833139,0.7828896410833139
0.6563601362529409,0.6563601362529409
0.49682293451029663,0.49682293451029663
0.37524458421676427,0.37524458421676427
0.2932754702179573,0.2932754702179573
0.16454545226009948,0.16454545226009948
0.004458122235583976,0.004458122235583976
-0.04560355141469407,-0.04560355141469407
0.04516761509405184,0.04516761509405184
0.0946791604624587,0.0946791604624587
-0.02304829185797539,-0.02304829185797539
-0.18643639157371802,-0.18643639157371802
-0.24750063086141982,-0.24750063086141982
-0.2563026833713588,-0.2563026833713588
-0.30416384389415213,-0.30416384389415213
-0.3267191034508708,-0.3267191034508708
-0.25575255508948763,-0.25575255508948763
-0.18643639157371802,-0.18643639157371802
-0.2144929339491486,-0.2144929339491486
-0.2563026833713588,-0.2563026833713588
-0.21889396020411808,-0.21889396020411808
-0.18643639157371802,-0.18643639157371802
-0.2695057621362673,-0.2695057621362673
-0.3965853952485116,-0.3965853952485116
-0.4339941184157523,-0.4339941184157523
-0.3965853952485116,-0.3965853952485116
-0.3833823164836031,-0.3833823164836031
-0.3965853952485116,-0.3965853952485116
-0.3740301356917929,-0.3740301356917929
-0.3267191034508708,-0.3267191034508708
-0.3102152549947352,-0.3102152549947352
-0.3267191034508708,-0.3267191034508708
-0.33277051455145384,-0.33277051455145384
-0.3267191034508708,-0.3267191034508708
-0.3250687186052572,-0.3250687186052572
-0.3267191034508708,-0.3267191034508708
-0.3223180771959013,-0.3223180771959013
-0.3267191034508708,-0.3267191034508708
-0.3382717973701657,-0.3382717973701657
-0.3267191034508708,-0.3267191034508708
-0.283258969183047,-0.283258969183047
-0.2563026833713588,-0.2563026833713588
-0.2827088409011758,-0.2827088409011758
-0.3267191034508708,-0.3267191034508708
-0.31901730750467416,-0.31901730750467416
-0.2563026833713588,-0.2563026833713588
-0.21559319051289097,-0.21559319051289097
-0.2563026833713588,-0.2563026833713588
-0.32451859032338604,-0.32451859032338604
-0.3267191034508708,-0.3267191034508708
-0.26895563385439614,-0.26895563385439614
-0.2563026833713588,-0.2563026833713588
-0.31186563984034876,-0.31186563984034876
-0.3267191034508708,-0.3267191034508708
-0.2144929339491486,-0.2144929339491486
-0.04560355141469407,-0.04560355141469407
0.08092595341567901,0.08092595341567901
0.16454545226009948,0.16454545226009948
0.24981533595013353,0.24981533595013353
0.30537829241912345,0.30537829241912345
0.3031777792916387,0.3031777792916387
0.30537829241912345,0.30537829241912345
0.3917484326728999,0.3917484326728999
0.515527296093917,0.515527296093917
0.5545864041067713,0.5545864041067713
0.4456610042962762,0.4456610042962762
0.2421135400039369,0.2421135400039369
0.02426274038294672,0.02426274038294672
-0.14957779668834847,-0.14957779668834847
-0.2563026833713588,-0.2563026833713588
-0.3228682054777725,-0.3228682054777725
-0.3965853952485116,-0.3965853952485116
-0.5082614364683626,-0.5082614364683626
-0.6072845272051764,-0.6072845272051764
-0.6600968422648104,-0.6600968422648104
-0.6777009472846883,-0.6777009472846883
-0.682652101821529,-0.682652101821529
-0.6777009472846883,-0.6777009472846883
-0.685402743230885,-0.685402743230885
-0.7475672390823291,-0.7475672390823291
-0.81743353087997,-0.81743353087997
-0.8179836591618411,-0.8179836591618411
-0.8130325046250004,-0.8130325046250004
-0.9582663710389939,-0.9582663710389939
-1.1794179403512113,-1.1794179403512113
-1.1689655029956587,-1.1689655029956587
-0.7712227552027903,-0.7712227552027903
-0.11601997149420605,-0.11601997149420605
0.7663857926271783,0.7663857926271783
2.060287511588211,2.060287511588211
3.6452070916591017,3.6452070916591017
4.797725842179239,4.797725842179239
4.8153299471991176,4.8153299471991176
3.7447803106777866,3.7447803106777866
2.2456807425788012,2.2456807425788012
0.8665091399277345,0.8665091399277345
-0.22989652584154183,-0.22989652584154183
-1.028682791118506,-1.028682791118506
-1.4599833641055167,-1.4599833641055167
-1.5199473468294762,-1.5199473468294762
-1.35490886226812,-1.35490886226812
-1.1689655029956587,-1.1689655029956587
-1.064441129440133,-1.064441129440133
-1.028682791118506,-1.028682791118506
-1.0011763770249464,-1.0011763770249464
-0.9582663710389939,-0.9582663710389939
-0.8977522600331633,-0.8977522600331633
-0.8179836591618411,-0.8179836591618411
-0.7283127492168376,-0.7283127492168376
-0.6777009472846883,-0.6777009472846883
-0.7002562068414071,-0.7002562068414071
-0.7475672390823291,-0.7475672390823291
-0.7492176239279428,-0.7492176239279428
-0.6777009472846883,-0.6777009472846883
-0.5957318332858814,-0.5957318332858814
-0.5374182354075355,-0.5374182354075355
-0.5049606667771355,-0.5049606667771355
-0.46700181532802354,-0.46700181532802354
-0.40593757604032177,-0.40593757604032177
-0.3267191034508708,-0.3267191034508708
-0.24750063086141982,-0.24750063086141982
-0.18643639157371802,-0.18643639157371802
-0.1270225371316298,-0.1270225371316298
-0.04560355141469407,-0.04560355141469407
0.058920822140831525,0.058920822140831525
0.16454545226009948,0.16454545226009948
0.2855736742717607,0.2855736742717607
0.4456610042962762,0.4456610042962762
0.6189514130857001,0.6189514130857001
0.7262264280505817,0.7262264280505817
0.7581338683991106,0.7581338683991106
0.7966428481300937,0.7966428481300937
0.9006170934037481,0.9006170934037481
1.0073419800867585,1.0073419800867585
1.0392494204352873,1.0392494204352873
1.0073419800867585,1.0073419800867585
0.9737841548926159,0.9737841548926159
0.9369255600072465,0.9369255600072465
0.8566068308540531,0.8566068308540531
0.7262264280505817,0.7262264280505817
0.5853935878915577,0.5853935878915577
0.4456610042962762,0.4456610042962762
0.30207752272789634,0.30207752272789634
0.16454545226009948,0.16454545226009948
0.07102364434199765,0.07102364434199765
0.02426274038294672,0.02426274038294672
-0.020297650448619454,-0.020297650448619454
-0.11601997149420605,-0.11601997149420605
-0.25905332478071474,-0.25905332478071474
-0.3965853952485116,-0.3965853952485116
-0.4890069466028711,-0.4890069466028711
-0.5374182354075355,-0.5374182354075355
-0.5528218272999288,-0.5528218272999288
-0.5374182354075355,-0.5374182354075355
-0.515413104132688,-0.515413104132688
-0.5374182354075355,-0.5374182354075355
-0.6127858100238883,-0.6127858100238883
-0.6777009472846883,-0.6777009472846883
-0.6699991513384917,-0.6699991513384917
-0.6072845272051764,-0.6072845272051764
-0.556122596991156,-0.556122596991156
-0.5374182354075355,-0.5374182354075355
-0.5137627192870745,-0.5137627192870745
-0.46700181532802354,-0.46700181532802354
-0.43674475982510824,-0.43674475982510824
-0.46700181532802354,-0.46700181532802354
-0.5247652849244983,-0.5247652849244983
-0.5374182354075355,-0.5374182354075355
-0.49340797285784055,-0.49340797285784055
-0.46700181532802354,-0.46700181532802354
-0.49835912739468124,-0.49835912739468124
-0.5374182354075355,-0.5374182354075355
-0.5192640021057864,-0.5192640021057864
-0.46700181532802354,-0.46700181532802354
-0.42629232246955573,-0.42629232246955573
-0.3965853952485116,-0.3965853952485116
-0.35587590239004374,-0.35587590239004374
-0.3267191034508708,-0.3267191034508708
-0.3261689751689996,-0.3261689751689996
-0.3267191034508708,-0.3267191034508708
-0.29371140653859956,-0.29371140653859956
-0.2563026833713588,-0.2563026833713588
-0.2486008874251622,-0.2486008874251622
-0.2563026833713588,-0.2563026833713588
-0.2524517853982605,-0.2524517853982605
-0.2563026833713588,-0.2563026833713588
-0.28876025200175887,-0.28876025200175887
-0.3267191034508708,-0.3267191034508708
-0.3349710276789386,-0.3349710276789386
-0.3267191034508708,-0.3267191034508708
-0.3250687186052572,-0.3250687186052572
-0.3267191034508708,-0.3267191034508708
-0.3223180771959013,-0.3223180771959013
-0.3267191034508708,-0.3267191034508708
-0.33772166908829454,-0.33772166908829454
-0.3267191034508708,-0.3267191034508708
-0.28435922574678935,-0.28435922574678935
-0.2563026833713588,-0.2563026833713588
-0.26345435103568426,-0.26345435103568426
-0.2563026833713588,-0.2563026833713588
-0.17653408250003666,-0.17653408250003666
-0.04560355141469407,-0.04560355141469407
0.07652492716070952,0.07652492716070952
0.16454545226009948,0.16454545226009948
0.2377125137489674,0.2377125137489674
0.30537829241912345,0.30537829241912345
0.3735941993711507,0.3735941993711507
0.4456610042962762,0.4456610042962762
0.5078255001477204,0.5078255001477204
0.515527296093917,0.515527296093917
0.46106459618866946,0.46106459618866946
0.37524458421676427,0.37524458421676427
0.2855736742717607,0.2855736742717607
0.16454545226009948,0.16454545226009948
0.014360431309265348,0.014360431309265348
-0.11601997149420605,-0.11601997149420605
-0.19523844408365704,-0.19523844408365704
-0.2563026833713588,-0.2563026833713588
-0.353675389262559,-0.353675389262559
-0.46700181532802354,-0.46700181532802354
-0.5764773434203899,-0.5764773434203899
-0.6777009472846883,-0.6777009472846883
-0.7701224986390478,-0.7701224986390478
-0.8179836591618411,-0.8179836591618411
-0.7959785278869936,-0.7959785278869936
-0.7475672390823291,-0.7475672390823291
-0.7321636471899359,-0.7321636471899359
-0.7475672390823291,-0.7475672390823291
-0.7288628774987088,-0.7288628774987088
-0.6777009472846883,-0.6777009472846883
-0.7233615946799969,-0.7233615946799969
-0.9582663710389939,-0.9582663710389939
-1.1920708908342486,-1.1920708908342486
-1.028682791118506,-1.028682791118506
-0.23429755209651132,-0.23429755209651132
1.0772082718843992,1.0772082718843992
2.6434234903716693,2.6434234903716693
4.166178574591116,4.166178574591116
5.183365767770941,5.183365767770941
5.148707686013057,5.148707686013057
3.9615308537350344,3.9615308537350344
2.200570223465364,2.200570223465364
0.6393061595149341,0.6393061595149341
-0.3965853952485116,-0.3965853952485116
-1.005027274998045,-1.005027274998045
-1.3092482148728115,-1.3092482148728115
-1.3301530895839166,-1.3301530895839166
-1.1689655029956587,-1.1689655029956587
-1.0105285578167567,-1.0105285578167567
-0.9582663710389939,-0.9582663710389939
-0.964317782139577,-0.964317782139577
-0.9582663710389939,-0.9582663710389939
-0.9258088024085939,-0.9258088024085939
-0.8884000792413531,-0.8884000792413531
-0.852641740919726,-0.852641740919726
-0.8179836591618411,-0.8179836591618411
-0.7816751925583428,-0.7816751925583428
-0.7475672390823291,-0.7475672390823291
-0.7217112098343834,-0.7217112098343834
-0.6777009472846883,-0.6777009472846883
-0.614986323151373,-0.614986323151373
-0.5374182354075355,-0.5374182354075355
-0.4879066900391287,-0.4879066900391287
-0.46700181532802354,-0.46700181532802354
-0.44609694061691846,-0.44609694061691846
-0.3965853952485116,-0.3965853952485116
-0.32396846204151486,-0.32396846204151486
-0.2563026833713588,-0.2563026833713588
-0.19358805923804345,-0.19358805923804345
-0.11601997149420605,-0.11601997149420605
-0.012045726220551644,-0.012045726220551644
0.0946791604624587,0.0946791604624587
0.1948025077630148,0.1948025077630148
0.30537829241912345,0.30537829241912345
0.44401061945066267,0.44401061945066267
0.5859437161734289,0.5859437161734289
0.7047714250576054,0.7047714250576054
0.7966428481300937,0.7966428481300937
0.8780618338470294,0.8780618338470294
0.9369255600072465,0.9369255600072465
0.956180049872738,0.956180049872738
0.9369255600072465,0.9369255600072465
0.9050181196587176,0.9050181196587176
0.8665091399277345,0.8665091399277345
0.8131466965862293,0.8131466965862293
0.7262264280505817,0.7262264280505817
0.6018974363476933,0.6018974363476933
0.4456610042962762,0.4456610042962762
0.2899747005267302,0.2899747005267302
0.16454545226009948,0.16454545226009948
0.0644221049595434,0.0644221049595434
-0.04560355141469407,-0.04560355141469407
-0.16388113201699936,-0.16388113201699936
-0.2563026833713588,-0.2563026833713588
-0.318467179222803,-0.318467179222803
-0.3965853952485116,-0.3965853952485116
-0.5104619495958473,-0.5104619495958473
-0.6072845272051764,-0.6072845272051764
-0.6320402998893798,-0.6320402998893798
-0.6072845272051764,-0.6072845272051764
-0.5973822181314951,-0.5973822181314951
-0.6072845272051764,-0.6072845272051764
-0.5775775999841323,-0.5775775999841323
-0.46700181532802354,-0.46700181532802354
-0.31406615296783347,-0.31406615296783347
-0.18643639157371802,-0.18643639157371802
-0.10391714929303993,-0.10391714929303993
-0.04560355141469407,-0.04560355141469407
-0.011495597938680456,-0.011495597938680456
-0.04560355141469407,-0.04560355141469407
-0.16883228655384003,-0.16883228655384003
-0.3267191034508708,-0.3267191034508708
-0.43344399013388113,-0.43344399013388113
-0.46700181532802354,-0.46700181532802354
-0.4659015587642812,-0.4659015587642812
-0.46700181532802354,-0.46700181532802354
-0.4521483517175015,-0.4521483517175015
-0.3965853952485116,-0.3965853952485116
-0.3129658964040911,-0.3129658964040911
-0.2563026833713588,-0.2563026833713588
-0.265654864163169,-0.265654864163169
-0.3267191034508708,-0.3267191034508708
-0.38063167507424717,-0.38063167507424717
-0.3965853952485116,-0.3965853952485116
-0.3921843689935421,-0.3921843689935421
-0.3965853952485116,-0.3965853952485116
-0.3899838558660573,-0.3899838558660573
-0.3267191034508708,-0.3267191034508708
-0.2084415228485655,-0.2084415228485655
-0.11601997149420605,-0.11601997149420605
-0.1347243330778264,-0.1347243330778264
-0.2563026833713588,-0.2563026833713588
-0.3734800074099217,-0.3734800074099217
-0.3965853952485116,-0.3965853952485116
-0.3514748761350742,-0.3514748761350742
-0.3267191034508708,-0.3267191034508708
-0.34102243877952165,-0.34102243877952165
-0.3267191034508708,-0.3267191034508708
-0.25025127227077576,-0.25025127227077576
-0.18643639157371802,-0.18643639157371802
-0.20183998346611126,-0.20183998346611126
-0.2563026833713588,-0.2563026833713588
-0.25685281165323,-0.25685281165323
-0.18643639157371802,-0.18643639157371802
-0.08356240286380599,-0.08356240286380599
0.02426274038294672,0.02426274038294672
0.13923955129402488,0.13923955129402488
0.23496187233961147,0.23496187233961147
0.28832431568111666,0.28832431568111666
0.30537829241912345,0.30537829241912345
0.324632782284615,0.324632782284615
0.37524458421676427,0.37524458421676427
0.48802088200035765,0.48802088200035765
0.6563601362529409,0.6563601362529409
0.7856402824926699,0.7856402824926699
0.7262264280505817,0.7262264280505817
0.4467612608600186,0.4467612608600186
0.0946791604624587,0.0946791604624587
-0.13252381995034168,-0.13252381995034168
-0.18643639157371802,-0.18643639157371802
-0.18588626329184685,-0.18588626329184685
-0.2563026833713588,-0.2563026833713588
-0.4273925790332981,-0.4273925790332981
-0.6072845272051764,-0.6072845272051764
-0.7211610815525121,-0.7211610815525121
-0.7475672390823291,-0.7475672390823291
-0.7343641603174207,-0.7343641603174207
-0.7475672390823291,-0.7475672390823291
-0.8146828894706141,-0.8146828894706141
-0.8884000792413531,-0.8884000792413531
-0.8718962307852175,-0.8718962307852175
-0.7475672390823291,-0.7475672390823291
-0.6314901716075086,-0.6314901716075086
-0.6777009472846883,-0.6777009472846883
-0.8828987964226412,-0.8828987964226412
-1.028682791118506,-1.028682791118506
-0.832286994490492,-0.832286994490492
-0.18643639157371802,-0.18643639157371802
0.797743104693836,0.797743104693836
1.989871091508699,1.989871091508699
3.381695644642803,3.381695644642803
4.797725842179239,4.797725842179239
5.600913133711173,5.600913133711173
5.078841394215416,5.078841394215416
3.3118293528451623,3.3118293528451623
1.287907403841064,1.287907403841064
-0.057706373615860194,-0.057706373615860194
-0.6777009472846883,-0.6777009472846883
-1.049587665829611,-1.049587665829611
-1.3796646349523234,-1.3796646349523234
-1.4913406761721744,-1.4913406761721744
-1.3092482148728115,-1.3092482148728115
-1.005027274998045,-1.005027274998045
-0.7475672390823291,-0.7475672390823291
-0.5792279848297458,-0.5792279848297458
-0.5374182354075355,-0.5374182354075355
-0.6628474836741663,-0.6628474836741663
-0.8884000792413531,-0.8884000792413531
-1.0303331759641194,-1.0303331759641194
-0.9582663710389939,-0.9582663710389939
-0.7167600552975427,-0.7167600552975427
-0.46700181532802354,-0.46700181532802354
-0.36247744177249797,-0.36247744177249797
-0.3965853952485116,-0.3965853952485116
-0.4686522001736371,-0.4686522001736371
-0.46700181532802354,-0.46700181532802354
-0.42079103965084386,-0.42079103965084386
-0.3965853952485116,-0.3965853952485116
-0.39383475383915567,-0.39383475383915567
-0.3267191034508708,-0.3267191034508708
-0.14187600074215184,-0.14187600074215184
0.0946791604624587,0.0946791604624587
0.26631918440626917,0.26631918440626917
0.30537829241912345,0.30537829241912345
0.23826264203083858,0.23826264203083858
0.16454545226009948,0.16454545226009948
0.23001071780277077,0.23001071780277077
0.515527296093917,0.515527296093917
0.9231723529604667,0.9231723529604667
1.217490983761552,1.217490983761552
1.2780050947673827,1.2780050947673827
1.217490983761552,1.217490983761552
1.23509508878143,1.23509508878143
1.358323823920576,1.358323823920576
1.4567967863755185,1.4567967863755185
1.4281901157182166,1.4281901157182166
1.317614331062108,1.317614331062108
1.217490983761552,1.217490983761552
1.1553264879101077,1.1553264879101077
1.0772082718843992,1.0772082718843992
0.9490283822084126,0.9490283822084126
0.7966428481300937,0.7966428481300937
0.6723138564272053,0.6723138564272053
0.5859437161734289,0.5859437161734289
0.515527296093917,0.515527296093917
0.4456610042962762,0.4456610042962762
0.3785453539079914,0.3785453539079914
0.30537829241912345,0.30537829241912345
0.21075622793727922,0.21075622793727922
0.0946791604624587,0.0946791604624587
-0.021397907012361828,-0.021397907012361828
-0.11601997149420605,-0.11601997149420605
-0.19083741782868752,-0.19083741782868752
-0.2563026833713588,-0.2563026833713588
-0.31186563984034876,-0.31186563984034876
-0.3267191034508708,-0.3267191034508708
-0.2799581994918199,-0.2799581994918199
-0.18643639157371802,-0.18643639157371802
-0.09126419881000263,-0.09126419881000263
-0.04560355141469407,-0.04560355141469407
-0.1055675341386535,-0.1055675341386535
-0.2563026833713588,-0.2563026833713588
-0.35422551754443016,-0.35422551754443016
-0.2563026833713588,-0.2563026833713588
-0.06650842612579919,-0.06650842612579919
-0.04560355141469407,-0.04560355141469407
-0.22109447333160284,-0.22109447333160284
-0.3267191034508708,-0.3267191034508708
-0.2441998611701927,-0.2441998611701927
-0.18643639157371802,-0.18643639157371802
-0.2816085843374334,-0.2816085843374334
-0.3267191034508708,-0.3267191034508708
-0.1743335693725519,-0.1743335693725519
-0.04560355141469407,-0.04560355141469407
-0.13747497448718235,-0.13747497448718235
-0.2563026833713588,-0.2563026833713588
-0.15397882294331797,-0.15397882294331797
0.02426274038294672,0.02426274038294672
-0.005994315119968583,-0.005994315119968583
-0.18643639157371802,-0.18643639157371802
-0.21944408848598926,-0.21944408848598926
-0.04560355141469407,-0.04560355141469407
0.0941290321805875,0.0941290321805875
0.02426274038294672,0.02426274038294672
-0.16113049060764342,-0.16113049060764342
-0.2563026833713588,-0.2563026833713588
-0.1666317734263553,-0.1666317734263553
0.02426274038294672,0.02426274038294672
0.1419901927033808,0.1419901927033808
0.0946791604624587,0.0946791604624587
-0.03955214031411101,-0.03955214031411101
-0.11601997149420605,-0.11601997149420605
-0.08741330083690431,-0.08741330083690431
-0.04560355141469407,-0.04560355141469407
-0.08906368568251787,-0.08906368568251787
-0.18643639157371802,-0.18643639157371802
-0.19743895721114177,-0.19743895721114177
-0.04560355141469407,-0.04560355141469407
0.1727973764881673,0.1727973764881673
0.30537829241912345,0.30537829241912345
0.35599009435127266,0.35599009435127266
0.4456610042962762,0.4456610042962762
0.5721905091266493,0.5721905091266493
0.5859437161734289,0.5859437161734289
0.4885710102822288,0.4885710102822288
0.515527296093917,0.515527296093917
0.7966428481300937,0.7966428481300937
1.0772082718843992,1.0772082718843992
1.0095424932142432,1.0095424932142432
0.5859437161734289,0.5859437161734289
0.14088993613963843,0.14088993613963843
-0.04560355141469407,-0.04560355141469407
0.021512098973590785,0.021512098973590785
0.16454545226009948,0.16454545226009948
0.20580507340043855,0.20580507340043855
0.0946791604624587,0.0946791604624587
-0.10391714929303993,-0.10391714929303993
-0.2563026833713588,-0.2563026833713588
-0.33277051455145384,-0.33277051455145384
-0.3965853952485116,-0.3965853952485116
-0.4642511739186676,-0.4642511739186676
-0.46700181532802354,-0.46700181532802354
-0.403737062912837,-0.403737062912837
-0.3965853952485116,-0.3965853952485116
-0.47965476581106087,-0.47965476581106087
-0.5374182354075355,-0.5374182354075355
-0.5192640021057864,-0.5192640021057864
-0.5374182354075355,-0.5374182354075355
-0.5957318332858814,-0.5957318332858814
-0.46700181532802354,-0.46700181532802354
0.03416504945662809,0.03416504945662809
0.8665091399277345,0.8665091399277345
1.9717168582069498,1.9717168582069498
3.323932175046328,3.323932175046328
4.5892272233500595,4.5892272233500595
5.078841394215416,5.078841394215416
4.410985660023794,4.410985660023794
2.9729503312125107,2.9729503312125107
1.470549993422298,1.470549993422298
0.23496187233961147,0.23496187233961147
-0.755819163310397,-0.755819163310397
-1.4500810550318355,-1.4500810550318355
-1.6734331374715374,-1.6734331374715374
-1.4500810550318355,-1.4500810550318355
-1.0517881789570958,-1.0517881789570958
-0.7475672390823291,-0.7475672390823291
-0.6155364514332442,-0.6155364514332442
-0.6072845272051764,-0.6072845272051764
-0.6496444049092578,-0.6496444049092578
-0.6777009472846883,-0.6777009472846883
-0.6391919675537052,-0.6391919675537052
-0.5374182354075355,-0.5374182354075355
-0.4504979668718879,-0.4504979668718879
-0.46700181532802354,-0.46700181532802354
-0.585279395930329,-0.585279395930329
-0.6777009472846883,-0.6777009472846883
-0.6545955594460985,-0.6545955594460985
-0.5374182354075355,-0.5374182354075355
-0.44169591436194894,-0.44169591436194894
-0.3965853952485116,-0.3965853952485116
-0.3707293660005658,-0.3707293660005658
-0.3267191034508708,-0.3267191034508708
-0.26235409447194186,-0.26235409447194186
-0.18643639157371802,-0.18643639157371802
-0.10831817554800943,-0.10831817554800943
-0.04560355141469407,-0.04560355141469407
0.02866376663791622,0.02866376663791622
0.16454545226009948,0.16454545226009948
0.35599009435127266,0.35599009435127266
0.515527296093917,0.515527296093917
0.5991467949383374,0.5991467949383374
0.6563601362529409,0.6563601362529409
0.7509822007347852,0.7509822007347852
0.8665091399277345,0.8665091399277345
0.9737841548926159,0.9737841548926159
1.0772082718843992,1.0772082718843992
1.178982004030569,1.178982004030569
1.217490983761552,1.217490983761552
1.1663290535475315,1.1663290535475315
1.0772082718843992,1.0772082718843992
1.0128432629054702,1.0128432629054702
0.9369255600072465,0.9369255600072465
0.7889410521838971,0.7889410521838971
0.5859437161734289,0.5859437161734289
0.4121031791021338,0.4121031791021338
0.30537829241912345,0.30537829241912345
0.23606212890335385,0.23606212890335385
0.16454545226009948,0.16454545226009948
0.09082826248936039,0.09082826248936039
0.02426274038294672,0.02426274038294672
-0.03790175546849745,-0.03790175546849745
-0.11601997149420605,-0.11601997149420605
-0.21504306223101977,-0.21504306223101977
-0.3267191034508708,-0.3267191034508708
-0.43784501638885065,-0.43784501638885065
-0.5374182354075355,-0.5374182354075355
-0.6034336292320781,-0.6034336292320781
-0.6072845272051764,-0.6072845272051764
-0.5484208010449593,-0.5484208010449593
-0.46700181532802354,-0.46700181532802354
-0.4119889871409048,-0.4119889871409048
-0.3965853952485116,-0.3965853952485116
-0.4136393719865184,-0.4136393719865184
-0.46700181532802354,-0.46700181532802354
-0.5654747777829662,-0.5654747777829662
-0.6777009472846883,-0.6777009472846883
-0.7305132623443223,-0.7305132623443223
-0.6777009472846883,-0.6777009472846883
-0.556122596991156,-0.556122596991156
-0.46700181532802354,-0.46700181532802354
-0.4736033547104778,-0.4736033547104778
-0.5374182354075355,-0.5374182354075355
-0.5489709293268304,-0.5489709293268304
-0.46700181532802354,-0.46700181532802354
-0.37568052053740647,-0.37568052053740647
-0.3965853952485116,-0.3965853952485116
-0.5187138738239152,-0.5187138738239152
-0.6072845272051764,-0.6072845272051764
-0.5715261888835492,-0.5715261888835492
-0.46700181532802354,-0.46700181532802354
-0.3817319316379895,-0.3817319316379895
-0.3267191034508708,-0.3267191034508708
-0.274456916673108,-0.274456916673108
-0.2563026833713588,-0.2563026833713588
-0.3085648701491216,-0.3085648701491216
-0.3965853952485116,-0.3965853952485116
-0.4521483517175015,-0.4521483517175015
-0.46700181532802354,-0.46700181532802354
-0.4708527133011219,-0.4708527133011219
-0.46700181532802354,-0.46700181532802354
-0.43619463154323707,-0.43619463154323707
-0.3965853952485116,-0.3965853952485116
-0.380081546792376,-0.380081546792376
-0.3965853952485116,-0.3965853952485116
-0.4306933487245252,-0.4306933487245252
-0.46700181532802354,-0.46700181532802354
-0.46755194360989477,-0.46755194360989477
-0.3965853952485116,-0.3965853952485116
-0.274456916673108,-0.274456916673108
-0.18643639157371802,-0.18643639157371802
-0.17323331280880952,-0.17323331280880952
-0.18643639157371802,-0.18643639157371802
-0.14572689871525016,-0.14572689871525016
-0.04560355141469407,-0.04560355141469407
0.0858771079525197,0.0858771079525197
0.23496187233961147,0.23496187233961147
0.39559933064599817,0.39559933064599817
0.515527296093917,0.515527296093917
0.5397329404962492,0.5397329404962492
0.4456610042962762,0.4456610042962762
0.2597176450238149,0.2597176450238149
0.02426274038294672,0.02426274038294672
-0.1743335693725519,-0.1743335693725519
-0.2563026833713588,-0.2563026833713588
-0.2260456278684435,-0.2260456278684435
-0.18643639157371802,-0.18643639157371802
-0.24640037429767744,-0.24640037429767744
-0.3965853952485116,-0.3965853952485116
-0.562174008091739,-0.562174008091739
-0.6777009472846883,-0.6777009472846883
-0.7541687784647834,-0.7541687784647834
-0.8179836591618411,-0.8179836591618411
-0.8465903298191428,-0.8465903298191428
-0.8179836591618411,-0.8179836591618411
-0.7811250642764715,-0.7811250642764715
-0.8179836591618411,-0.8179836591618411
-0.8856494378319972,-0.8856494378319972
-0.8884000792413531,-0.8884000792413531
-0.8801481550132854,-0.8801481550132854
-1.028682791118506,-1.028682791118506
-1.2536852584038216,-1.2536852584038216
-1.1689655029956587,-1.1689655029956587
-0.4928578445759694,-0.4928578445759694
0.6563601362529409,0.6563601362529409
2.01352660762916,2.01352660762916
3.393798466843969,3.393798466843969
4.499556313405056,4.499556313405056
4.797725842179239,4.797725842179239
3.984086113291753,3.984086113291753
2.4112693554220286,2.4112693554220286
0.8202983642505547,0.8202983642505547
-0.3267191034508708,-0.3267191034508708
-1.0308833042459906,-1.0308833042459906
-1.4500810550318355,-1.4500810550318355
-1.6151195395931917,-1.6151195395931917
-1.5199473468294762,-1.5199473468294762
-1.261387054350018,-1.261387054350018
-1.028682791118506,-1.028682791118506
-0.9368113680460176,-0.9368113680460176
-0.9582663710389939,-0.9582663710389939
-0.9841224002869398,-0.9841224002869398
-0.9582663710389939,-0.9582663710389939
-0.893901362060065,-0.893901362060065
-0.8179836591618411,-0.8179836591618411
-0.7393153148542614,-0.7393153148542614
-0.6777009472846883,-0.6777009472846883
-0.661747227110424,-0.661747227110424
-0.6777009472846883,-0.6777009472846883
-0.6969554371501799,-0.6969554371501799
-0.6777009472846883,-0.6777009472846883
-0.6243385039431832,-0.6243385039431832
-0.5374182354075355,-0.5374182354075355
-0.4317936052882676,-0.4317936052882676
-0.3267191034508708,-0.3267191034508708
-0.2403489631970944,-0.2403489631970944
-0.18643639157371802,-0.18643639157371802
-0.15177830981583323,-0.15177830981583323
-0.11601997149420605,-0.11601997149420605
-0.05880663017960257,-0.05880663017960257
0.02426274038294672,0.02426274038294672
0.1463912189583503,0.1463912189583503
0.30537829241912345,0.30537829241912345
0.4676661355711237,0.4676661355711237
0.5859437161734289,0.5859437161734289
0.6767148826821748,0.6767148826821748
0.7966428481300937,0.7966428481300937
0.9583805630002228,0.9583805630002228
1.0772082718843992,1.0772082718843992
1.0849100678305958,1.0849100678305958
1.0073419800867585,1.0073419800867585
0.9270232509335651,0.9270232509335651
0.8665091399277345,0.8665091399277345
0.8043446440762902,0.8043446440762902
0.7262264280505817,0.7262264280505817
0.6558100079710697,0.6558100079710697
0.5859437161734289,0.5859437161734289
0.47811857292667626,0.47811857292667626
0.30537829241912345,0.30537829241912345
0.11008275235485195,0.11008275235485195
-0.04560355141469407,-0.04560355141469407
-0.15067805325209085,-0.15067805325209085
-0.2563026833713588,-0.2563026833713588
-0.394935010402898,-0.394935010402898
-0.5374182354075355,-0.5374182354075355
-0.6320402998893798,-0.6320402998893798
-0.6777009472846883,-0.6777009472846883
-0.7112587724788308,-0.7112587724788308
-0.7475672390823291,-0.7475672390823291
-0.7640710875384648,-0.7640710875384648
-0.7475672390823291,-0.7475672390823291
-0.7310633906261935,-0.7310633906261935
-0.7475672390823291,-0.7475672390823291
-0.7706726269209191,-0.7706726269209191
-0.7475672390823291,-0.7475672390823291
-0.6925544108952104,-0.6925544108952104
-0.6777009472846883,-0.6777009472846883
-0.720610953270641,-0.720610953270641
-0.7475672390823291,-0.7475672390823291
-0.7162099270156715,-0.7162099270156715
-0.6777009472846883,-0.6777009472846883
-0.6799014604121731,-0.6799014604121731
-0.6777009472846883,-0.6777009472846883
-0.614986323151373,-0.614986323151373
-0.5374182354075355,-0.5374182354075355
-0.5159632324145592,-0.5159632324145592
-0.5374182354075355,-0.5374182354075355
-0.5225647717970134,-0.5225647717970134
-0.46700181532802354,-0.46700181532802354
-0.4339941184157523,-0.4339941184157523
-0.46700181532802354,-0.46700181532802354
-0.5220146435151423,-0.5220146435151423
-0.5374182354075355,-0.5374182354075355
-0.4857061769116439,-0.4857061769116439
-0.3965853952485116,-0.3965853952485116
-0.2959119196660843,-0.2959119196660843
-0.18643639157371802,-0.18643639157371802
-0.04945444938779238,-0.04945444938779238
0.0946791604624587,0.0946791604624587
0.1849001986893334,0.1849001986893334
0.16454545226009948,0.16454545226009948
0.06167146355018746,0.06167146355018746
-0.04560355141469407,-0.04560355141469407
-0.11657009977607724,-0.11657009977607724
-0.18643639157371802,-0.18643639157371802
-0.2871098671561453,-0.2871098671561453
-0.3965853952485116,-0.3965853952485116
-0.47800438096544734,-0.47800438096544734
-0.5374182354075355,-0.5374182354075355
-0.5858295242122001,-0.5858295242122001
-0.6072845272051764,-0.6072845272051764
-0.5819786262391018,-0.5819786262391018
-0.5374182354075355,-0.5374182354075355
-0.5022100253677796,-0.5022100253677796
-0.46700181532802354,-0.46700181532802354
-0.403737062912837,-0.403737062912837
-0.3267191034508708,-0.3267191034508708
-0.2579530682169724,-0.2579530682169724
-0.18643639157371802,-0.18643639157371802
-0.06870893925328393,-0.06870893925328393
0.0946791604624587,0.0946791604624587
0.2591675167419437,0.2591675167419437
0.37524458421676427,0.37524458421676427
0.43135766896762534,0.43135766896762534
0.4456610042962762,0.4456610042962762
0.4517124153968593,0.4517124153968593
0.4456610042962762,0.4456610042962762
0.3851468932904456,0.3851468932904456
0.23496187233961147,0.23496187233961147
0.05672030901334677,0.05672030901334677
-0.04560355141469407,-0.04560355141469407
-0.048904321105921196,-0.048904321105921196
-0.04560355141469407,-0.04560355141469407
-0.12427189572227386,-0.12427189572227386
-0.2563026833713588,-0.2563026833713588
-0.39768565181225396,-0.39768565181225396
-0.5374182354075355,-0.5374182354075355
-0.6903538977677257,-0.6903538977677257
-0.8179836591618411,-0.8179836591618411
-0.858693152020309,-0.858693152020309
-0.8179836591618411,-0.8179836591618411
-0.7646212158203359,-0.7646212158203359
-0.7475672390823291,-0.7475672390823291
-0.7244618512437393,-0.7244618512437393
-0.6777009472846883,-0.6777009472846883
-0.7200608249887698,-0.7200608249887698
-0.9582663710389939,-0.9582663710389939
-1.2239783311827774,-1.2239783311827774
-1.1689655029956587,-1.1689655029956587
-0.6562459442917121,-0.6562459442917121
0.16454545226009948,0.16454545226009948
1.2455475261369826,1.2455475261369826
2.691834779176334,2.691834779176334
4.256399612817991,4.256399612817991
5.148707686013057,5.148707686013057
4.7564662210389,4.7564662210389
3.323932175046328,3.323932175046328
1.6542928395672747,1.6542928395672747
0.30537829241912345,0.30537829241912345
-0.6215878625338273,-0.6215878625338273
-1.1689655029956587,-1.1689655029956587
-1.3587597602412183,-1.3587597602412183
-1.3092482148728115,-1.3092482148728115
-1.193171147397991,-1.193171147397991
-1.0985490829161466,-1.0985490829161466
-1.0193306103266957,-1.0193306103266957
-0.9582663710389939,-0.9582663710389939
-0.9214077761536243,-0.9214077761536243
-0.8884000792413531,-0.8884000792413531
-0.8449399449735293,-0.8449399449735293
-0.8179836591618411,-0.8179836591618411
-0.8014798107057055,-0.8014798107057055
-0.7475672390823291,-0.7475672390823291
-0.6606469705466815,-0.6606469705466815
-0.6072845272051764,-0.6072845272051764
-0.6391919675537052,-0.6391919675537052
-0.6777009472846883,-0.6777009472846883
-0.6446932503724171,-0.6446932503724171
-0.5374182354075355,-0.5374182354075355
-0.4433462992075625,-0.4433462992075625
-0.3965853952485116,-0.3965853952485116
-0.34762397816197593,-0.34762397816197593
-0.2563026833713588,-0.2563026833713588
-0.1583798491982875,-0.1583798491982875
-0.11601997149420605,-0.11601997149420605
-0.10776804726613824,-0.10776804726613824
-0.04560355141469407,-0.04560355141469407
0.11503390689169263,0.11503390689169263
0.30537829241912345,0.30537829241912345
0.4368589517863372,0.4368589517863372
0.515527296093917,0.515527296093917
0.6442573140517748,0.6442573140517748
0.8665091399277345,0.8665091399277345
1.0997635314411178,1.0997635314411178
1.217490983761552,1.217490983761552
1.2240925231440063,1.2240925231440063
1.217490983761552,1.217490983761552
1.2427968847276265,1.2427968847276265
1.217490983761552,1.217490983761552
1.0920617354949214,1.0920617354949214
0.9369255600072465,0.9369255600072465
0.8461543934985005,0.8461543934985005
0.7966428481300937,0.7966428481300937
0.7152238624131579,0.7152238624131579
0.5859437161734289,0.5859437161734289
0.44786151742376096,0.44786151742376096
0.30537829241912345,0.30537829241912345
0.15299275834080456,0.15299275834080456
0.02426274038294672,0.02426274038294672
-0.03515111405914151,-0.03515111405914151
-0.04560355141469407,-0.04560355141469407
-0.0830122745819348,-0.0830122745819348
-0.18643639157371802,-0.18643639157371802
-0.3102152549947352,-0.3102152549947352
-0.3965853952485116,-0.3965853952485116
-0.45985014766369814,-0.45985014766369814
-0.5374182354075355,-0.5374182354075355
-0.5715261888835492,-0.5715261888835492
-0.46700181532802354,-0.46700181532802354
-0.2926111499748572,-0.2926111499748572
-0.2563026833713588,-0.2563026833713588
-0.40758796088593535,-0.40758796088593535
-0.5374182354075355,-0.5374182354075355
-0.49450822942158296,-0.49450822942158296
-0.3965853952485116,-0.3965853952485116
-0.38778334273857257,-0.38778334273857257
-0.3965853952485116,-0.3965853952485116
-0.32396846204151486,-0.32396846204151486
-0.2563026833713588,-0.2563026833713588
-0.28931038028363004,-0.28931038028363004
-0.3267191034508708,-0.3267191034508708
-0.2579530682169724,-0.2579530682169724
-0.18643639157371802,-0.18643639157371802
-0.25520242680761646,-0.25520242680761646
-0.3965853952485116,-0.3965853952485116
-0.430143220442654,-0.430143220442654
-0.3267191034508708,-0.3267191034508708
-0.19798908549301297,-0.19798908549301297
-0.11601997149420605,-0.11601997149420605
-0.06320765643457206,-0.06320765643457206
-0.04560355141469407,-0.04560355141469407
-0.09456496850122974,-0.09456496850122974
-0.18643639157371802,-0.18643639157371802
-0.2320970389690266,-0.2320970389690266
-0.18643639157371802,-0.18643639157371802
-0.11106881695736537,-0.11106881695736537
-0.11601997149420605,-0.11601997149420605
-0.21999421676786046,-0.21999421676786046
-0.3267191034508708,-0.3267191034508708
-0.33717154080642336,-0.33717154080642336
-0.2563026833713588,-0.2563026833713588
-0.14627702699712136,-0.14627702699712136
-0.04560355141469407,-0.04560355141469407
0.023712612101075534,0.023712612101075534
0.02426274038294672,0.02426274038294672
-0.04395316656908051,-0.04395316656908051
-0.11601997149420605,-0.11601997149420605
-0.11932074118543318,-0.11932074118543318
-0.04560355141469407,-0.04560355141469407
0.0990801867174282,0.0990801867174282
0.30537829241912345,0.30537829241912345
0.5056249870202356,0.5056249870202356
0.5859437161734289,0.5859437161734289
0.5441339667512187,0.5441339667512187
0.515527296093917,0.515527296093917
0.5886943575827849,0.5886943575827849
0.6563601362529409,0.6563601362529409
0.5787920485091035,0.5787920485091035
0.37524458421676427,0.37524458421676427
0.19150173807178766,0.19150173807178766
0.0946791604624587,0.0946791604624587
0.03636556258411284,0.03636556258411284
-0.04560355141469407,-0.04560355141469407
-0.17818446734565022,-0.17818446734565022
-0.3267191034508708,-0.3267191034508708
-0.44114578608007776,-0.44114578608007776
-0.46700181532802354,-0.46700181532802354
-0.4604002759455693,-0.4604002759455693
-0.5374182354075355,-0.5374182354075355
-0.7052073613782478,-0.7052073613782478
-0.8179836591618411,-0.8179836591618411
-0.7607703178472377,-0.7607703178472377
-0.6072845272051764,-0.6072845272051764
-0.4890069466028711,-0.4890069466028711
-0.46700181532802354,-0.46700181532802354
-0.5731765737291628,-0.5731765737291628
-0.8179836591618411,-0.8179836591618411
-1.0297830476822483,-1.0297830476822483
-0.8884000792413531,-0.8884000792413531
-0.23649806522399608,-0.23649806522399608
0.7966428481300937,0.7966428481300937
2.0586371267425974,2.0586371267425974
3.464214886923481,3.464214886923481
4.6987027514424256,4.6987027514424256
5.148707686013057,5.148707686013057
4.457196435700975,4.457196435700975
2.9729503312125107,2.9729503312125107
1.4237890894632472,1.4237890894632472
0.23496187233961147,0.23496187233961147
-0.6012331161045933,-0.6012331161045933
-1.1689655029956587,-1.1689655029956587
-1.4115720753008523,-1.4115720753008523
-1.3092482148728115,-1.3092482148728115
-1.031983560809733,-1.031983560809733
-0.8179836591618411,-0.8179836591618411
-0.7360145451630342,-0.7360145451630342
-0.6777009472846883,-0.6777009472846883
-0.559423366682383,-0.559423366682383
-0.46700181532802354,-0.46700181532802354
-0.5187138738239152,-0.5187138738239152
-0.6777009472846883,-0.6777009472846883
-0.7651713441022072,-0.7651713441022072
-0.6777009472846883,-0.6777009472846883
-0.5055107950590066,-0.5055107950590066
-0.3965853952485116,-0.3965853952485116
-0.4130892437046472,-0.4130892437046472
-0.46700181532802354,-0.46700181532802354
-0.47305322642860664,-0.47305322642860664
-0.3965853952485116,-0.3965853952485116
-0.28435922574678935,-0.28435922574678935
-0.18643639157371802,-0.18643639157371802
-0.1308734351047281,-0.1308734351047281
-0.11601997149420605,-0.11601997149420605
-0.10171663616555518,-0.10171663616555518
-0.04560355141469407,-0.04560355141469407
0.058920822140831525,0.058920822140831525
0.16454545226009948,0.16454545226009948
0.23881277031270978,0.23881277031270978
0.30537829241912345,0.30537829241912345
0.4203551033302016,0.4203551033302016
0.5859437161734289,0.5859437161734289
0.7498819441710427,0.7498819441710427
0.8665091399277345,0.8665091399277345
0.9633317175370635,0.9633317175370635
1.0772082718843992,1.0772082718843992
1.1888843131042501,1.1888843131042501
1.217490983761552,1.217490983761552
1.138272511172101,1.138272511172101
1.0073419800867585,1.0073419800867585
0.8934654257394227,0.8934654257394227
0.7966428481300937,0.7966428481300937
0.694869115983924,0.694869115983924
0.5859437161734289,0.5859437161734289
0.4671160072892525,0.4671160072892525
0.30537829241912345,0.30537829241912345
0.1078822392273672,0.1078822392273672
-0.04560355141469407,-0.04560355141469407
-0.08246214630006363,-0.08246214630006363
-0.04560355141469407,-0.04560355141469407
-0.05935675846147376,-0.05935675846147376
-0.18643639157371802,-0.18643639157371802
-0.3569761589537861,-0.3569761589537861
-0.46700181532802354,-0.46700181532802354
-0.5044105384952643,-0.5044105384952643
-0.5374182354075355,-0.5374182354075355
-0.5896804221852984,-0.5896804221852984
-0.6072845272051764,-0.6072845272051764
-0.5682254191923221,-0.5682254191923221
-0.5374182354075355,-0.5374182354075355
-0.5654747777829662,-0.5654747777829662
-0.6072845272051764,-0.6072845272051764
-0.6105852968964035,-0.6105852968964035
-0.6072845272051764,-0.6072845272051764
-0.6435929938086747,-0.6435929938086747
-0.6777009472846883,-0.6777009472846883
-0.6380917109899629,-0.6380917109899629
-0.5374182354075355,-0.5374182354075355
-0.4444465557713049,-0.4444465557713049
-0.3965853952485116,-0.3965853952485116
-0.38063167507424717,-0.38063167507424717
-0.3965853952485116,-0.3965853952485116
-0.4559992496905998,-0.4559992496905998
-0.5374182354075355,-0.5374182354075355
-0.5775775999841323,-0.5775775999841323
-0.5374182354075355,-0.5374182354075355
-0.4323437335701388,-0.4323437335701388
-0.3267191034508708,-0.3267191034508708
-0.2645546075994266,-0.2645546075994266
-0.2563026833713588,-0.2563026833713588
-0.283258969183047,-0.283258969183047
-0.3267191034508708,-0.3267191034508708
-0.35037461957133187,-0.35037461957133187
-0.3267191034508708,-0.3267191034508708
-0.27390678839123683,-0.27390678839123683
-0.2563026833713588,-0.2563026833713588
-0.29041063684737245,-0.29041063684737245
-0.3267191034508708,-0.3267191034508708
-0.3283694882964844,-0.3283694882964844
-0.3267191034508708,-0.3267191034508708
-0.3393720539339081,-0.3393720539339081
-0.3267191034508708,-0.3267191034508708
-0.27555717323685036,-0.27555717323685036
-0.2563026833713588,-0.2563026833713588
-0.3162666660953182,-0.3162666660953182
-0.3965853952485116,-0.3965853952485116
-0.4180403982414879,-0.4180403982414879
-0.3965853952485116,-0.3965853952485116
-0.38943372758418615,-0.38943372758418615
-0.3965853952485116,-0.3965853952485116
-0.3767807771011488,-0.3767807771011488
-0.3267191034508708,-0.3267191034508708
-0.26400447931755544,-0.26400447931755544
-0.18643639157371802,-0.18643639157371802
-0.08246214630006363,-0.08246214630006363
0.02426274038294672,0.02426274038294672
0.12438608768350282,0.12438608768350282
0.23496187233961147,0.23496187233961147
0.3592908640424998,0.3592908640424998
0.4456610042962762,0.4456610042962762
0.46271498103428305,0.46271498103428305
0.4456610042962762,0.4456610042962762
0.4473113891418898,0.4473113891418898
0.4456610042962762,0.4456610042962762
0.3818461235992185,0.3818461235992185
0.23496187233961147,0.23496187233961147
0.06882313121451289,0.06882313121451289
-0.04560355141469407,-0.04560355141469407
-0.09291458365561618,-0.09291458365561618
-0.11601997149420605,-0.11601997149420605
-0.18863690470120278,-0.18863690470120278
-0.3267191034508708,-0.3267191034508708
-0.49450822942158296,-0.49450822942158296
-0.6072845272051764,-0.6072845272051764
-0.6314901716075086,-0.6314901716075086
-0.6072845272051764,-0.6072845272051764
-0.5918809353127832,-0.5918809353127832
-0.6072845272051764,-0.6072845272051764
-0.6402922241174477,-0.6402922241174477
-0.6777009472846883,-0.6777009472846883
-0.6887035129221121,-0.6887035129221121
-0.6777009472846883,-0.6777009472846883
-0.7393153148542614,-0.7393153148542614
-0.9582663710389939,-0.9582663710389939
-1.176117170659984,-1.176117170659984
-1.028682791118506,-1.028682791118506
-0.292061021692986,-0.292061021692986
0.9369255600072465,0.9369255600072465
2.437125384669974,2.437125384669974
3.9554794426344513,3.9554794426344513
5.032080490256365,5.032080490256365
5.078841394215416,5.078841394215416
3.9631812385806477,3.9631812385806477
2.270986643544876,2.270986643544876
0.7674860491909208,0.7674860491909208
-0.2563026833713588,-0.2563026833713588
-0.9016031580062617,-0.9016031580062617
-1.2393819230751706,-1.2393819230751706
-1.2591865412225334,-1.2591865412225334
-1.0985490829161466,-1.0985490829161466
-0.9764206043407431,-0.9764206043407431
-0.9582663710389939,-0.9582663710389939
-0.9478139336834414,-0.9478139336834414
-0.8884000792413531,-0.8884000792413531
-0.8102818632156445,-0.8102818632156445
-0.7475672390823291,-0.7475672390823291
-0.7008063351232783,-0.7008063351232783
-0.6777009472846883,-0.6777009472846883
-0.679351332130302,-0.679351332130302
-0.6777009472846883,-0.6777009472846883
-0.6534953028823561,-0.6534953028823561
-0.6072845272051764,-0.6072845272051764
-0.5720763171654204,-0.5720763171654204
-0.5374182354075355,-0.5374182354075355
-0.5049606667771355,-0.5049606667771355
-0.46700181532802354,-0.46700181532802354
-0.4323437335701388,-0.4323437335701388
-0.3965853952485116,-0.3965853952485116
-0.34157256706139283,-0.34157256706139283
-0.2563026833713588,-0.2563026833713588
-0.15012792497021965,-0.15012792497021965
-0.04560355141469407,-0.04560355141469407
0.054519795885862025,0.054519795885862025
0.16454545226009948,0.16454545226009948
0.2993268813185404,0.2993268813185404
0.4456610042962762,0.4456610042962762
0.5908948707102696,0.5908948707102696
0.7262264280505817,0.7262264280505817
0.8467045217803717,0.8467045217803717
0.9369255600072465,0.9369255600072465
1.006241723523016,1.006241723523016
1.0772082718843992,1.0772082718843992
1.161928027292562,1.161928027292562
1.217490983761552,1.217490983761552
1.1927352110773486,1.1927352110773486
1.0772082718843992,1.0772082718843992
0.9275733792154363,0.9275733792154363
0.7966428481300937,0.7966428481300937
0.694869115983924,0.694869115983924
0.5859437161734289,0.5859437161734289
0.4506121588331169,0.4506121588331169
0.30537829241912345,0.30537829241912345
0.18545032697120462,0.18545032697120462
0.0946791604624587,0.0946791604624587
0.0028077373899704143,0.0028077373899704143
-0.11601997149420605,-0.11601997149420605
-0.2397988349152232,-0.2397988349152232
-0.3267191034508708,-0.3267191034508708
-0.36742859630933866,-0.36742859630933866
-0.3965853952485116,-0.3965853952485116
-0.43619463154323707,-0.43619463154323707
-0.46700181532802354,-0.46700181532802354
-0.47250309814673547,-0.47250309814673547
-0.46700181532802354,-0.46700181532802354
-0.4686522001736371,-0.4686522001736371
-0.46700181532802354,-0.46700181532802354
-0.45930001938182696,-0.45930001938182696
-0.46700181532802354,-0.46700181532802354
-0.5027601536496508,-0.5027601536496508
-0.5374182354075355,-0.5374182354075355
-0.5434696465081186,-0.5434696465081186
-0.5374182354075355,-0.5374182354075355
-0.5401688768168915,-0.5401688768168915
-0.5374182354075355,-0.5374182354075355
-0.5060609233408778,-0.5060609233408778
-0.46700181532802354,-0.46700181532802354
-0.45324860828124386,-0.45324860828124386
-0.46700181532802354,-0.46700181532802354
-0.47690412440170493,-0.47690412440170493
-0.46700181532802354,-0.46700181532802354
-0.43674475982510824,-0.43674475982510824
-0.3965853952485116,-0.3965853952485116
-0.35422551754443016,-0.35422551754443016
-0.3267191034508708,-0.3267191034508708
-0.32011756406841657,-0.32011756406841657
-0.3267191034508708,-0.3267191034508708
-0.32891961657835556,-0.32891961657835556
-0.3267191034508708,-0.3267191034508708
-0.3250687186052572,-0.3250687186052572
-0.3267191034508708,-0.3267191034508708
-0.3267191034508708,-0.3267191034508708
-0.3267191034508708,-0.3267191034508708
-0.3267191034508708,-0.3267191034508708
-0.3267191034508708,-0.3267191034508708
-0.3250687186052572,-0.3250687186052572
-0.3267191034508708,-0.3267191034508708
-0.32891961657835556,-0.32891961657835556
-0.3267191034508708,-0.3267191034508708
-0.3223180771959013,-0.3223180771959013
-0.3267191034508708,-0.3267191034508708
-0.33222038626958267,-0.33222038626958267
-0.3267191034508708,-0.3267191034508708
-0.3151664095315759,-0.3151664095315759
-0.3267191034508708,-0.3267191034508708
-0.3470738498801047,-0.3470738498801047
-0.3267191034508708,-0.3267191034508708
-0.23594793694212488,-0.23594793694212488
-0.11601997149420605,-0.11601997149420605
-0.00654444340183977,-0.00654444340183977
0.0946791604624587,0.0946791604624587
0.20580507340043855,0.20580507340043855
0.30537829241912345,0.30537829241912345
0.3785453539079914,0.3785453539079914
0.4456610042962762,0.4456610042962762
0.5303807597044391,0.5303807597044391
0.5859437161734289,0.5859437161734289
0.5397329404962492,0.5397329404962492
0.37524458421676427,0.37524458421676427
0.17444776133378087,0.17444776133378087
0.02426274038294672,0.02426274038294672
-0.056606117052117814,-0.056606117052117814
-0.11601997149420605,-0.11601997149420605
-0.20789139456669434,-0.20789139456669434
-0.3267191034508708,-0.3267191034508708
-0.4482974537444032,-0.4482974537444032
-0.5374182354075355,-0.5374182354075355
-0.6105852968964035,-0.6105852968964035
-0.6777009472846883,-0.6777009472846883
-0.7261122360893528,-0.7261122360893528
-0.7475672390823291,-0.7475672390823291
-0.7701224986390478,-0.7701224986390478
-0.8179836591618411,-0.8179836591618411
-0.8487908429466277,-0.8487908429466277
-0.8179836591618411,-0.8179836591618411
-0.7723230117665326,-0.7723230117665326
-0.8179836591618411,-0.8179836591618411
-0.9461635488378278,-0.9461635488378278
-0.9582663710389939,-0.9582663710389939
-0.6072845272051764,-0.6072845272051764
0.16454545226009948,0.16454545226009948
1.2097891878153553,1.2097891878153553
2.4112693554220286,2.4112693554220286
3.8184975004485255,3.8184975004485255
5.289540526172081,5.289540526172081
6.1389385933811935,6.1389385933811935
5.570105949926386,5.570105949926386
3.6441068350953594,3.6441068350953594
1.4281901157182166,1.4281901157182166
-0.04175265344159576,-0.04175265344159576
-0.6777009472846883,-0.6777009472846883
-0.973119834649516,-0.973119834649516
-1.1689655029956587,-1.1689655029956587
-1.1541120393851365,-1.1541120393851365
-0.9582663710389939,-0.9582663710389939
-0.8300864813630072,-0.8300864813630072
-0.8884000792413531,-0.8884000792413531
-1.000076120461204,-1.000076120461204
-1.028682791118506,-1.028682791118506
-0.9709193215220312,-0.9709193215220312
-0.8884000792413531,-0.8884000792413531
-0.8135826329068716,-0.8135826329068716
-0.7475672390823291,-0.7475672390823291
-0.6639477402379087,-0.6639477402379087
-0.5374182354075355,-0.5374182354075355
-0.42629232246955573,-0.42629232246955573
-0.3965853952485116,-0.3965853952485116
-0.4471971971806608,-0.4471971971806608
-0.46700181532802354,-0.46700181532802354
-0.42959309216078284,-0.42959309216078284
-0.3965853952485116,-0.3965853952485116
-0.41143885885903364,-0.41143885885903364
-0.3965853952485116,-0.3965853952485116
-0.2612538379081995,-0.2612538379081995
-0.04560355141469407,-0.04560355141469407
0.11943493314666213,0.11943493314666213
0.16454545226009948,0.16454545226009948
0.14804160380396386,0.14804160380396386
0.16454545226009948,0.16454545226009948
0.2690698258156251,0.2690698258156251
0.4456610042962762,0.4456610042962762
0.6431570574880324,0.6431570574880324
0.7966428481300937,0.7966428481300937
0.8863137580750972,0.8863137580750972
0.9369255600072465,0.9369255600072465
0.9963394144493347,0.9963394144493347
1.0772082718843992,1.0772082718843992
1.1652287969837891,1.1652287969837891
1.217490983761552,1.217490983761552
1.191084826231735,1.191084826231735
1.0772082718843992,1.0772082718843992
0.944627355953443,0.944627355953443
0.8665091399277345,0.8665091399277345
0.8280001601967514,0.8280001601967514
0.7262264280505817,0.7262264280505817
0.5237792203219848,0.5237792203219848
0.30537829241912345,0.30537829241912345
0.168946478515069,0.168946478515069
0.0946791604624587,0.0946791604624587
0.004458122235583976,0.004458122235583976
-0.11601997149420605,-0.11601997149420605
-0.21119216425792145,-0.21119216425792145
-0.2563026833713588,-0.2563026833713588
-0.28435922574678935,-0.28435922574678935
-0.3267191034508708,-0.3267191034508708
-0.3745802639736641,-0.3745802639736641
-0.3965853952485116,-0.3965853952485116
-0.3734800074099217,-0.3734800074099217
-0.3267191034508708,-0.3267191034508708
-0.3228682054777725,-0.3228682054777725
-0.3965853952485116,-0.3965853952485116
-0.48460592034790156,-0.48460592034790156
-0.46700181532802354,-0.46700181532802354
-0.3234183337596437,-0.3234183337596437
-0.18643639157371802,-0.18643639157371802
-0.21064203597605027,-0.21064203597605027
-0.3965853952485116,-0.3965853952485116
-0.5814284979572306,-0.5814284979572306
-0.6072845272051764,-0.6072845272051764
-0.47965476581106087,-0.47965476581106087
-0.3267191034508708,-0.3267191034508708
-0.23154691068715538,-0.23154691068715538
-0.18643639157371802,-0.18643639157371802
-0.1825854936006197,-0.1825854936006197
-0.2563026833713588,-0.2563026833713588
-0.36797872459120984,-0.36797872459120984
-0.3965853952485116,-0.3965853952485116
-0.3168167943771894,-0.3168167943771894
-0.2563026833713588,-0.2563026833713588
-0.27225640354562325,-0.27225640354562325
-0.2563026833713588,-0.2563026833713588
-0.1572795926345451,-0.1572795926345451
-0.11601997149420605,-0.11601997149420605
-0.2177937036403757,-0.2177937036403757
-0.3267191034508708,-0.3267191034508708
-0.3129658964040911,-0.3129658964040911
-0.2563026833713588,-0.2563026833713588
-0.24144921976083675,-0.24144921976083675
-0.18643639157371802,-0.18643639157371802
-0.05935675846147376,-0.05935675846147376
-0.04560355141469407,-0.04560355141469407
-0.2574029399351012,-0.2574029399351012
-0.46700181532802354,-0.46700181532802354
-0.3784311619467624,-0.3784311619467624
-0.04560355141469407,-0.04560355141469407
0.1992035340179843,0.1992035340179843
0.16454545226009948,0.16454545226009948
-0.0357012423410127,-0.0357012423410127
-0.18643639157371802,-0.18643639157371802
-0.17653408250003666,-0.17653408250003666
-0.04560355141469407,-0.04560355141469407
0.09632954530807226,0.09632954530807226
0.16454545226009948,0.16454545226009948
0.18269968556184868,0.18269968556184868
0.23496187233961147,0.23496187233961147
0.3449875287138489,0.3449875287138489
0.4456610042962762,0.4456610042962762
0.5105761415570763,0.5105761415570763
0.5859437161734289,0.5859437161734289
0.6855169351921139,0.6855169351921139
0.7262264280505817,0.7262264280505817
0.6701133432997206,0.6701133432997206
0.5859437161734289,0.5859437161734289
0.5287303748588255,0.5287303748588255
0.4456610042962762,0.4456610042962762
0.3196816277477743,0.3196816277477743
0.23496187233961147,0.23496187233961147
0.19755314917237074,0.19755314917237074
0.0946791604624587,0.0946791604624587
-0.09621535334684331,-0.09621535334684331
-0.18643639157371802,-0.18643639157371802
-0.12207138259478911,-0.12207138259478911
-0.11601997149420605,-0.11601997149420605
-0.309665126712864,-0.309665126712864
-0.5374182354075355,-0.5374182354075355
-0.632590428171251,-0.632590428171251
-0.6777009472846883,-0.6777009472846883
-0.7013564634051495,-0.7013564634051495
-0.5374182354075355,-0.5374182354075355
-0.2133926773854062,-0.2133926773854062
-0.11601997149420605,-0.11601997149420605
-0.41088873057716246,-0.41088873057716246
-0.6777009472846883,-0.6777009472846883
-0.45324860828124386,-0.45324860828124386
0.23496187233961147,0.23496187233961147
1.1844832868492807,1.1844832868492807
2.4112693554220286,2.4112693554220286
3.8096954479385867,3.8096954479385867
4.797725842179239,4.797725842179239
4.800476483588595,4.800476483588595
3.8850630225549394,3.8850630225549394
2.58345950764771,2.58345950764771
1.287907403841064,1.287907403841064
0.151342373495191,0.151342373495191
-0.6777009472846883,-0.6777009472846883
-1.0666416425676177,-1.0666416425676177
-1.0985490829161466,-1.0985490829161466
-0.9808216305957126,-0.9808216305957126
-0.8179836591618411,-0.8179836591618411
-0.6067343989233052,-0.6067343989233052
-0.3965853952485116,-0.3965853952485116
-0.292061021692986,-0.292061021692986
-0.3267191034508708,-0.3267191034508708
-0.42409180934207097,-0.42409180934207097
-0.46700181532802354,-0.46700181532802354
-0.37788103366489123,-0.37788103366489123
-0.18643639157371802,-0.18643639157371802
-0.03625137062288389,-0.03625137062288389
-0.04560355141469407,-0.04560355141469407
-0.17818446734565022,-0.17818446734565022
-0.2563026833713588,-0.2563026833713588
-0.22824614099592827,-0.22824614099592827
-0.18643639157371802,-0.18643639157371802
-0.2221947298953452,-0.2221947298953452
-0.2563026833713588,-0.2563026833713588
-0.18588626329184685,-0.18588626329184685
-0.04560355141469407,-0.04560355141469407
0.053419539322119645,0.053419539322119645
0.0946791604624587,0.0946791604624587
0.1639953239782283,0.1639953239782283
0.30537829241912345,0.30537829241912345
0.46601575072551016,0.46601575072551016
0.5859437161734289,0.5859437161734289
0.6794655240915307,0.6794655240915307
0.7966428481300937,0.7966428481300937
0.944627355953443,0.944627355953443
1.0772082718843992,1.0772082718843992
1.1657789252656603,1.1657789252656603
1.217490983761552,1.217490983761552
1.2416966281638842,1.2416966281638842
1.217490983761552,1.217490983761552
1.14707456368204,1.14707456368204
1.0772082718843992,1.0772082718843992
1.0596041668645213,1.0596041668645213
1.0772082718843992,1.0772082718843992
1.0711568607838162,1.0711568607838162
1.0073419800867585,1.0073419800867585
0.9088690176318159,0.9088690176318159
0.7966428481300937,0.7966428481300937
0.6459076988973883,0.6459076988973883
0.4456610042962762,0.4456610042962762
0.2795222631711776,0.2795222631711776
0.23496187233961147,0.23496187233961147
0.23111097436651315,0.23111097436651315
0.0946791604624587,0.0946791604624587
-0.14792741184273492,-0.14792741184273492
-0.2563026833713588,-0.2563026833713588
-0.14737728356086371,-0.14737728356086371
-0.04560355141469407,-0.04560355141469407
-0.12867292197724337,-0.12867292197724337
-0.2563026833713588,-0.2563026833713588
-0.24970114398890458,-0.24970114398890458
-0.18643639157371802,-0.18643639157371802
-0.21064203597605027,-0.21064203597605027
-0.2563026833713588,-0.2563026833713588
-0.21669344707663332,-0.21669344707663332
-0.18643639157371802,-0.18643639157371802
-0.30196333076666737,-0.30196333076666737
-0.46700181532802354,-0.46700181532802354
-0.4774542526835761,-0.4774542526835761
-0.3267191034508708,-0.3267191034508708
-0.1924878026743011,-0.1924878026743011
-0.18643639157371802,-0.18643639157371802
-0.2574029399351012,-0.2574029399351012
-0.3267191034508708,-0.3267191034508708
-0.37127949428243695,-0.37127949428243695
-0.3965853952485116,-0.3965853952485116
-0.38448257304734546,-0.38448257304734546
-0.3267191034508708,-0.3267191034508708
-0.26400447931755544,-0.26400447931755544
-0.2563026833713588,-0.2563026833713588
-0.2997628176391826,-0.2997628176391826
-0.3267191034508708,-0.3267191034508708
-0.2981124327935691,-0.2981124327935691
-0.2563026833713588,-0.2563026833713588
-0.2309967824052842,-0.2309967824052842
-0.18643639157371802,-0.18643639157371802
-0.10116650788368399,-0.10116650788368399
-0.04560355141469407,-0.04560355141469407
-0.0879634291187755,-0.0879634291187755
-0.18643639157371802,-0.18643639157371802
-0.24640037429767744,-0.24640037429767744
-0.2563026833713588,-0.2563026833713588
-0.2733566601093656,-0.2733566601093656
-0.3267191034508708,-0.3267191034508708
-0.3833823164836031,-0.3833823164836031
-0.3965853952485116,-0.3965853952485116
-0.3283694882964844,-0.3283694882964844
-0.18643639157371802,-0.18643639157371802
-0.05605598877024663,-0.05605598877024663
-0.04560355141469407,-0.04560355141469407
-0.13417420479595524,-0.13417420479595524
-0.18643639157371802,-0.18643639157371802
-0.13252381995034168,-0.13252381995034168
-0.04560355141469407,-0.04560355141469407
0.0336149211747569,0.0336149211747569
0.16454545226009948,0.16454545226009948
0.3504888115325608,0.3504888115325608
0.4456610042962762,0.4456610042962762
0.3812959953173473,0.3812959953173473
0.30537829241912345,0.30537829241912345
0.37909548218986255,0.37909548218986255
0.515527296093917,0.515527296093917
0.5083756284295916,0.5083756284295916
0.30537829241912345,0.30537829241912345
0.05286941104024846,0.05286941104024846
-0.11601997149420605,-0.11601997149420605
-0.18038498047313498,-0.18038498047313498
-0.18643639157371802,-0.18643639157371802
-0.2177937036403757,-0.2177937036403757
-0.3267191034508708,-0.3267191034508708
-0.4906573314484846,-0.4906573314484846
-0.6072845272051764,-0.6072845272051764
-0.6672485099291359,-0.6672485099291359
-0.7475672390823291,-0.7475672390823291
-0.8399887904366886,-0.8399887904366886
-0.8179836591618411,-0.8179836591618411
-0.6578963291373257,-0.6578963291373257
-0.5374182354075355,-0.5374182354075355
-0.5720763171654204,-0.5720763171654204
-0.6777009472846883,-0.6777009472846883
-0.7816751925583428,-0.7816751925583428
-0.9582663710389939,-0.9582663710389939
-1.1651146050225603,-1.1651146050225603
-1.0985490829161466,-1.0985490829161466
-0.4961586142671965,-0.4961586142671965
0.5859437161734289,0.5859437161734289
1.9453107006771329,1.9453107006771329
3.393798466843969,3.393798466843969
4.58042517084012,4.58042517084012
4.938558682338263,4.938558682338263
4.183232551329123,4.183232551329123
2.691834779176334,2.691834779176334
1.173480721211857,1.173480721211857
0.02426274038294672,0.02426274038294672
-0.7745235248940173,-0.7745235248940173
-1.3092482148728115,-1.3092482148728115
-1.5188470902657338,-1.5188470902657338
-1.3796646349523234,-1.3796646349523234
-1.0770940799231703,-1.0770940799231703
-0.8884000792413531,-0.8884000792413531
-0.8972021317512922,-0.8972021317512922
-0.9582663710389939,-0.9582663710389939
-0.9219579044354955,-0.9219579044354955
-0.8179836591618411,-0.8179836591618411
-0.7360145451630342,-0.7360145451630342
-0.6777009472846883,-0.6777009472846883
-0.6012331161045933,-0.6012331161045933
-0.5374182354075355,-0.5374182354075355
-0.5313668243069525,-0.5313668243069525
-0.5374182354075355,-0.5374182354075355
-0.5280660546157253,-0.5280660546157253
-0.5374182354075355,-0.5374182354075355
-0.5973822181314951,-0.5973822181314951
-0.6072845272051764,-0.6072845272051764
-0.49450822942158296,-0.49450822942158296
-0.3267191034508708,-0.3267191034508708
-0.2221947298953452,-0.2221947298953452
-0.18643639157371802,-0.18643639157371802
-0.13417420479595524,-0.13417420479595524
-0.04560355141469407,-0.04560355141469407
0.03691569086598403,0.03691569086598403
0.0946791604624587,0.0946791604624587
0.17444776133378087,0.17444776133378087
0.30537829241912345,0.30537829241912345
0.4599643396249271,0.4599643396249271
0.5859437161734289,0.5859437161734289
0.6866171917558562,0.6866171917558562
0.7966428481300937,0.7966428481300937
0.920971839832982,0.920971839832982
1.0073419800867585,1.0073419800867585
1.0249460851066363,1.0249460851066363
1.0073419800867585,1.0073419800867585
1.005691595241145,1.005691595241145
1.0073419800867585,1.0073419800867585
0.9671826155101617,0.9671826155101617
0.8665091399277345,0.8665091399277345
0.7333780957149071,0.7333780957149071
0.5859437161734289,0.5859437161734289
0.439059464913822,0.439059464913822
0.30537829241912345,0.30537829241912345
0.19535263604488598,0.19535263604488598
0.0946791604624587,0.0946791604624587
-0.00874495652932452,-0.00874495652932452
-0.11601997149420605,-0.11601997149420605
-0.22109447333160284,-0.22109447333160284
-0.3267191034508708,-0.3267191034508708
-0.4180403982414879,-0.4180403982414879
-0.46700181532802354,-0.46700181532802354
-0.4703025850192507,-0.4703025850192507
-0.46700181532802354,-0.46700181532802354
-0.4923077162940982,-0.4923077162940982
-0.5374182354075355,-0.5374182354075355
-0.5759272151385187,-0.5759272151385187
-0.6072845272051764,-0.6072845272051764
-0.6441431220905459,-0.6441431220905459
-0.6777009472846883,-0.6777009472846883
-0.6881533846402409,-0.6881533846402409
-0.6777009472846883,-0.6777009472846883
-0.6699991513384917,-0.6699991513384917
-0.6777009472846883,-0.6777009472846883
-0.6881533846402409,-0.6881533846402409
-0.6777009472846883,-0.6777009472846883
-0.6237883756613121,-0.6237883756613121
-0.5374182354075355,-0.5374182354075355
-0.46810207189176595,-0.46810207189176595
-0.46700181532802354,-0.46700181532802354
-0.5126624627233322,-0.5126624627233322
-0.5374182354075355,-0.5374182354075355
-0.5060609233408778,-0.5060609233408778
-0.46700181532802354,-0.46700181532802354
-0.4604002759455693,-0.4604002759455693
-0.46700181532802354,-0.46700181532802354
-0.44114578608007776,-0.44114578608007776
-0.3965853952485116,-0.3965853952485116
-0.3784311619467624,-0.3784311619467624
-0.3965853952485116,-0.3965853952485116
-0.4092383457315489,-0.4092383457315489
-0.3965853952485116,-0.3965853952485116
-0.3828321882017319,-0.3828321882017319
-0.3965853952485116,-0.3965853952485116
-0.4169401416777455,-0.4169401416777455
-0.3965853952485116,-0.3965853952485116
-0.32451859032338604,-0.32451859032338604
-0.2563026833713588,-0.2563026833713588
-0.25685281165323,-0.25685281165323
-0.3267191034508708,-0.3267191034508708
-0.39383475383915567,-0.39383475383915567
-0.3965853952485116,-0.3965853952485116
-0.3520250044169454,-0.3520250044169454
-0.3267191034508708,-0.3267191034508708
-0.3514748761350742,-0.3514748761350742
-0.3965853952485116,-0.3965853952485116
-0.4119889871409048,-0.4119889871409048
-0.3965853952485116,-0.3965853952485116
-0.3866830861748302,-0.3866830861748302
-0.3965853952485116,-0.3965853952485116
-0.3701792377186946,-0.3701792377186946
-0.2563026833713588,-0.2563026833713588
-0.09291458365561618,-0.09291458365561618
0.02426274038294672,0.02426274038294672
0.08477685138877733,0.08477685138877733
0.16454545226009948,0.16454545226009948
0.29052482880860137,0.29052482880860137
0.37524458421676427,0.37524458421676427
0.3779952256261202,0.3779952256261202
0.37524458421676427,0.37524458421676427
0.4269566427126558,0.4269566427126558
0.4456610042962762,0.4456610042962762
0.3416867590226218,0.3416867590226218
0.16454545226009948,0.16454545226009948
0.031414408047272156,0.031414408047272156
-0.04560355141469407,-0.04560355141469407
-0.1176703563398196,-0.1176703563398196
-0.18643639157371802,-0.18643639157371802
-0.248050759143291,-0.248050759143291
-0.3267191034508708,-0.3267191034508708
-0.44499668405317605,-0.44499668405317605
-0.5374182354075355,-0.5374182354075355
-0.5726264454472916,-0.5726264454472916
-0.6072845272051764,-0.6072845272051764
-0.6688988947747494,-0.6688988947747494
-0.6777009472846883,-0.6777009472846883
-0.5632742646554814,-0.5632742646554814
-0.3965853952485116,-0.3965853952485116
-0.28215871261930464,-0.28215871261930464
-0.2563026833713588,-0.2563026833713588
-0.333320642833325,-0.333320642833325
-0.5374182354075355,-0.5374182354075355
-0.747017110800458,-0.747017110800458
-0.6777009472846883,-0.6777009472846883
-0.1094184321117518,-0.1094184321117518
0.9369255600072465,0.9369255600072465
2.318297675785798,2.318297675785798
3.8151967307572985,3.8151967307572985
4.980918560042345,4.980918560042345
5.219124106092568,5.219124106092568
4.306461286468269,4.306461286468269
2.691834779176334,2.691834779176334
1.1074653273873145,1.1074653273873145
-0.04560355141469407,-0.04560355141469407
-0.7673718572296919,-0.7673718572296919
-1.1689655029956587,-1.1689655029956587
-1.319150523946493,-1.319150523946493
-1.3092482148728115,-1.3092482148728115
-1.2245284594646486,-1.2245284594646486
-1.0985490829161466,-1.0985490829161466
-0.9626673972939634,-0.9626673972939634
-0.8884000792413531,-0.8884000792413531
-0.8911507206507091,-0.8911507206507091
-0.8884000792413531,-0.8884000792413531
-0.8201841722893259,-0.8201841722893259
-0.7475672390823291,-0.7475672390823291
-0.7387651865723902,-0.7387651865723902
-0.7475672390823291,-0.7475672390823291
-0.7013564634051495,-0.7013564634051495
-0.6072845272051764,-0.6072845272051764
-0.5533719555818,-0.5533719555818
-0.5374182354075355,-0.5374182354075355
-0.500559640522166,-0.500559640522166
-0.3965853952485116,-0.3965853952485116
-0.2898605085655013,-0.2898605085655013
-0.2563026833713588,-0.2563026833713588
-0.27555717323685036,-0.27555717323685036
-0.2563026833713588,-0.2563026833713588
-0.1583798491982875,-0.1583798491982875
-0.04560355141469407,-0.04560355141469407
0.02646325351043147,0.02646325351043147
0.0946791604624587,0.0946791604624587
0.2377125137489674,0.2377125137489674
0.4456610042962762,0.4456610042962762
0.6283035938775103,0.6283035938775103
0.7262264280505817,0.7262264280505817
0.7834397693651852,0.7834397693651852
0.8665091399277345,0.8665091399277345
0.982586207402555,0.982586207402555
1.0772082718843992,1.0772082718843992
1.1272699455346773,1.1272699455346773
1.1476246919639113,1.1476246919639113
1.1448740505545552,1.1448740505545552
1.0772082718843992,1.0772082718843992
0.9391260731347312,0.9391260731347312
0.7966428481300937,0.7966428481300937
0.7311775825874224,0.7311775825874224
0.7262264280505817,0.7262264280505817
0.6981698856751511,0.6981698856751511
0.5859437161734289,0.5859437161734289
0.41430369222961855,0.41430369222961855
0.23496187233961147,0.23496187233961147
0.0820262099794214,0.0820262099794214
-0.04560355141469407,-0.04560355141469407
-0.1583798491982875,-0.1583798491982875
-0.2563026833713588,-0.2563026833713588
-0.3179170509409318,-0.3179170509409318
-0.3267191034508708,-0.3267191034508708
-0.31076538327660636,-0.31076538327660636
-0.3267191034508708,-0.3267191034508708
-0.39328462555728444,-0.39328462555728444
-0.46700181532802354,-0.46700181532802354
-0.49340797285784055,-0.49340797285784055
-0.46700181532802354,-0.46700181532802354
-0.42299155277832856,-0.42299155277832856
-0.3965853952485116,-0.3965853952485116
-0.4119889871409048,-0.4119889871409048
-0.46700181532802354,-0.46700181532802354
-0.526965798051983,-0.526965798051983
-0.5374182354075355,-0.5374182354075355
-0.4807550223748033,-0.4807550223748033
-0.3965853952485116,-0.3965853952485116
-0.3404723104976505,-0.3404723104976505
-0.3267191034508708,-0.3267191034508708
-0.3283694882964844,-0.3283694882964844
-0.3267191034508708,-0.3267191034508708
-0.32561884688712844,-0.32561884688712844
-0.3267191034508708,-0.3267191034508708
-0.30361371561228095,-0.30361371561228095
-0.2563026833713588,-0.2563026833713588
-0.24530011773393506,-0.24530011773393506
-0.3267191034508708,-0.3267191034508708
-0.4433462992075625,-0.4433462992075625
-0.46700181532802354,-0.46700181532802354
-0.3635776983362404,-0.3635776983362404
-0.2563026833713588,-0.2563026833713588
-0.2618039661900707,-0.2618039661900707
-0.3267191034508708,-0.3267191034508708
-0.28931038028363004,-0.28931038028363004
-0.11601997149420605,-0.11601997149420605
0.023162483819204344,0.023162483819204344
-0.04560355141469407,-0.04560355141469407
-0.2612538379081995,-0.2612538379081995
-0.3965853952485116,-0.3965853952485116
-0.35477564582630133,-0.35477564582630133
-0.2563026833713588,-0.2563026833713588
-0.21394280566727739,-0.21394280566727739
-0.18643639157371802,-0.18643639157371802
-0.12812279369537216,-0.12812279369537216
-0.11601997149420605,-0.11601997149420605
-0.17983485219126377,-0.17983485219126377
-0.18643639157371802,-0.18643639157371802
-0.030199959522300826,-0.030199959522300826
0.16454545226009948,0.16454545226009948
0.22230892185657417,0.22230892185657417
0.16454545226009948,0.16454545226009948
0.17059686336068255,0.17059686336068255
0.30537829241912345,0.30537829241912345
0.47426767495357797,0.47426767495357797
0.5859437161734289,0.5859437161734289
0.6607611625079104,0.6607611625079104
0.7262264280505817,0.7262264280505817
0.727326684614324,0.727326684614324
0.5859437161734289,0.5859437161734289
0.351038939814432,0.351038939814432
0.16454545226009948,0.16454545226009948
0.0858771079525197,0.0858771079525197
0.02426274038294672,0.02426274038294672
-0.10886830382988061,-0.10886830382988061
-0.2563026833713588,-0.2563026833713588
-0.34762397816197593,-0.34762397816197593
-0.3965853952485116,-0.3965853952485116
-0.4686522001736371,-0.4686522001736371
-0.5374182354075355,-0.5374182354075355
-0.5324670808706948,-0.5324670808706948
-0.46700181532802354,-0.46700181532802354
-0.4317936052882676,-0.4317936052882676
-0.46700181532802354,-0.46700181532802354
-0.49450822942158296,-0.49450822942158296
-0.46700181532802354,-0.46700181532802354
-0.48955707488474226,-0.48955707488474226
-0.6777009472846883,-0.6777009472846883
-0.8917008489325803,-0.8917008489325803
-0.8179836591618411,-0.8179836591618411
-0.3437730801888776,-0.3437730801888776
0.37524458421676427,0.37524458421676427
1.293958814941647,1.293958814941647
2.5515520672991814,2.5515520672991814
3.993438294083563,3.993438294083563
4.938558682338263,4.938558682338263
4.789473917951171,4.789473917951171
3.6749140188801457,3.6749140188801457
2.233577920377635,2.233577920377635
0.9369255600072465,0.9369255600072465
-0.09071407052813144,-0.09071407052813144
-0.8179836591618411,-0.8179836591618411
-1.1865696080155366,-1.1865696080155366
-1.2393819230751706,-1.2393819230751706
-1.1007495960436315,-1.1007495960436315
-0.8884000792413531,-0.8884000792413531
-0.7096083876332172,-0.7096083876332172
-0.6777009472846883,-0.6777009472846883
-0.7855260905314411,-0.7855260905314411
-0.8884000792413531,-0.8884000792413531
-0.8823486681407701,-0.8823486681407701
-0.8179836591618411,-0.8179836591618411
-0.7602201895653665,-0.7602201895653665
-0.6777009472846883,-0.6777009472846883
-0.5544722121455423,-0.5544722121455423
-0.46700181532802354,-0.46700181532802354
-0.49010720316661344,-0.49010720316661344
-0.5374182354075355,-0.5374182354075355
-0.5049606667771355,-0.5049606667771355
-0.3965853952485116,-0.3965853952485116
-0.3305700014239691,-0.3305700014239691
-0.3267191034508708,-0.3267191034508708
-0.2799581994918199,-0.2799581994918199
-0.11601997149420605,-0.11601997149420605
0.08092595341567901,0.08092595341567901
0.16454545226009948,0.16454545226009948
0.14033980785776726,0.14033980785776726
0.16454545226009948,0.16454545226009948
0.34553765699572014,0.34553765699572014
0.5859437161734289,0.5859437161734289
0.721275273513741,0.721275273513741
0.7262264280505817,0.7262264280505817
0.7410798916611038,0.7410798916611038
0.8665091399277345,0.8665091399277345
1.0640051931194907,1.0640051931194907
1.217490983761552,1.217490983761552
1.2829562493042233,1.2829562493042233
1.287907403841064,1.287907403841064
1.2697531705393148,1.2697531705393148
1.217490983761552,1.217490983761552
1.1239691758434502,1.1239691758434502
1.0073419800867585,1.0073419800867585
0.9011672216856192,0.9011672216856192
0.7966428481300937,0.7966428481300937
0.6668125736084934,0.6668125736084934
0.515527296093917,0.515527296093917
0.3895479195454151,0.3895479195454151
0.30537829241912345,0.30537829241912345
0.22560969154780128,0.22560969154780128
0.0946791604624587,0.0946791604624587
-0.08741330083690431,-0.08741330083690431
-0.2563026833713588,-0.2563026833713588
-0.33772166908829454,-0.33772166908829454
-0.3267191034508708,-0.3267191034508708
-0.2981124327935691,-0.2981124327935691
-0.3267191034508708,-0.3267191034508708
-0.403737062912837,-0.403737062912837
-0.46700181532802354,-0.46700181532802354
-0.4972588708309389,-0.4972588708309389
-0.5374182354075355,-0.5374182354075355
-0.6155364514332442,-0.6155364514332442
-0.6777009472846883,-0.6777009472846883
-0.6463436352180307,-0.6463436352180307
-0.5374182354075355,-0.5374182354075355
-0.47140284158299306,-0.47140284158299306
-0.5374182354075355,-0.5374182354075355
-0.658996585701068,-0.658996585701068
-0.6777009472846883,-0.6777009472846883
-0.5489709293268304,-0.5489709293268304
-0.3965853952485116,-0.3965853952485116
-0.3316702579877115,-0.3316702579877115
-0.3267191034508708,-0.3267191034508708
-0.3168167943771894,-0.3168167943771894
-0.3267191034508708,-0.3267191034508708
-0.3921843689935421,-0.3921843689935421
-0.46700181532802354,-0.46700181532802354
-0.4857061769116439,-0.4857061769116439
-0.46700181532802354,-0.46700181532802354
-0.44279617092569135,-0.44279617092569135
-0.3965853952485116,-0.3965853952485116
-0.333320642833325,-0.333320642833325
-0.3267191034508708,-0.3267191034508708
-0.38063167507424717,-0.38063167507424717
-0.3965853952485116,-0.3965853952485116
-0.3404723104976505,-0.3404723104976505
-0.3267191034508708,-0.3267191034508708
-0.41088873057716246,-0.41088873057716246
-0.46700181532802354,-0.46700181532802354
-0.3822820599198607,-0.3822820599198607
-0.2563026833713588,-0.2563026833713588
-0.24199934804270795,-0.24199934804270795
-0.3267191034508708,-0.3267191034508708
-0.388883599302315,-0.388883599302315
-0.3965853952485116,-0.3965853952485116
-0.39933603665786754,-0.39933603665786754
-0.3965853952485116,-0.3965853952485116
-0.3404723104976505,-0.3404723104976505
-0.2563026833713588,-0.2563026833713588
-0.2397988349152232,-0.2397988349152232
-0.3267191034508708,-0.3267191034508708
-0.4202409113689726,-0.4202409113689726
-0.3965853952485116,-0.3965853952485116
-0.23594793694212488,-0.23594793694212488
-0.04560355141469407,-0.04560355141469407
0.06717274636889933,0.06717274636889933
0.0946791604624587,0.0946791604624587
0.11283339376420788,0.11283339376420788
0.16454545226009948,0.16454545226009948
0.2377125137489674,0.2377125137489674
0.30537829241912345,0.30537829241912345
0.37469445593489303,0.37469445593489303
0.4456610042962762,0.4456610042962762
0.48637049715474406,0.48637049715474406
0.4456610042962762,0.4456610042962762
0.32243226915713025,0.32243226915713025
0.16454545226009948,0.16454545226009948
0.03746581914785522,0.03746581914785522
-0.04560355141469407,-0.04560355141469407
-0.1314235633865993,-0.1314235633865993
-0.2563026833713588,-0.2563026833713588
-0.4141895002683896,-0.4141895002683896
-0.5374182354075355,-0.5374182354075355
-0.6160865797151154,-0.6160865797151154
-0.6777009472846883,-0.6777009472846883
-0.7316135189080647,-0.7316135189080647
-0.7475672390823291,-0.7475672390823291
-0.7151096704519291,-0.7151096704519291
-0.6777009472846883,-0.6777009472846883
-0.665047996801651,-0.665047996801651
-0.6777009472846883,-0.6777009472846883
-0.7173101835794139,-0.7173101835794139
-0.8179836591618411,-0.8179836591618411
-0.9626673972939634,-0.9626673972939634
-1.028682791118506,-1.028682791118506
-0.8289862247992649,-0.8289862247992649
-0.2563026833713588,-0.2563026833713588
0.6750644978365613,0.6750644978365613
1.9200047997110583,1.9200047997110583
3.438358857675535,3.438358857675535
4.938558682338263,4.938558682338263
5.709288405239796,5.709288405239796
5.078841394215416,5.078841394215416
3.216657160081447,3.216657160081447
1.1476246919639113,1.1476246919639113
-0.21119216425792145,-0.21119216425792145
-0.8179836591618411,-0.8179836591618411
-1.1189038293453806,-1.1189038293453806
-1.3092482148728115,-1.3092482148728115
-1.2877932118798352,-1.2877932118798352
-1.0985490829161466,-1.0985490829161466
-0.9604668841664786,-0.9604668841664786
-0.9582663710389939,-0.9582663710389939
-0.9813717588775838,-0.9813717588775838
-0.9582663710389939,-0.9582663710389939
-0.9186571347442685,-0.9186571347442685
-0.8884000792413531,-0.8884000792413531
-0.852641740919726,-0.852641740919726
-0.8179836591618411,-0.8179836591618411
-0.7915775016320241,-0.7915775016320241
-0.7475672390823291,-0.7475672390823291
-0.6991559502776646,-0.6991559502776646
-0.6777009472846883,-0.6777009472846883
-0.6958551805864376,-0.6958551805864376
-0.6777009472846883,-0.6777009472846883
-0.6072845272051764,-0.6072845272051764
-0.5374182354075355,-0.5374182354075355
-0.5066110516227491,-0.5066110516227491
-0.46700181532802354,-0.46700181532802354
-0.36907898115495225,-0.36907898115495225
-0.2563026833713588,-0.2563026833713588
-0.19743895721114177,-0.19743895721114177
-0.18643639157371802,-0.18643639157371802
-0.14682715527899254,-0.14682715527899254
-0.04560355141469407,-0.04560355141469407
0.09247864733497395,0.09247864733497395
0.23496187233961147,0.23496187233961147
0.39724971549161175,0.39724971549161175
0.5859437161734289,0.5859437161734289
0.7630850229359513,0.7630850229359513
0.8665091399277345,0.8665091399277345
0.9077687610680735,0.9077687610680735
0.9369255600072465,0.9369255600072465
0.964982102382677,0.964982102382677
0.9369255600072465,0.9369255600072465
0.8560567025721819,0.8560567025721819
0.7966428481300937,0.7966428481300937
0.7872906673382835,0.7872906673382835
0.7262264280505817,0.7262264280505817
0.5402830687781205,0.5402830687781205
0.30537829241912345,0.30537829241912345
0.15629352803203167,0.15629352803203167
0.0946791604624587,0.0946791604624587
0.020411842409848408,0.020411842409848408
-0.11601997149420605,-0.11601997149420605
-0.25190165711638934,-0.25190165711638934
-0.3267191034508708,-0.3267191034508708
-0.3531252609806878,-0.3531252609806878
-0.3965853952485116,-0.3965853952485116
-0.4912074597303558,-0.4912074597303558
-0.6072845272051764,-0.6072845272051764
-0.6788012038484308,-0.6788012038484308
-0.6777009472846883,-0.6777009472846883
-0.6551456877279697,-0.6551456877279697
-0.6777009472846883,-0.6777009472846883
-0.7332639037536783,-0.7332639037536783
-0.7475672390823291,-0.7475672390823291
-0.705757489660119,-0.705757489660119
-0.6777009472846883,-0.6777009472846883
-0.709058259351346,-0.709058259351346
-0.7475672390823291,-0.7475672390823291
-0.72941300578058,-0.72941300578058
-0.6777009472846883,-0.6777009472846883
-0.6573462008554545,-0.6573462008554545
-0.6777009472846883,-0.6777009472846883
-0.6914541543314681,-0.6914541543314681
-0.6777009472846883,-0.6777009472846883
-0.6463436352180307,-0.6463436352180307
-0.6072845272051764,-0.6072845272051764
-0.5638243929373526,-0.5638243929373526
-0.5374182354075355,-0.5374182354075355
-0.535767850561922,-0.535767850561922
-0.5374182354075355,-0.5374182354075355
-0.5115622061595897,-0.5115622061595897
-0.46700181532802354,-0.46700181532802354
-0.42464193762394215,-0.42464193762394215
-0.3965853952485116,-0.3965853952485116
-0.38558282961108786,-0.38558282961108786
-0.3965853952485116,-0.3965853952485116
-0.41088873057716246,-0.41088873057716246
-0.3965853952485116,-0.3965853952485116
-0.35257513269881663,-0.35257513269881663
-0.3267191034508708,-0.3267191034508708
-0.3498244912894607,-0.3498244912894607
-0.3965853952485116,-0.3965853952485116
-0.4174902699596167,-0.4174902699596167
-0.3965853952485116,-0.3965853952485116
-0.3437730801888776,-0.3437730801888776
-0.2563026833713588,-0.2563026833713588
-0.12427189572227386,-0.12427189572227386
0.02426274038294672,0.02426274038294672
0.133738268475313,0.133738268475313
0.16454545226009948,0.16454545226009948
0.13758916644841132,0.13758916644841132
0.0946791604624587,0.0946791604624587
0.06112133526831627,0.06112133526831627
0.02426274038294672,0.02426274038294672
-0.019747522166748268,-0.019747522166748268
-0.04560355141469407,-0.04560355141469407
-0.008194828247453332,-0.008194828247453332
0.0946791604624587,0.0946791604624587
0.2168076390378623,0.2168076390378623
0.30537829241912345,0.30537829241912345
0.36974330139805234,0.36974330139805234
0.4456610042962762,0.4456610042962762
0.5199283223488865,0.5199283223488865
0.515527296093917,0.515527296093917
0.4033011265921948,0.4033011265921948
0.23496187233961147,0.23496187233961147
0.0814760816975502,0.0814760816975502
-0.04560355141469407,-0.04560355141469407
-0.14462664215150778,-0.14462664215150778
-0.18643639157371802,-0.18643639157371802
-0.19798908549301297,-0.19798908549301297
-0.2563026833713588,-0.2563026833713588
-0.40153654978535225,-0.40153654978535225
-0.5374182354075355,-0.5374182354075355
-0.6083847837689188,-0.6083847837689188
-0.6777009472846883,-0.6777009472846883
-0.7976289127326072,-0.7976289127326072
-0.8884000792413531,-0.8884000792413531
-0.8575928954565666,-0.8575928954565666
-0.7475672390823291,-0.7475672390823291
-0.6287395301981527,-0.6287395301981527
-0.5374182354075355,-0.5374182354075355
-0.5654747777829662,-0.5654747777829662
-0.8179836591618411,-0.8179836591618411
-1.1282560101371908,-1.1282560101371908
-1.0985490829161466,-1.0985490829161466
-0.5544722121455423,-0.5544722121455423
0.30537829241912345,0.30537829241912345
1.3511721562562504,1.3511721562562504
2.691834779176334,2.691834779176334
4.170579600846086,4.170579600846086
5.078841394215416,5.078841394215416
4.80707802297105,4.80707802297105
3.534081178721122,3.534081178721122
1.9821692955625023,1.9821692955625023
0.6563601362529409,0.6563601362529409
-0.3465237215982335,-0.3465237215982335
-1.028682791118506,-1.028682791118506
-1.3318034744295302,-1.3318034744295302
-1.3092482148728115,-1.3092482148728115
-1.152461654539523,-1.152461654539523
-1.028682791118506,-1.028682791118506
-0.9549656013477668,-0.9549656013477668
-0.8884000792413531,-0.8884000792413531
-0.8289862247992649,-0.8289862247992649
-0.8179836591618411,-0.8179836591618411
-0.8394386621548174,-0.8394386621548174
-0.8179836591618411,-0.8179836591618411
-0.7184104401431562,-0.7184104401431562
-0.6072845272051764,-0.6072845272051764
-0.5566727252730271,-0.5566727252730271
-0.5374182354075355,-0.5374182354075355
-0.5060609233408778,-0.5060609233408778
-0.46700181532802354,-0.46700181532802354
-0.46700181532802354,-0.46700181532802354
-0.46700181532802354,-0.46700181532802354
-0.4180403982414879,-0.4180403982414879
-0.3267191034508708,-0.3267191034508708
-0.24640037429767744,-0.24640037429767744
-0.18643639157371802,-0.18643639157371802
-0.09951612303807043,-0.09951612303807043
0.02426274038294672,0.02426274038294672
0.1287871139384723,0.1287871139384723
0.16454545226009948,0.16454545226009948
0.1898513532261741,0.1898513532261741
0.30537829241912345,0.30537829241912345
0.5204784506307577,0.5204784506307577
0.7262264280505817,0.7262264280505817
0.8511055480353412,0.8511055480353412
0.9369255600072465,0.9369255600072465
1.0486016012270976,1.0486016012270976
1.1476246919639113,1.1476246919639113
1.1723804646481146,1.1723804646481146
1.1476246919639113,1.1476246919639113
1.1608277707288197,1.1608277707288197
1.217490983761552,1.217490983761552
1.2367454736270436,1.2367454736270436
1.1476246919639113,1.1476246919639113
0.9759846680201008,0.9759846680201008
0.7966428481300937,0.7966428481300937
0.6662624453266223,0.6662624453266223
0.5859437161734289,0.5859437161734289
0.5232290920401136,0.5232290920401136
0.4456610042962762,0.4456610042962762
0.3482882984050761,0.3482882984050761
0.23496187233961147,0.23496187233961147
0.1034812129723977,0.1034812129723977
-0.04560355141469407,-0.04560355141469407
-0.18093510875500615,-0.18093510875500615
-0.2563026833713588,-0.2563026833713588
-0.2662049924450402,-0.2662049924450402
-0.2563026833713588,-0.2563026833713588
-0.2783078146462063,-0.2783078146462063
-0.3267191034508708,-0.3267191034508708
-0.353675389262559,-0.353675389262559
-0.3267191034508708,-0.3267191034508708
-0.27610730151872154,-0.27610730151872154
-0.2563026833713588,-0.2563026833713588
-0.28545948231053175,-0.28545948231053175
-0.3267191034508708,-0.3267191034508708
-0.34157256706139283,-0.34157256706139283
-0.3267191034508708,-0.3267191034508708
-0.29756230451169785,-0.29756230451169785
-0.2563026833713588,-0.2563026833713588
-0.2095417794123079,-0.2095417794123079
-0.18643639157371802,-0.18643639157371802
-0.20679113800295196,-0.20679113800295196
-0.2563026833713588,-0.2563026833713588
-0.30361371561228095,-0.30361371561228095
-0.3267191034508708,-0.3267191034508708
-0.292061021692986,-0.292061021692986
-0.18643639157371802,-0.18643639157371802
-0.07090945238076869,-0.07090945238076869
-0.04560355141469407,-0.04560355141469407
-0.09896599475619924,-0.09896599475619924
-0.11601997149420605,-0.11601997149420605
-0.061557271588958504,-0.061557271588958504
-0.04560355141469407,-0.04560355141469407
-0.12427189572227386,-0.12427189572227386
-0.18643639157371802,-0.18643639157371802
-0.13252381995034168,-0.13252381995034168
-0.04560355141469407,-0.04560355141469407
-0.05220509079714832,-0.05220509079714832
-0.11601997149420605,-0.11601997149420605
-0.11436958664859248,-0.11436958664859248
-0.04560355141469407,-0.04560355141469407
-0.030750087804172013,-0.030750087804172013
-0.11601997149420605,-0.11601997149420605
-0.20349036831172485,-0.20349036831172485
-0.18643639157371802,-0.18643639157371802
-0.0879634291187755,-0.0879634291187755
-0.04560355141469407,-0.04560355141469407
-0.16553151686261292,-0.16553151686261292
-0.3965853952485116,-0.3965853952485116
-0.5473205444812169,-0.5473205444812169
-0.46700181532802354,-0.46700181532802354
-0.2095417794123079,-0.2095417794123079
0.02426274038294672,0.02426274038294672
0.12603647252911637,0.12603647252911637
0.16454545226009948,0.16454545226009948
0.24981533595013353,0.24981533595013353
0.37524458421676427,0.37524458421676427
0.4891211385641,0.4891211385641
0.5859437161734289,0.5859437161734289
0.6794655240915307,0.6794655240915307
0.7262264280505817,0.7262264280505817
0.6882675766014698,0.6882675766014698
0.5859437161734289,0.5859437161734289
0.4588640830611847,0.4588640830611847
0.30537829241912345,0.30537829241912345
0.15629352803203167,0.15629352803203167
0.0946791604624587,0.0946791604624587
0.11338352204607907,0.11338352204607907
0.0946791604624587,0.0946791604624587
-0.04065239687785339,-0.04065239687785339
-0.18643639157371802,-0.18643639157371802
-0.26015358134445715,-0.26015358134445715
-0.3267191034508708,-0.3267191034508708
-0.44499668405317605,-0.44499668405317605
-0.5374182354075355,-0.5374182354075355
-0.5423693899443762,-0.5423693899443762
-0.5374182354075355,-0.5374182354075355
-0.5401688768168915,-0.5401688768168915
-0.46700181532802354,-0.46700181532802354
-0.3899838558660573,-0.3899838558660573
-0.5374182354075355,-0.5374182354075355
-0.8300864813630072,-0.8300864813630072
-0.8179836591618411,-0.8179836591618411
-0.2788579429280775,-0.2788579429280775
0.515527296093917,0.515527296093917
1.387480622859749,1.387480622859749
2.5515520672991814,2.5515520672991814
3.9747339324999427,3.9747339324999427
4.938558682338263,4.938558682338263
4.775720710904392,4.775720710904392
3.6749140188801457,3.6749140188801457
2.3237989586045096,2.3237989586045096
1.0772082718843992,1.0772082718843992
-0.05990688674334494,-0.05990688674334494
-0.9582663710389939,-0.9582663710389939
-1.3675618127511573,-1.3675618127511573
-1.3092482148728115,-1.3092482148728115
-1.073243181950072,-1.073243181950072
-0.8884000792413531,-0.8884000792413531
-0.7849759622495699,-0.7849759622495699
-0.7475672390823291,-0.7475672390823291
-0.7712227552027903,-0.7712227552027903
-0.8179836591618411,-0.8179836591618411
-0.8190839157255835,-0.8190839157255835
-0.7475672390823291,-0.7475672390823291
-0.6364413261443493,-0.6364413261443493
-0.5374182354075355,-0.5374182354075355
-0.4840557920660304,-0.4840557920660304
-0.46700181532802354,-0.46700181532802354
-0.47195296986486424,-0.47195296986486424
-0.46700181532802354,-0.46700181532802354
-0.4488475820262744,-0.4488475820262744
-0.3965853952485116,-0.3965853952485116
-0.32451859032338604,-0.32451859032338604
-0.2563026833713588,-0.2563026833713588
-0.21504306223101977,-0.21504306223101977
-0.18643639157371802,-0.18643639157371802
-0.1314235633865993,-0.1314235633865993
-0.04560355141469407,-0.04560355141469407
0.0380159474297264,0.0380159474297264
0.0946791604624587,0.0946791604624587
0.16454545226009948,0.16454545226009948
0.30537829241912345,0.30537829241912345
0.5001237042015237,0.5001237042015237
0.6563601362529409,0.6563601362529409
0.7355786088423919,0.7355786088423919
0.7966428481300937,0.7966428481300937
0.8995168368400057,0.8995168368400057
1.0073419800867585,1.0073419800867585
1.0640051931194907,1.0640051931194907
1.0772082718843992,1.0772082718843992
1.0876607092399517,1.0876607092399517
1.0772082718843992,1.0772082718843992
1.021095187133538,1.021095187133538
0.9369255600072465,0.9369255600072465
0.8654088833639921,0.8654088833639921
0.7966428481300937,0.7966428481300937
0.703671168493863,0.703671168493863
0.5859437161734289,0.5859437161734289
0.45776382649744235,0.45776382649744235
0.30537829241912345,0.30537829241912345
0.12383595940163163,0.12383595940163163
-0.04560355141469407,-0.04560355141469407
-0.1490276684064773,-0.1490276684064773
-0.18643639157371802,-0.18643639157371802
-0.20789139456669434,-0.20789139456669434
-0.2563026833713588,-0.2563026833713588
-0.32726923173274197,-0.32726923173274197
-0.3965853952485116,-0.3965853952485116
-0.46480130220053884,-0.46480130220053884
-0.5374182354075355,-0.5374182354075355
-0.5781277282660034,-0.5781277282660034
-0.5374182354075355,-0.5374182354075355
-0.44279617092569135,-0.44279617092569135
-0.3965853952485116,-0.3965853952485116
-0.45159822343563033,-0.45159822343563033
-0.5374182354075355,-0.5374182354075355
-0.5638243929373526,-0.5638243929373526
-0.5374182354075355,-0.5374182354075355
-0.5225647717970134,-0.5225647717970134
-0.5374182354075355,-0.5374182354075355
-0.5484208010449593,-0.5484208010449593
-0.5374182354075355,-0.5374182354075355
-0.5082614364683626,-0.5082614364683626
-0.46700181532802354,-0.46700181532802354
-0.4191406548052303,-0.4191406548052303
-0.3965853952485116,-0.3965853952485116
-0.4218912962145862,-0.4218912962145862
-0.46700181532802354,-0.46700181532802354
-0.46700181532802354,-0.46700181532802354
-0.3965853952485116,-0.3965853952485116
-0.3014132024847962,-0.3014132024847962
-0.2563026833713588,-0.2563026833713588
-0.2783078146462063,-0.2783078146462063
-0.3267191034508708,-0.3267191034508708
-0.36412782661811155,-0.36412782661811155
-0.3965853952485116,-0.3965853952485116
-0.4174902699596167,-0.4174902699596167
-0.3965853952485116,-0.3965853952485116
-0.3437730801888776,-0.3437730801888776
-0.3267191034508708,-0.3267191034508708
-0.3663283397455963,-0.3663283397455963
-0.3965853952485116,-0.3965853952485116
-0.3663283397455963,-0.3663283397455963
-0.3267191034508708,-0.3267191034508708
-0.3437730801888776,-0.3437730801888776
-0.3965853952485116,-0.3965853952485116
-0.41583988511400316,-0.41583988511400316
-0.3965853952485116,-0.3965853952485116
-0.38613295789295904,-0.38613295789295904
-0.3965853952485116,-0.3965853952485116
-0.38448257304734546,-0.38448257304734546
-0.3267191034508708,-0.3267191034508708
-0.24970114398890458,-0.24970114398890458
-0.18643639157371802,-0.18643639157371802
-0.10776804726613824,-0.10776804726613824
0.02426274038294672,0.02426274038294672
0.18930122494430293,0.18930122494430293
0.30537829241912345,0.30537829241912345
0.34718804184133367,0.34718804184133367
0.37524458421676427,0.37524458421676427
0.44786151742376096,0.44786151742376096
0.515527296093917,0.515527296093917
0.49682293451029663,0.49682293451029663
0.37524458421676427,0.37524458421676427
0.2245094349840589,0.2245094349840589
0.0946791604624587,0.0946791604624587
-0.012045726220551644,-0.012045726220551644
-0.11601997149420605,-0.11601997149420605
-0.22329498645908757,-0.22329498645908757
-0.3267191034508708,-0.3267191034508708
-0.43619463154323707,-0.43619463154323707
-0.5374182354075355,-0.5374182354075355
-0.6226881190975696,-0.6226881190975696
-0.6777009472846883,-0.6777009472846883
-0.711808900760702,-0.711808900760702
-0.7475672390823291,-0.7475672390823291
-0.7904772450682818,-0.7904772450682818
-0.8179836591618411,-0.8179836591618411
-0.7954283996051225,-0.7954283996051225
-0.7475672390823291,-0.7475672390823291
-0.7585698047197529,-0.7585698047197529
-0.8884000792413531,-0.8884000792413531
-1.0748935667956856,-1.0748935667956856
-1.1689655029956587,-1.1689655029956587
-1.031983560809733,-1.031983560809733
-0.6072845272051764,-0.6072845272051764
0.1430904492671232,0.1430904492671232
1.287907403841064,1.287907403841064
2.829366849644131,2.829366849644131
4.446743998345422,4.446743998345422
5.471082859189573,5.471082859189573
5.289540526172081,5.289540526172081
3.9230218740040512,3.9230218740040512
2.060287511588211,2.060287511588211
0.47316741838983556,0.47316741838983556
-0.5374182354075355,-0.5374182354075355
-1.078744464768784,-1.078744464768784
-1.3092482148728115,-1.3092482148728115
-1.302096547208486,-1.302096547208486
-1.1689655029956587,-1.1689655029956587
-1.055639076930194,-1.055639076930194
-1.028682791118506,-1.028682791118506
-1.0391352284740585,-1.0391352284740585
-1.028682791118506,-1.028682791118506
-0.973119834649516,-0.973119834649516
-0.8884000792413531,-0.8884000792413531
-0.8179836591618411,-0.8179836591618411
-0.8179836591618411,-0.8179836591618411
-0.873546615630831,-0.873546615630831
-0.8884000792413531,-0.8884000792413531
-0.8091816066519022,-0.8091816066519022
-0.6777009472846883,-0.6777009472846883
-0.5869297807759425,-0.5869297807759425
-0.5374182354075355,-0.5374182354075355
-0.5060609233408778,-0.5060609233408778
-0.46700181532802354,-0.46700181532802354
-0.41143885885903364,-0.41143885885903364
-0.3267191034508708,-0.3267191034508708
-0.2353978086602537,-0.2353978086602537
-0.18643639157371802,-0.18643639157371802
-0.15067805325209085,-0.15067805325209085
-0.04560355141469407,-0.04560355141469407
0.12328583111976044,0.12328583111976044
0.23496187233961147,0.23496187233961147
0.254216362205103,0.254216362205103
0.30537829241912345,0.30537829241912345
0.4737175466717068,0.4737175466717068
0.6563601362529409,0.6563601362529409
0.7454809179160733,0.7454809179160733
0.7966428481300937,0.7966428481300937
0.9011672216856192,0.9011672216856192
1.0073419800867585,1.0073419800867585
1.0309974962072195,1.0309974962072195
1.0073419800867585,1.0073419800867585
1.012293134623599,1.012293134623599
1.0073419800867585,1.0073419800867585
0.9259229943698227,0.9259229943698227
0.7966428481300937,0.7966428481300937
0.6893678331652121,0.6893678331652121
0.5859437161734289,0.5859437161734289
0.44786151742376096,0.44786151742376096
0.30537829241912345,0.30537829241912345
0.21405699762850636,0.21405699762850636
0.16454545226009948,0.16454545226009948
0.1414400644215096,0.1414400644215096
0.16454545226009948,0.16454545226009948
0.22340917842031655,0.22340917842031655
0.23496187233961147,0.23496187233961147
0.168946478515069,0.168946478515069
0.0946791604624587,0.0946791604624587
0.050118769630892526,0.050118769630892526
-0.04560355141469407,-0.04560355141469407
-0.25025127227077576,-0.25025127227077576
-0.46700181532802354,-0.46700181532802354
-0.5632742646554814,-0.5632742646554814
-0.5374182354075355,-0.5374182354075355
-0.4868064334753863,-0.4868064334753863
-0.46700181532802354,-0.46700181532802354
-0.46535143048241,-0.46535143048241
-0.46700181532802354,-0.46700181532802354
-0.47250309814673547,-0.47250309814673547
-0.46700181532802354,-0.46700181532802354
-0.43344399013388113,-0.43344399013388113
-0.3965853952485116,-0.3965853952485116
-0.40648770432219294,-0.40648770432219294
-0.46700181532802354,-0.46700181532802354
-0.5077113081864915,-0.5077113081864915
-0.46700181532802354,-0.46700181532802354
-0.380081546792376,-0.380081546792376
-0.3267191034508708,-0.3267191034508708
-0.28931038028363004,-0.28931038028363004
-0.18643639157371802,-0.18643639157371802
-0.05000457766966357,-0.05000457766966357
-0.04560355141469407,-0.04560355141469407
-0.21944408848598926,-0.21944408848598926
-0.3965853952485116,-0.3965853952485116
-0.4092383457315489,-0.4092383457315489
-0.3267191034508708,-0.3267191034508708
-0.2997628176391826,-0.2997628176391826
-0.3267191034508708,-0.3267191034508708
-0.2926111499748572,-0.2926111499748572
-0.18643639157371802,-0.18643639157371802
-0.10886830382988061,-0.10886830382988061
-0.11601997149420605,-0.11601997149420605
-0.1583798491982875,-0.1583798491982875
-0.18643639157371802,-0.18643639157371802
-0.21009190769417907,-0.21009190769417907
-0.2563026833713588,-0.2563026833713588
-0.3085648701491216,-0.3085648701491216
-0.3267191034508708,-0.3267191034508708
-0.2959119196660843,-0.2959119196660843
-0.2563026833713588,-0.2563026833713588
-0.2629042227538131,-0.2629042227538131
-0.3267191034508708,-0.3267191034508708
-0.39108411242979974,-0.39108411242979974
-0.3965853952485116,-0.3965853952485116
-0.3388219256520369,-0.3388219256520369
-0.2563026833713588,-0.2563026833713588
-0.1616806188895146,-0.1616806188895146
-0.04560355141469407,-0.04560355141469407
0.07872544028819427,0.07872544028819427
0.16454545226009948,0.16454545226009948
0.21955828044721823,0.21955828044721823
0.30537829241912345,0.30537829241912345
0.45116228711498807,0.45116228711498807
0.5859437161734289,0.5859437161734289
0.6288537221593815,0.6288537221593815
0.5859437161734289,0.5859437161734289
0.5210285789126289,0.5210285789126289
0.4456610042962762,0.4456610042962762
0.3279335519758421,0.3279335519758421
0.16454545226009948,0.16454545226009948
0.01986171412797722,0.01986171412797722
-0.04560355141469407,-0.04560355141469407
-0.04670380797843644,-0.04670380797843644
-0.04560355141469407,-0.04560355141469407
-0.11657009977607724,-0.11657009977607724
-0.2563026833713588,-0.2563026833713588
-0.438945272952593,-0.438945272952593
-0.6072845272051764,-0.6072845272051764
-0.6991559502776646,-0.6991559502776646
-0.6777009472846883,-0.6777009472846883
-0.5726264454472916,-0.5726264454472916
-0.46700181532802354,-0.46700181532802354
-0.4070378326040641,-0.4070378326040641
-0.3965853952485116,-0.3965853952485116
-0.45104809515375915,-0.45104809515375915
-0.6072845272051764,-0.6072845272051764
-0.8311867379267497,-0.8311867379267497
-0.9582663710389939,-0.9582663710389939
-0.7789245511489868,-0.7789245511489868
-0.18643639157371802,-0.18643639157371802
0.7856402824926699,0.7856402824926699
2.060287511588211,2.060287511588211
3.5483845140497725,3.5483845140497725
4.938558682338263,4.938558682338263
5.58605967010065,5.58605967010065
4.938558682338263,4.938558682338263
3.199053055061569,3.199053055061569
1.287907403841064,1.287907403841064
-0.013696111066165206,-0.013696111066165206
-0.6777009472846883,-0.6777009472846883
-1.0490375375477399,-1.0490375375477399
-1.2393819230751706,-1.2393819230751706
-1.152461654539523,-1.152461654539523
-0.8884000792413531,-0.8884000792413531
-0.7035569765326342,-0.7035569765326342
-0.6777009472846883,-0.6777009472846883
-0.6732999210297189,-0.6732999210297189
-0.6072845272051764,-0.6072845272051764
-0.5429195182262474,-0.5429195182262474
-0.5374182354075355,-0.5374182354075355
-0.5517215707361864,-0.5517215707361864
-0.5374182354075355,-0.5374182354075355
-0.5027601536496508,-0.5027601536496508
-0.46700181532802354,-0.46700181532802354
-0.4251920659058133,-0.4251920659058133
-0.3267191034508708,-0.3267191034508708
-0.18148523703687733,-0.18148523703687733
-0.04560355141469407,-0.04560355141469407
-0.024148548421717764,-0.024148548421717764
-0.11601997149420605,-0.11601997149420605
-0.20679113800295196,-0.20679113800295196
-0.18643639157371802,-0.18643639157371802
-0.07751099176322293,-0.07751099176322293
0.02426274038294672,0.02426274038294672
0.12273570283788925,0.12273570283788925
0.30537829241912345,0.30537829241912345
0.5600876869254832,0.5600876869254832
0.7262264280505817,0.7262264280505817
0.7157739906950291,0.7157739906950291
0.6563601362529409,0.6563601362529409
0.7317277108692936,0.7317277108692936
0.9369255600072465,0.9369255600072465
1.1234190475615788,1.1234190475615788
1.217490983761552,1.217490983761552
1.299460097760359,1.299460097760359
1.4281901157182166,1.4281901157182166
1.5321643609918711,1.5321643609918711
1.4986065357977287,1.4986065357977287
1.3511721562562504,1.3511721562562504
1.217490983761552,1.217490983761552
1.155876616191979,1.155876616191979
1.0772082718843992,1.0772082718843992
0.9127199156049142,0.9127199156049142
0.7262264280505817,0.7262264280505817
0.624452695904412,0.624452695904412
0.5859437161734289,0.5859437161734289
0.512776654684561,0.512776654684561
0.37524458421676427,0.37524458421676427
0.22615981982967248,0.22615981982967248
0.0946791604624587,0.0946791604624587
-0.04175265344159576,-0.04175265344159576
-0.18643639157371802,-0.18643639157371802
-0.2964620479479555,-0.2964620479479555
-0.3267191034508708,-0.3267191034508708
-0.2728065318274944,-0.2728065318274944
-0.18643639157371802,-0.18643639157371802
-0.16223074717138578,-0.16223074717138578
-0.2563026833713588,-0.2563026833713588
-0.4020866780672235,-0.4020866780672235
-0.46700181532802354,-0.46700181532802354
-0.42904296387891167,-0.42904296387891167
-0.3965853952485116,-0.3965853952485116
-0.4372948881069795,-0.4372948881069795
-0.46700181532802354,-0.46700181532802354
