ECG,PPG
-0.5672093695492971,-0.5672093695492971
-0.047923482361748,-0.047923482361748
-0.4782848072845472,-0.4782848072845472
-0.7744203778454597,-0.7744203778454597
-0.5672093695492971,-0.5672093695492971
-0.34825360774646946,-0.34825360774646946
-0.38936024501979727,-0.38936024501979727
-0.4648622318483585,-0.4648622318483585
-0.38936024501979727,-0.38936024501979727
-0.30043568275504734,-0.30043568275504734
-0.30043568275504734,-0.30043568275504734
-0.32895865555694825,-0.32895865555694825
-0.30043568275504734,-0.30043568275504734
-0.24842320293981623,-0.24842320293981623
-0.2115111204902974,-0.2115111204902974
-0.18550488058268186,-0.18550488058268186
-0.12258655822554747,-0.12258655822554747
-0.03198417403127396,-0.03198417403127396
0.05526256630395239,0.05526256630395239
0.12489217637918111,0.12489217637918111
0.23395060179821403,0.23395060179821403
0.3799211096667658,0.3799211096667658
0.5007242885924639,0.5007242885924639
0.5393141929715063,0.5393141929715063
0.5896488508572137,0.5896488508572137
0.685284700840058,0.685284700840058
0.7674979753867136,0.7674979753867136
0.7398139135495745,0.7398139135495745
0.6785734131219637,0.6785734131219637
0.6567617280381571,0.6567617280381571
0.6785734131219637,0.6785734131219637
0.6441780635667302,0.6441780635667302
0.5896488508572137,0.5896488508572137
0.5628036999848364,0.5628036999848364
0.5896488508572137,0.5896488508572137
0.5745484534915015,0.5745484534915015
0.5007242885924639,0.5007242885924639
0.41599428115152287,0.41599428115152287
0.4117997263277139,0.4117997263277139
0.463812206142945,0.463812206142945
0.5007242885924639,0.5007242885924639
0.4579398293896125,0.4579398293896125
0.4117997263277139,0.4117997263277139
0.463812206142945,0.463812206142945
0.6785734131219637,0.6785734131219637
0.9738700727181144,0.9738700727181144
1.3010453489752132,1.3010453489752132
1.6944945914484935,1.6944945914484935
2.280054444852224,2.280054444852224
3.0149404499835537,3.0149404499835537
3.703686352052985,3.703686352052985
4.067773710759602,4.067773710759602
3.970460038847235,3.970460038847235
3.352182657817794,3.352182657817794
2.280054444852224,2.280054444852224
0.9369579902685956,0.9369579902685956
-0.30043568275504734,-0.30043568275504734
-1.1099847637501763,-1.1099847637501763
-1.3675304299320465,-1.3675304299320465
-1.2341435865349215,-1.2341435865349215
-0.9229076186082968,-0.9229076186082968
-0.6192218493645282,-0.6192218493645282
-0.38936024501979727,-0.38936024501979727
-0.29372439503695297,-0.29372439503695297
-0.30043568275504734,-0.30043568275504734
-0.313858258191236,-0.313858258191236
-0.2115111204902974,-0.2115111204902974
-0.0688962564807928,-0.0688962564807928
-0.03366199596079754,-0.03366199596079754
-0.14355933234459226,-0.14355933234459226
-0.2115111204902974,-0.2115111204902974
-0.16788775032268421,-0.16788775032268421
-0.12258655822554747,-0.12258655822554747
-0.20899438759601202,-0.20899438759601202
-0.30043568275504734,-0.30043568275504734
-0.28617419635409685,-0.28617419635409685
-0.2115111204902974,-0.2115111204902974
-0.23164498364458042,-0.23164498364458042
-0.30043568275504734,-0.30043568275504734
-0.29708003889600015,-0.29708003889600015
-0.2115111204902974,-0.2115111204902974
-0.19976636698363232,-0.19976636698363232
-0.30043568275504734,-0.30043568275504734
-0.3843267792312265,-0.3843267792312265
-0.30043568275504734,-0.30043568275504734
-0.1511095310274484,-0.1511095310274484
-0.12258655822554747,-0.12258655822554747
-0.24422864811600728,-0.24422864811600728
-0.30043568275504734,-0.30043568275504734
-0.21067220952553561,-0.21067220952553561
-0.12258655822554747,-0.12258655822554747
-0.19724963408934693,-0.19724963408934693
-0.30043568275504734,-0.30043568275504734
-0.26604033319981385,-0.26604033319981385
-0.12258655822554747,-0.12258655822554747
-0.04540674946746263,-0.04540674946746263
-0.03366199596079754,-0.03366199596079754
-0.008494667017943786,-0.008494667017943786
0.05526256630395239,0.05526256630395239
0.0955302926125184,0.0955302926125184
0.1450260395334641,0.1450260395334641
0.20291089610202775,0.20291089610202775
0.23395060179821403,0.23395060179821403
0.20878327285536027,0.20878327285536027
0.23395060179821403,0.23395060179821403
0.30525803380296634,0.30525803380296634
0.32287516406296396,0.32287516406296396
0.24233971144583197,0.24233971144583197
0.23395060179821403,0.23395060179821403
0.33881447239343804,0.33881447239343804
0.4117997263277139,0.4117997263277139
0.34720358204105595,0.34720358204105595
0.32287516406296396,0.32287516406296396
0.423544479834379,0.423544479834379
0.5007242885924639,0.5007242885924639
0.40676626053914317,0.40676626053914317
0.32287516406296396,0.32287516406296396
0.3941825960677163,0.3941825960677163
0.5007242885924639,0.5007242885924639
0.4411616100943766,0.4411616100943766
0.32287516406296396,0.32287516406296396
0.29183545836677766,0.29183545836677766
0.32287516406296396,0.32287516406296396
0.30106347897915736,0.30106347897915736
0.32287516406296396,0.32287516406296396
0.42773903465818797,0.42773903465818797
0.5007242885924639,0.5007242885924639
0.4117997263277139,0.4117997263277139
0.32287516406296396,0.32287516406296396
0.34636467107629415,0.34636467107629415
0.4117997263277139,0.4117997263277139
0.36733744519533895,0.36733744519533895
0.32287516406296396,0.32287516406296396
0.38663239738486016,0.38663239738486016
0.5007242885924639,0.5007242885924639
0.4956908228038931,0.4956908228038931
0.4117997263277139,0.4117997263277139
0.3933436851029545,0.3933436851029545
0.5007242885924639,0.5007242885924639
0.6114605359410203,0.6114605359410203
0.6785734131219637,0.6785734131219637
0.7775649069638552,0.7775649069638552
1.0342716621809633,1.0342716621809633
1.3857753564161541,1.3857753564161541
1.7465070712637247,1.7465070712637247
2.168479286538906,2.168479286538906
2.813601818440724,2.813601818440724
3.5224815836644376,3.5224815836644376
3.8815354765824845,3.8815354765824845
3.655868427061563,3.655868427061563
3.0803755052349735,3.0803755052349735
2.3547175207160236,2.3547175207160236
1.389969911239963,1.389969911239963
0.12992564216775185,0.12992564216775185
-1.0118321808730468,-1.0118321808730468
-1.5814527259463034,-1.5814527259463034
-1.546218465426308,-1.546218465426308
-1.2307879426758743,-1.2307879426758743
-0.8339830563435469,-0.8339830563435469
-0.4757680743902618,-0.4757680743902618
-0.30043568275504734,-0.30043568275504734
-0.3969104437026534,-0.3969104437026534
-0.5672093695492971,-0.5672093695492971
-0.62006076032929,-0.62006076032929
-0.5672093695492971,-0.5672093695492971
-0.559659170866441,-0.559659170866441
-0.5672093695492971,-0.5672093695492971
-0.5336529309588255,-0.5336529309588255
-0.4782848072845472,-0.4782848072845472
-0.5084856020159717,-0.5084856020159717
-0.5672093695492971,-0.5672093695492971
-0.5940545204216745,-0.5940545204216745
-0.5672093695492971,-0.5672093695492971
-0.5638537256902499,-0.5638537256902499
-0.5672093695492971,-0.5672093695492971
-0.5688871914788207,-0.5688871914788207
-0.5672093695492971,-0.5672093695492971
-0.5848264998092948,-0.5848264998092948
-0.5672093695492971,-0.5672093695492971
-0.49170738272073583,-0.49170738272073583
-0.38936024501979727,-0.38936024501979727
-0.35664271739408737,-0.35664271739408737
-0.38936024501979727,-0.38936024501979727
-0.4279501493988397,-0.4279501493988397
-0.38936024501979727,-0.38936024501979727
-0.30127459371980914,-0.30127459371980914
-0.2115111204902974,-0.2115111204902974
-0.1620153735693517,-0.1620153735693517
-0.12258655822554747,-0.12258655822554747
-0.10664724989507343,-0.10664724989507343
-0.12258655822554747,-0.12258655822554747
-0.15614299681601915,-0.15614299681601915
-0.12258655822554747,-0.12258655822554747
-0.04876239332650979,-0.04876239332650979
-0.03366199596079754,-0.03366199596079754
-0.1318145788379272,-0.1318145788379272
-0.2115111204902974,-0.2115111204902974
-0.1905383463712526,-0.1905383463712526
-0.12258655822554747,-0.12258655822554747
-0.11671418147221493,-0.11671418147221493
-0.12258655822554747,-0.12258655822554747
-0.08735229770555221,-0.08735229770555221
-0.03366199596079754,-0.03366199596079754
-0.03366199596079754,-0.03366199596079754
-0.03366199596079754,-0.03366199596079754
-0.021078331489370664,-0.021078331489370664
-0.03366199596079754,-0.03366199596079754
-0.08231883191698146,-0.08231883191698146
-0.03366199596079754,-0.03366199596079754
0.11818088866108678,0.11818088866108678
0.23395060179821403,0.23395060179821403
0.2171723825029782,0.2171723825029782
0.23395060179821403,0.23395060179821403
0.36901526712486254,0.36901526712486254
0.5007242885924639,0.5007242885924639
0.4747180486848483,0.4747180486848483
0.4117997263277139,0.4117997263277139
0.4344503223762823,0.4344503223762823
0.5007242885924639,0.5007242885924639
0.4931740899096077,0.4931740899096077
0.5007242885924639,0.5007242885924639
0.5879710289276902,0.5879710289276902
0.6785734131219637,0.6785734131219637
0.6458558854962538,0.6458558854962538
0.5896488508572137,0.5896488508572137
0.6156550907648293,0.6156550907648293
0.6785734131219637,0.6785734131219637
0.624883111377209,0.624883111377209
0.5007242885924639,0.5007242885924639
0.4361281443058059,0.4361281443058059
0.5007242885924639,0.5007242885924639
0.5753873644562633,0.5753873644562633
0.5896488508572137,0.5896488508572137
0.5342807271829355,0.5342807271829355
0.5007242885924639,0.5007242885924639
0.4906573570153223,0.4906573570153223
0.5007242885924639,0.5007242885924639
0.4923351789448459,0.4923351789448459
0.5007242885924639,0.5007242885924639
0.5074355763105581,0.5074355763105581
0.5007242885924639,0.5007242885924639
0.4780736925438955,0.4780736925438955
0.5007242885924639,0.5007242885924639
0.5326029052534119,0.5326029052534119
0.5007242885924639,0.5007242885924639
0.4025717057153342,0.4025717057153342
0.4117997263277139,0.4117997263277139
0.5904877618219756,0.5904877618219756
0.8564225376514636,0.8564225376514636
1.1374577108466637,1.1374577108466637
1.567819035769463,1.567819035769463
2.189452060657951,2.189452060657951
2.813601818440724,2.813601818440724
3.1609109578521055,3.1609109578521055
3.1693000674997234,3.1693000674997234
2.8253465719473887,2.8253465719473887
2.1022053203227244,2.1022053203227244
1.0502109705114375,1.0502109705114375
-0.03366199596079754,-0.03366199596079754
-0.9170352418549643,-0.9170352418549643
-1.546218465426308,-1.546218465426308
-1.9019167144853077,-1.9019167144853077
-1.8129921522205579,-1.8129921522205579
-1.3096455733634829,-1.3096455733634829
-0.745058494078797,-0.745058494078797
-0.5101634239454953,-0.5101634239454953
-0.5672093695492971,-0.5672093695492971
-0.6662008633911886,-0.6662008633911886
-0.656133931814047,-0.656133931814047
-0.5890210546331037,-0.5890210546331037
-0.4782848072845472,-0.4782848072845472
-0.36083727221789635,-0.36083727221789635
-0.30043568275504734,-0.30043568275504734
-0.34993142967599306,-0.34993142967599306
-0.38936024501979727,-0.38936024501979727
-0.354125984499802,-0.354125984499802
-0.30043568275504734,-0.30043568275504734
-0.35915945028837276,-0.35915945028837276
-0.4782848072845472,-0.4782848072845472
-0.5663704585845353,-0.5663704585845353
-0.5672093695492971,-0.5672093695492971
-0.5068077800864481,-0.5068077800864481
-0.38936024501979727,-0.38936024501979727
-0.29036875117790584,-0.29036875117790584
-0.30043568275504734,-0.30043568275504734
-0.4153664849274128,-0.4153664849274128
-0.4782848072845472,-0.4782848072845472
-0.4355003480816958,-0.4355003480816958
-0.38936024501979727,-0.38936024501979727
-0.4623454989540731,-0.4623454989540731
-0.5672093695492971,-0.5672093695492971
-0.595732342351198,-0.595732342351198
-0.5672093695492971,-0.5672093695492971
-0.6208996712940518,-0.6208996712940518
-0.745058494078797,-0.745058494078797
-0.817204837048311,-0.817204837048311
-0.745058494078797,-0.745058494078797
-0.6511004660254763,-0.6511004660254763
-0.656133931814047,-0.656133931814047
-0.745058494078797,-0.745058494078797
-0.745058494078797,-0.745058494078797
-0.6427113563778584,-0.6427113563778584
-0.5672093695492971,-0.5672093695492971
-0.6167051164702428,-0.6167051164702428
-0.656133931814047,-0.656133931814047
-0.5906988765626273,-0.5906988765626273
-0.4782848072845472,-0.4782848072845472
-0.434661437116934,-0.434661437116934
-0.38936024501979727,-0.38936024501979727
-0.29372439503695297,-0.29372439503695297
-0.2115111204902974,-0.2115111204902974
-0.22241696303220068,-0.22241696303220068
-0.2115111204902974,-0.2115111204902974
-0.09658031831793193,-0.09658031831793193
0.05526256630395239,0.05526256630395239
0.13915366278013158,0.13915366278013158
0.23395060179821403,0.23395060179821403
0.383276753525813,0.383276753525813
0.5007242885924639,0.5007242885924639
0.4973686447334167,0.4973686447334167
0.5007242885924639,0.5007242885924639
0.5913266727867373,0.5913266727867373
0.6785734131219637,0.6785734131219637
0.6190107346238765,0.6190107346238765
0.5007242885924639,0.5007242885924639
0.4344503223762823,0.4344503223762823
0.4117997263277139,0.4117997263277139
0.32874754081629654,0.32874754081629654
0.23395060179821403,0.23395060179821403
0.1785824781239358,0.1785824781239358
0.1450260395334641,0.1450260395334641
0.053584744374428804,0.053584744374428804
-0.03366199596079754,-0.03366199596079754
-0.05715150297412771,-0.05715150297412771
-0.03366199596079754,-0.03366199596079754
-0.06218496876269846,-0.06218496876269846
-0.12258655822554747,-0.12258655822554747
-0.1586597297103045,-0.1586597297103045
-0.12258655822554747,-0.12258655822554747
-0.07560754419888713,-0.07560754419888713
-0.03366199596079754,-0.03366199596079754
-0.008494667017943786,-0.008494667017943786
0.05526256630395239,0.05526256630395239
0.1357980189210844,0.1357980189210844
0.23395060179821403,0.23395060179821403
0.31700278730963144,0.31700278730963144
0.4117997263277139,0.4117997263277139
0.479751514473419,0.479751514473419
0.5007242885924639,0.5007242885924639
0.4822682473677044,0.4822682473677044
0.5007242885924639,0.5007242885924639
0.5275694394648411,0.5275694394648411
0.5007242885924639,0.5007242885924639
0.4352892333410441,0.4352892333410441
0.5007242885924639,0.5007242885924639
0.7372971806552892,0.7372971806552892
1.0342716621809633,1.0342716621809633
1.3169846573056871,1.3169846573056871
1.7465070712637247,1.7465070712637247
2.3958241579893516,2.3958241579893516
3.0803755052349735,3.0803755052349735
3.4880862341092045,3.4880862341092045
3.525837227523485,3.525837227523485
3.2095677938082896,3.2095677938082896
2.546828131646474,2.546828131646474
1.5460073506856564,1.5460073506856564
0.4117997263277139,0.4117997263277139
-0.6183829383997664,-0.6183829383997664
-1.3675304299320465,-1.3675304299320465
-1.7634964052996123,-1.7634964052996123
-1.724067589955808,-1.724067589955808
-1.3499132996720489,-1.3499132996720489
-0.9229076186082968,-0.9229076186082968
-0.7500919598673678,-0.7500919598673678
-0.8339830563435469,-0.8339830563435469
-0.9841481190359076,-0.9841481190359076
-1.0118321808730468,-1.0118321808730468
-0.9380080159740091,-0.9380080159740091
-0.8339830563435469,-0.8339830563435469
-0.7526086927616531,-0.7526086927616531
-0.656133931814047,-0.656133931814047
-0.5814708559502476,-0.5814708559502476
-0.5672093695492971,-0.5672093695492971
-0.6334833357654787,-0.6334833357654787
-0.656133931814047,-0.656133931814047
-0.5915377875273891,-0.5915377875273891
-0.4782848072845472,-0.4782848072845472
-0.4170443068569364,-0.4170443068569364
-0.38936024501979727,-0.38936024501979727
-0.37929331344265577,-0.37929331344265577
-0.38936024501979727,-0.38936024501979727
-0.4162053958921746,-0.4162053958921746
-0.38936024501979727,-0.38936024501979727
-0.3448979638874223,-0.3448979638874223
-0.38936024501979727,-0.38936024501979727
-0.5294583761350165,-0.5294583761350165
-0.5672093695492971,-0.5672093695492971
-0.4363392590464576,-0.4363392590464576
-0.30043568275504734,-0.30043568275504734
-0.32476410073313927,-0.32476410073313927
-0.38936024501979727,-0.38936024501979727
-0.3633540051121817,-0.3633540051121817
-0.30043568275504734,-0.30043568275504734
-0.33231429941599544,-0.33231429941599544
-0.38936024501979727,-0.38936024501979727
-0.39187697791408266,-0.39187697791408266
-0.38936024501979727,-0.38936024501979727
-0.479123718249309,-0.479123718249309
-0.5672093695492971,-0.5672093695492971
-0.579793034020724,-0.579793034020724
-0.5672093695492971,-0.5672093695492971
-0.6225774932235754,-0.6225774932235754
-0.656133931814047,-0.656133931814047
-0.6150272945407192,-0.6150272945407192
-0.5672093695492971,-0.5672093695492971
-0.5906988765626273,-0.5906988765626273
-0.5672093695492971,-0.5672093695492971
-0.438855991940743,-0.438855991940743
-0.30043568275504734,-0.30043568275504734
-0.2618457783760049,-0.2618457783760049
-0.2115111204902974,-0.2115111204902974
-0.07644645516364892,-0.07644645516364892
0.05526256630395239,0.05526256630395239
0.06365167595157031,0.06365167595157031
0.05526256630395239,0.05526256630395239
0.12908673120299008,0.12908673120299008
0.23395060179821403,0.23395060179821403
0.24653426626964092,0.24653426626964092
0.23395060179821403,0.23395060179821403
0.2675070403886857,0.2675070403886857
0.32287516406296396,0.32287516406296396
0.31784169827439324,0.31784169827439324
0.32287516406296396,0.32287516406296396
0.37572655484295686,0.37572655484295686
0.4117997263277139,0.4117997263277139
0.33210318467534367,0.33210318467534367
0.23395060179821403,0.23395060179821403
0.22891713600964328,0.22891713600964328
0.32287516406296396,0.32287516406296396
0.36482071230105356,0.36482071230105356
0.32287516406296396,0.32287516406296396
0.24485644434011733,0.24485644434011733
0.23395060179821403,0.23395060179821403
0.24401753337535553,0.24401753337535553
0.23395060179821403,0.23395060179821403
0.20039416320774237,0.20039416320774237
0.23395060179821403,0.23395060179821403
0.30609694476772814,0.30609694476772814
0.32287516406296396,0.32287516406296396
0.25408446495249704,0.25408446495249704
0.23395060179821403,0.23395060179821403
0.28596308161344514,0.28596308161344514
0.32287516406296396,0.32287516406296396
0.32623080792201115,0.32623080792201115
0.5007242885924639,0.5007242885924639
0.9050793736076475,0.9050793736076475
1.389969911239963,1.389969911239963
1.8731826269427552,1.8731826269427552
2.546828131646474,2.546828131646474
3.385739096408266,3.385739096408266
3.970460038847235,3.970460038847235
3.912575182278671,3.912575182278671
3.3471491920292236,3.3471491920292236
2.5283720904217146,2.5283720904217146
1.4788944735047131,1.4788944735047131
0.20291089610202775,0.20291089610202775
-0.9229076186082968,-0.9229076186082968
-1.5319569790253578,-1.5319569790253578
-1.6351430276910581,-1.6351430276910581
-1.4908503417520298,-1.4908503417520298
-1.1896813054025466,-1.1896813054025466
-0.8398554330968795,-0.8398554330968795
-0.656133931814047,-0.656133931814047
-0.7433806721492734,-0.7433806721492734
-0.8339830563435469,-0.8339830563435469
-0.7299580967130848,-0.7299580967130848
-0.5672093695492971,-0.5672093695492971
-0.5772763011264386,-0.5772763011264386
-0.656133931814047,-0.656133931814047
-0.6418724454130966,-0.6418724454130966
-0.5672093695492971,-0.5672093695492971
-0.5965712533159598,-0.5965712533159598
-0.656133931814047,-0.656133931814047
-0.6385168015540494,-0.6385168015540494
-0.5672093695492971,-0.5672093695492971
-0.5881821436683419,-0.5881821436683419
-0.656133931814047,-0.656133931814047
-0.660328486637856,-0.660328486637856
-0.5672093695492971,-0.5672093695492971
-0.4891906498264505,-0.4891906498264505
-0.4782848072845472,-0.4782848072845472
-0.519391444557875,-0.519391444557875
-0.5672093695492971,-0.5672093695492971
-0.6460670002369056,-0.6460670002369056
-0.745058494078797,-0.745058494078797
-0.8306274124844998,-0.8306274124844998
-0.8339830563435469,-0.8339830563435469
-0.7878429532816483,-0.7878429532816483
-0.745058494078797,-0.745058494078797
-0.724924630924514,-0.724924630924514
-0.656133931814047,-0.656133931814047
-0.571403924373106,-0.571403924373106
-0.5672093695492971,-0.5672093695492971
-0.6787845278626154,-0.6787845278626154
-0.745058494078797,-0.745058494078797
-0.680462349792139,-0.680462349792139
-0.5672093695492971,-0.5672093695492971
-0.5453976844654905,-0.5453976844654905
-0.5672093695492971,-0.5672093695492971
-0.5697261024435825,-0.5697261024435825
-0.5672093695492971,-0.5672093695492971
-0.5974101642807216,-0.5974101642807216
-0.5672093695492971,-0.5672093695492971
-0.4640233208835967,-0.4640233208835967
-0.38936024501979727,-0.38936024501979727
-0.41033301913884207,-0.41033301913884207
-0.38936024501979727,-0.38936024501979727
-0.27946290863600254,-0.27946290863600254
-0.2115111204902974,-0.2115111204902974
-0.27778508670647895,-0.27778508670647895
-0.30043568275504734,-0.30043568275504734
-0.17292121611125497,-0.17292121611125497
-0.03366199596079754,-0.03366199596079754
-0.05631259200936592,-0.05631259200936592
-0.12258655822554747,-0.12258655822554747
-0.09490249638840834,-0.09490249638840834
-0.03366199596079754,-0.03366199596079754
-0.07309081130460175,-0.07309081130460175
-0.12258655822554747,-0.12258655822554747
-0.0890301196350758,-0.0890301196350758
-0.03366199596079754,-0.03366199596079754
-0.07225190033983997,-0.07225190033983997
-0.12258655822554747,-0.12258655822554747
-0.11671418147221493,-0.11671418147221493
-0.12258655822554747,-0.12258655822554747
-0.22661151785600966,-0.22661151785600966
-0.30043568275504734,-0.30043568275504734
-0.24003409329219833,-0.24003409329219833
-0.12258655822554747,-0.12258655822554747
-0.12594220208459464,-0.12594220208459464
-0.2115111204902974,-0.2115111204902974
-0.23164498364458042,-0.23164498364458042
-0.12258655822554747,-0.12258655822554747
-0.026111797277941416,-0.026111797277941416
-0.03366199596079754,-0.03366199596079754
-0.11251962664840597,-0.11251962664840597
-0.12258655822554747,-0.12258655822554747
-0.07309081130460175,-0.07309081130460175
-0.03366199596079754,-0.03366199596079754
-0.053795859115080544,-0.053795859115080544
-0.03366199596079754,-0.03366199596079754
0.02841741543157505,0.02841741543157505
0.05526256630395239,0.05526256630395239
-0.005139023158896619,-0.005139023158896619
-0.03366199596079754,-0.03366199596079754
0.019189394819195342,0.019189394819195342
0.05526256630395239,0.05526256630395239
-0.006816845088420203,-0.006816845088420203
-0.03366199596079754,-0.03366199596079754
0.0745575184934736,0.0745575184934736
0.23395060179821403,0.23395060179821403
0.30693585573248994,0.30693585573248994
0.4117997263277139,0.4117997263277139
0.7515586670562395,0.7515586670562395
1.389969911239963,1.389969911239963
2.1659625536446203,2.1659625536446203
2.9025263807054738,2.9025263807054738
3.4109064253511194,3.4109064253511194
3.525837227523485,3.525837227523485
3.12567669733211,3.12567669733211
2.280054444852224,2.280054444852224
1.1349409779523785,1.1349409779523785
-0.12258655822554747,-0.12258655822554747
-1.3079677514339592,-1.3079677514339592
-2.168690401279558,-2.168690401279558
-2.542005780598555,-2.542005780598555
-2.4354640880738074,-2.4354640880738074
-2.078088017085284,-2.078088017085284
-1.724067589955808,-1.724067589955808
-1.5529297531444024,-1.5529297531444024
-1.546218465426308,-1.546218465426308
-1.5890029246291595,-1.5890029246291595
-1.546218465426308,-1.546218465426308
-1.4195429097472776,-1.4195429097472776
-1.2786058676672964,-1.2786058676672964
-1.212331901451115,-1.212331901451115
-1.1896813054025466,-1.1896813054025466
-1.163675065494931,-1.163675065494931
-1.1007567431377967,-1.1007567431377967
-1.1015956541025584,-1.1015956541025584
-1.1896813054025466,-1.1896813054025466
-1.276928045737773,-1.276928045737773
-1.1896813054025466,-1.1896813054025466
-1.0009263383311435,-1.0009263383311435
-0.9229076186082968,-0.9229076186082968
-1.031127133062568,-1.031127133062568
-1.1007567431377967,-1.1007567431377967
-0.9891815848244784,-0.9891815848244784
-0.8339830563435469,-0.8339830563435469
-0.8381776111673559,-0.8381776111673559
-0.9229076186082968,-0.9229076186082968
-0.9245854405378204,-0.9245854405378204
-0.8339830563435469,-0.8339830563435469
-0.7735814668806978,-0.7735814668806978
-0.745058494078797,-0.745058494078797
-0.7266024528540376,-0.7266024528540376
-0.745058494078797,-0.745058494078797
-0.8197215699425965,-0.8197215699425965
-0.8339830563435469,-0.8339830563435469
-0.7677090901273653,-0.7677090901273653
-0.745058494078797,-0.745058494078797
-0.8482445427444973,-0.8482445427444973
-0.9229076186082968,-0.9229076186082968
-0.8809620703702072,-0.8809620703702072
-0.8339830563435469,-0.8339830563435469
-0.9161963308902025,-0.9161963308902025
-1.0118321808730468,-1.0118321808730468
-1.0218991124501882,-1.0218991124501882
-1.0118321808730468,-1.0118321808730468
-1.0806228799835136,-1.0806228799835136
-1.1007567431377967,-1.1007567431377967
-0.986664851930193,-0.986664851930193
-0.8339830563435469,-0.8339830563435469
-0.7844873094226011,-0.7844873094226011
-0.745058494078797,-0.745058494078797
-0.6208996712940518,-0.6208996712940518
-0.4782848072845472,-0.4782848072845472
-0.4556342112359788,-0.4556342112359788
-0.4782848072845472,-0.4782848072845472
-0.4271112384340779,-0.4271112384340779
-0.30043568275504734,-0.30043568275504734
-0.20479983277220307,-0.20479983277220307
-0.12258655822554747,-0.12258655822554747
-0.003461201229373036,-0.003461201229373036
0.1450260395334641,0.1450260395334641
0.22388367022107253,0.22388367022107253
0.23395060179821403,0.23395060179821403
0.21885020443250178,0.21885020443250178
0.23395060179821403,0.23395060179821403
0.24150080048107017,0.24150080048107017
0.23395060179821403,0.23395060179821403
0.21549456057345462,0.21549456057345462
0.23395060179821403,0.23395060179821403
0.25324555398773524,0.25324555398773524
0.23395060179821403,0.23395060179821403
0.1450260395334641,0.1450260395334641
0.05526256630395239,0.05526256630395239
-0.004300112194134828,-0.004300112194134828
-0.03366199596079754,-0.03366199596079754
-0.05547368104460413,-0.05547368104460413
-0.03366199596079754,-0.03366199596079754
-0.006816845088420203,-0.006816845088420203
-0.03366199596079754,-0.03366199596079754
-0.11671418147221493,-0.11671418147221493
-0.12258655822554747,-0.12258655822554747
-0.030306352101750374,-0.030306352101750374
0.05526256630395239,0.05526256630395239
0.04519563472681089,0.04519563472681089
0.05526256630395239,0.05526256630395239
0.15005950532203485,0.15005950532203485
0.23395060179821403,0.23395060179821403
0.17271010137060325,0.17271010137060325
0.05526256630395239,0.05526256630395239
-0.011850310876990953,-0.011850310876990953
-0.03366199596079754,-0.03366199596079754
-0.088191208670314,-0.088191208670314
-0.12258655822554747,-0.12258655822554747
-0.11587527050745314,-0.11587527050745314
-0.12258655822554747,-0.12258655822554747
-0.1922161683007762,-0.1922161683007762
-0.2115111204902974,-0.2115111204902974
-0.1519484419922102,-0.1519484419922102
-0.12258655822554747,-0.12258655822554747
-0.21822240820839173,-0.21822240820839173
-0.30043568275504734,-0.30043568275504734
-0.2719127099531464,-0.2719127099531464
-0.2115111204902974,-0.2115111204902974
-0.24926211390457803,-0.24926211390457803
-0.30043568275504734,-0.30043568275504734
-0.2727516209179082,-0.2727516209179082
-0.2115111204902974,-0.2115111204902974
-0.24003409329219833,-0.24003409329219833
-0.30043568275504734,-0.30043568275504734
-0.29624112793123836,-0.29624112793123836
-0.2115111204902974,-0.2115111204902974
-0.15362626392173376,-0.15362626392173376
-0.12258655822554747,-0.12258655822554747
-0.09322467445888476,-0.09322467445888476
-0.03366199596079754,-0.03366199596079754
-0.017722687630323496,-0.017722687630323496
-0.03366199596079754,-0.03366199596079754
-0.030306352101750374,-0.030306352101750374
0.05526256630395239,0.05526256630395239
0.1441871285687023,0.1441871285687023
0.1450260395334641,0.1450260395334641
0.07120187463442643,0.07120187463442643
0.05526256630395239,0.05526256630395239
0.08965791585918585,0.08965791585918585
0.05526256630395239,0.05526256630395239
-0.06302387972746025,-0.06302387972746025
-0.03366199596079754,-0.03366199596079754
0.27673506100106543,0.27673506100106543
0.7674979753867136,0.7674979753867136
1.3060788147637838,1.3060788147637838
2.0132807580579746,2.0132807580579746
2.949505394732134,2.949505394732134
3.8815354765824845,3.8815354765824845
4.400821363770034,4.400821363770034
4.326158287906234,4.326158287906234
3.645801495484421,3.645801495484421
2.457903569381724,2.457903569381724
1.0015541345552534,1.0015541345552534
-0.30043568275504734,-0.30043568275504734
-1.2257544768873037,-1.2257544768873037
-1.8129921522205579,-1.8129921522205579
-2.0915105925214728,-2.0915105925214728
-1.9019167144853077,-1.9019167144853077
-1.3566245873901432,-1.3566245873901432
-0.9229076186082968,-0.9229076186082968
-0.9271021734321058,-0.9271021734321058
-1.1007567431377967,-1.1007567431377967
-1.0915287225254169,-1.0915287225254169
-0.9229076186082968,-0.9229076186082968
-0.8465667208149737,-0.8465667208149737
-0.8339830563435469,-0.8339830563435469
-0.7601588914445092,-0.7601588914445092
-0.656133931814047,-0.656133931814047
-0.6796234388273772,-0.6796234388273772
-0.745058494078797,-0.745058494078797
-0.7098242335588018,-0.7098242335588018
-0.5672093695492971,-0.5672093695492971
-0.5101634239454953,-0.5101634239454953
-0.5672093695492971,-0.5672093695492971
-0.6250942261178607,-0.6250942261178607
-0.5672093695492971,-0.5672093695492971
-0.4799626292140708,-0.4799626292140708
-0.4782848072845472,-0.4782848072845472
-0.5554646160426321,-0.5554646160426321
-0.5672093695492971,-0.5672093695492971
-0.5034521362274009,-0.5034521362274009
-0.4782848072845472,-0.4782848072845472
-0.5495922392892995,-0.5495922392892995
-0.5672093695492971,-0.5672093695492971
-0.4707346086016911,-0.4707346086016911
-0.38936024501979727,-0.38936024501979727
-0.4371781700112194,-0.4371781700112194
-0.4782848072845472,-0.4782848072845472
-0.4254334165045543,-0.4254334165045543
-0.38936024501979727,-0.38936024501979727
-0.4858350059674033,-0.4858350059674033
-0.5672093695492971,-0.5672093695492971
-0.5286194651702547,-0.5286194651702547
-0.4782848072845472,-0.4782848072845472
-0.5403642186769197,-0.5403642186769197
-0.5672093695492971,-0.5672093695492971
-0.4690567866721675,-0.4690567866721675
-0.38936024501979727,-0.38936024501979727
-0.4766069853550236,-0.4766069853550236
-0.5672093695492971,-0.5672093695492971
-0.5319751090293019,-0.5319751090293019
-0.4782848072845472,-0.4782848072845472
-0.5428809515712052,-0.5428809515712052
-0.5672093695492971,-0.5672093695492971
-0.4405338138702666,-0.4405338138702666
-0.30043568275504734,-0.30043568275504734
-0.30798588143790345,-0.30798588143790345
-0.30043568275504734,-0.30043568275504734
-0.13768695559125974,-0.13768695559125974
0.05526256630395239,0.05526256630395239
0.08126880621156793,0.08126880621156793
0.05526256630395239,0.05526256630395239
0.1483816833925113,0.1483816833925113
0.32287516406296396,0.32287516406296396
0.399216061856287,0.399216061856287
0.4117997263277139,0.4117997263277139
0.4461950758829474,0.4461950758829474
0.5007242885924639,0.5007242885924639
0.4965297337686549,0.4965297337686549
0.5007242885924639,0.5007242885924639
0.5493811245486477,0.5493811245486477
0.5896488508572137,0.5896488508572137
0.5409920149010299,0.5409920149010299
0.5007242885924639,0.5007242885924639
0.5326029052534119,0.5326029052534119
0.5896488508572137,0.5896488508572137
0.560286967090551,0.560286967090551
0.5007242885924639,0.5007242885924639
0.4789126035086572,0.4789126035086572
0.5007242885924639,0.5007242885924639
0.4940130008743695,0.4940130008743695
0.5007242885924639,0.5007242885924639
0.56448152191436,0.56448152191436
0.6785734131219637,0.6785734131219637
0.7247135161838623,0.7247135161838623
0.6785734131219637,0.6785734131219637
0.5955212276105463,0.5955212276105463
0.5896488508572137,0.5896488508572137
0.6374667758486359,0.6374667758486359
0.6785734131219637,0.6785734131219637
0.669345392509584,0.669345392509584
0.6785734131219637,0.6785734131219637
0.6970294543467231,0.6970294543467231
0.6785734131219637,0.6785734131219637
0.6030714262934024,0.6030714262934024
0.5896488508572137,0.5896488508572137
0.649211529355301,0.649211529355301
0.6785734131219637,0.6785734131219637
0.5862932069981666,0.5862932069981666
0.5007242885924639,0.5007242885924639
0.4948519118391313,0.4948519118391313
0.5007242885924639,0.5007242885924639
0.4101219043981903,0.4101219043981903
0.32287516406296396,0.32287516406296396
0.30693585573248994,0.30693585573248994
0.32287516406296396,0.32287516406296396
0.29183545836677766,0.29183545836677766
0.32287516406296396,0.32287516406296396
0.4294168565877115,0.4294168565877115
0.5007242885924639,0.5007242885924639
0.4134775482572375,0.4134775482572375
0.32287516406296396,0.32287516406296396
0.34300902721724696,0.34300902721724696
0.4117997263277139,0.4117997263277139
0.37824328773724225,0.37824328773724225
0.32287516406296396,0.32287516406296396
0.3698541780896243,0.3698541780896243
0.5007242885924639,0.5007242885924639
0.5493811245486477,0.5493811245486477
0.5007242885924639,0.5007242885924639
0.4453561649181856,0.4453561649181856
0.5007242885924639,0.5007242885924639
0.685284700840058,0.685284700840058
1.0342716621809633,1.0342716621809633
1.5367793300732766,1.5367793300732766
2.1911298825874743,2.1911298825874743
2.9436330179788017,2.9436330179788017
3.703686352052985,3.703686352052985
4.199482732227204,4.199482732227204
4.148309163376735,4.148309163376735
3.4570465284130183,3.4570465284130183
2.368979007116974,2.368979007116974
1.1718530604018973,1.1718530604018973
0.05526256630395239,0.05526256630395239
-0.8868344471235398,-0.8868344471235398
-1.4564549921967964,-1.4564549921967964
-1.5042729171882185,-1.5042729171882185
-1.1007567431377967,-1.1007567431377967
-0.6208996712940518,-0.6208996712940518
-0.38936024501979727,-0.38936024501979727
-0.4506007454474081,-0.4506007454474081
-0.5672093695492971,-0.5672093695492971
-0.5982490752454834,-0.5982490752454834
-0.5672093695492971,-0.5672093695492971
-0.5470755063950141,-0.5470755063950141
-0.4782848072845472,-0.4782848072845472
-0.39019915598455907,-0.39019915598455907
-0.38936024501979727,-0.38936024501979727
-0.5151968897340661,-0.5151968897340661
-0.5672093695492971,-0.5672093695492971
-0.4766069853550236,-0.4766069853550236
-0.38936024501979727,-0.38936024501979727
-0.4698956976369293,-0.4698956976369293
-0.5672093695492971,-0.5672093695492971
-0.5453976844654905,-0.5453976844654905
-0.4782848072845472,-0.4782848072845472
-0.5177136226283514,-0.5177136226283514
-0.5672093695492971,-0.5672093695492971
-0.5076466910512099,-0.5076466910512099
-0.38936024501979727,-0.38936024501979727
-0.34154232002837515,-0.34154232002837515
-0.30043568275504734,-0.30043568275504734
-0.20479983277220307,-0.20479983277220307
-0.12258655822554747,-0.12258655822554747
-0.1578208187455427,-0.1578208187455427
-0.2115111204902974,-0.2115111204902974
-0.18718270251220545,-0.18718270251220545
-0.12258655822554747,-0.12258655822554747
-0.12006982533126209,-0.12006982533126209
-0.12258655822554747,-0.12258655822554747
-0.0789631880579343,-0.0789631880579343
-0.03366199596079754,-0.03366199596079754
-0.07225190033983997,-0.07225190033983997
-0.12258655822554747,-0.12258655822554747
-0.12678111304935644,-0.12678111304935644
-0.12258655822554747,-0.12258655822554747
-0.2006052779483941,-0.2006052779483941
-0.30043568275504734,-0.30043568275504734
-0.33818667616932796,-0.33818667616932796
-0.30043568275504734,-0.30043568275504734
-0.2836574634598115,-0.2836574634598115
-0.30043568275504734,-0.30043568275504734
-0.32056954590933034,-0.32056954590933034
-0.30043568275504734,-0.30043568275504734
-0.28785201828362045,-0.28785201828362045
-0.30043568275504734,-0.30043568275504734
-0.32644192266266286,-0.32644192266266286
-0.30043568275504734,-0.30043568275504734
-0.24842320293981623,-0.24842320293981623
-0.2115111204902974,-0.2115111204902974
-0.19808854505410872,-0.19808854505410872
-0.12258655822554747,-0.12258655822554747
-0.007655756053181995,-0.007655756053181995
0.05526256630395239,0.05526256630395239
0.02841741543157505,0.02841741543157505
0.05526256630395239,0.05526256630395239
0.1852937658420301,0.1852937658420301
0.32287516406296396,0.32287516406296396
0.36565962326581536,0.36565962326581536
0.4117997263277139,0.4117997263277139
0.4898184460505605,0.4898184460505605
0.5007242885924639,0.5007242885924639
0.3824378425610512,0.3824378425610512
0.32287516406296396,0.32287516406296396
0.4109608153629521,0.4109608153629521
0.5007242885924639,0.5007242885924639
0.4218666579048554,0.4218666579048554
0.32287516406296396,0.32287516406296396
0.36649853423057716,0.36649853423057716
0.5007242885924639,0.5007242885924639
0.5359585491124591,0.5359585491124591
0.5007242885924639,0.5007242885924639
0.4847849802619898,0.4847849802619898
0.5007242885924639,0.5007242885924639
0.4814293364029426,0.4814293364029426
0.5007242885924639,0.5007242885924639
0.5904877618219756,0.5904877618219756
0.6785734131219637,0.6785734131219637
0.6517282622495864,0.6517282622495864
0.5896488508572137,0.5896488508572137
0.5720317205972162,0.5720317205972162
0.5896488508572137,0.5896488508572137
0.5510589464781713,0.5510589464781713
0.5007242885924639,0.5007242885924639
0.4831071583324662,0.4831071583324662
0.5007242885924639,0.5007242885924639
0.4956908228038931,0.4956908228038931
0.5007242885924639,0.5007242885924639
0.5124690420991289,0.5124690420991289
0.5007242885924639,0.5007242885924639
0.4109608153629521,0.4109608153629521
0.32287516406296396,0.32287516406296396
0.29435219126106305,0.29435219126106305
0.32287516406296396,0.32287516406296396
0.30274130090868095,0.30274130090868095
0.23395060179821403,0.23395060179821403
0.18193812198298295,0.18193812198298295
0.23395060179821403,0.23395060179821403
0.3094525886267753,0.3094525886267753
0.32287516406296396,0.32287516406296396
0.25156773205821165,0.25156773205821165
0.23395060179821403,0.23395060179821403
0.2800907048601126,0.2800907048601126
0.32287516406296396,0.32287516406296396
0.27254050617725645,0.27254050617725645
0.23395060179821403,0.23395060179821403
0.26499030749440033,0.26499030749440033
0.32287516406296396,0.32287516406296396
0.29686892415534843,0.29686892415534843
0.23395060179821403,0.23395060179821403
0.20878327285536027,0.20878327285536027
0.23395060179821403,0.23395060179821403
0.23143386890392867,0.23143386890392867
0.23395060179821403,0.23395060179821403
0.30777476669725173,0.30777476669725173
0.5007242885924639,0.5007242885924639
0.7666590644219519,0.7666590644219519
1.1231962244457134,1.1231962244457134
1.6072478511132673,1.6072478511132673
2.280054444852224,2.280054444852224
3.0929591697064005,3.0929591697064005
3.8815354765824845,3.8815354765824845
4.294279671245286,4.294279671245286
4.059384601111985,4.059384601111985
3.187756108724483,3.187756108724483
2.0132807580579746,2.0132807580579746
0.806087879765756,0.806087879765756
-0.30043568275504734,-0.30043568275504734
-1.1737419970720726,-1.1737419970720726
-1.546218465426308,-1.546218465426308
-1.3658526080025228,-1.3658526080025228
-0.9229076186082968,-0.9229076186082968
-0.6276109590121461,-0.6276109590121461
-0.5672093695492971,-0.5672093695492971
-0.615866205505481,-0.615866205505481
-0.656133931814047,-0.656133931814047
-0.7140187883826107,-0.7140187883826107
-0.745058494078797,-0.745058494078797
-0.6720732401445211,-0.6720732401445211
-0.4782848072845472,-0.4782848072845472
-0.3448979638874223,-0.3448979638874223
-0.38936024501979727,-0.38936024501979727
-0.5428809515712052,-0.5428809515712052
-0.5672093695492971,-0.5672093695492971
-0.4581509441302642,-0.4581509441302642
-0.38936024501979727,-0.38936024501979727
-0.4849960950026415,-0.4849960950026415
-0.5672093695492971,-0.5672093695492971
-0.5068077800864481,-0.5068077800864481
-0.38936024501979727,-0.38936024501979727
-0.37258202572456145,-0.37258202572456145
-0.38936024501979727,-0.38936024501979727
-0.34825360774646946,-0.34825360774646946
-0.30043568275504734,-0.30043568275504734
-0.3448979638874223,-0.3448979638874223
-0.38936024501979727,-0.38936024501979727
-0.354125984499802,-0.354125984499802
-0.30043568275504734,-0.30043568275504734
-0.31553608012075957,-0.31553608012075957
-0.30043568275504734,-0.30043568275504734
-0.19976636698363232,-0.19976636698363232
-0.12258655822554747,-0.12258655822554747
-0.19389399023029977,-0.19389399023029977
-0.30043568275504734,-0.30043568275504734
-0.32308627880361573,-0.32308627880361573
-0.30043568275504734,-0.30043568275504734
-0.3432201419578987,-0.3432201419578987
-0.38936024501979727,-0.38936024501979727
-0.3876824230902737,-0.3876824230902737
-0.38936024501979727,-0.38936024501979727
-0.4799626292140708,-0.4799626292140708
-0.5672093695492971,-0.5672093695492971
-0.583987588844533,-0.583987588844533
-0.5672093695492971,-0.5672093695492971
-0.5898599655978655,-0.5898599655978655
-0.5672093695492971,-0.5672093695492971
-0.4707346086016911,-0.4707346086016911
-0.38936024501979727,-0.38936024501979727
-0.4279501493988397,-0.4279501493988397
-0.4782848072845472,-0.4782848072845472
-0.4287890603636015,-0.4287890603636015
-0.30043568275504734,-0.30043568275504734
-0.23164498364458042,-0.23164498364458042
-0.2115111204902974,-0.2115111204902974
-0.1611764626045899,-0.1611764626045899
-0.03366199596079754,-0.03366199596079754
0.08042989524680615,0.08042989524680615
0.1450260395334641,0.1450260395334641
0.197877430313457,0.197877430313457
0.32287516406296396,0.32287516406296396
0.4537452745658035,0.4537452745658035
0.5007242885924639,0.5007242885924639
0.4654900280724686,0.4654900280724686
0.5007242885924639,0.5007242885924639
0.6164940017295911,0.6164940017295911
0.6785734131219637,0.6785734131219637
0.5913266727867373,0.5913266727867373
0.5007242885924639,0.5007242885924639
0.4948519118391313,0.4948519118391313
0.5007242885924639,0.5007242885924639
0.4310946785172351,0.4310946785172351
0.4117997263277139,0.4117997263277139
0.479751514473419,0.479751514473419
0.5007242885924639,0.5007242885924639
0.3824378425610512,0.3824378425610512
0.32287516406296396,0.32287516406296396
0.4201888359753318,0.4201888359753318
0.5007242885924639,0.5007242885924639
0.3799211096667658,0.3799211096667658
0.23395060179821403,0.23395060179821403
0.24150080048107017,0.24150080048107017
0.32287516406296396,0.32287516406296396
0.29099654740201586,0.29099654740201586
0.23395060179821403,0.23395060179821403
0.26163466363535315,0.26163466363535315
0.32287516406296396,0.32287516406296396
0.30609694476772814,0.30609694476772814
0.32287516406296396,0.32287516406296396
0.42857794562294976,0.42857794562294976
0.5007242885924639,0.5007242885924639
0.4126386372924757,0.4126386372924757
0.32287516406296396,0.32287516406296396
0.35307595879438847,0.35307595879438847
0.4117997263277139,0.4117997263277139
0.33461991756962906,0.33461991756962906
0.23395060179821403,0.23395060179821403
0.24150080048107017,0.24150080048107017
0.32287516406296396,0.32287516406296396
0.30777476669725173,0.30777476669725173
0.23395060179821403,0.23395060179821403
0.19536069741917161,0.19536069741917161
0.23395060179821403,0.23395060179821403
0.24317862241059374,0.24317862241059374
0.23395060179821403,0.23395060179821403
0.24988991012868808,0.24988991012868808
0.32287516406296396,0.32287516406296396
0.3597872465124828,0.3597872465124828
0.32287516406296396,0.32287516406296396
0.24988991012868808,0.24988991012868808
0.23395060179821403,0.23395060179821403
0.24905099916392628,0.24905099916392628
0.23395060179821403,0.23395060179821403
0.18026030005345936,0.18026030005345936
0.23395060179821403,0.23395060179821403
0.4696845828962775,0.4696845828962775
0.8564225376514636,0.8564225376514636
1.3186624792352108,1.3186624792352108
1.9243561957932245,1.9243561957932245
2.6818927969731226,2.6818927969731226
3.436912665258735,3.436912665258735
3.8949580520186733,3.8949580520186733
3.8815354765824845,3.8815354765824845
3.3169483972977987,3.3169483972977987
2.280054444852224,2.280054444852224
1.0091043332381096,1.0091043332381096
-0.12258655822554747,-0.12258655822554747
-0.9631753449168629,-0.9631753449168629
-1.546218465426308,-1.546218465426308
-1.8381594811634117,-1.8381594811634117
-1.6351430276910581,-1.6351430276910581
-1.0512609962168509,-1.0512609962168509
-0.5672093695492971,-0.5672093695492971
-0.5177136226283514,-0.5177136226283514
-0.656133931814047,-0.656133931814047
-0.6620063085673796,-0.6620063085673796
-0.5672093695492971,-0.5672093695492971
-0.5672093695492971,-0.5672093695492971
-0.5672093695492971,-0.5672093695492971
-0.4682178757074057,-0.4682178757074057
-0.38936024501979727,-0.38936024501979727
-0.4841571840378797,-0.4841571840378797
-0.5672093695492971,-0.5672093695492971
-0.4975797594740684,-0.4975797594740684
-0.38936024501979727,-0.38936024501979727
-0.4304668822931251,-0.4304668822931251
-0.4782848072845472,-0.4782848072845472
-0.3977493546674152,-0.3977493546674152
-0.30043568275504734,-0.30043568275504734
-0.3667096489712289,-0.3667096489712289
-0.4782848072845472,-0.4782848072845472
-0.4665400537778821,-0.4665400537778821
-0.38936024501979727,-0.38936024501979727
-0.438855991940743,-0.438855991940743
-0.5672093695492971,-0.5672093695492971
-0.599926897175007,-0.599926897175007
-0.4782848072845472,-0.4782848072845472
-0.37258202572456145,-0.37258202572456145
-0.38936024501979727,-0.38936024501979727
-0.4749291634255,-0.4749291634255
-0.4782848072845472,-0.4782848072845472
-0.3927158888788444,-0.3927158888788444
-0.30043568275504734,-0.30043568275504734
-0.2836574634598115,-0.2836574634598115
-0.30043568275504734,-0.30043568275504734
-0.33231429941599544,-0.33231429941599544
-0.38936024501979727,-0.38936024501979727
-0.4715735195664529,-0.4715735195664529
-0.4782848072845472,-0.4782848072845472
-0.414527573962651,-0.414527573962651
-0.38936024501979727,-0.38936024501979727
-0.4866739169321651,-0.4866739169321651
-0.5672093695492971,-0.5672093695492971
-0.5202303555226367,-0.5202303555226367
-0.38936024501979727,-0.38936024501979727
-0.31973063494456855,-0.31973063494456855
-0.30043568275504734,-0.30043568275504734
-0.29456330600171476,-0.29456330600171476
-0.30043568275504734,-0.30043568275504734
-0.33315321038075724,-0.33315321038075724
-0.30043568275504734,-0.30043568275504734
-0.19724963408934693,-0.19724963408934693
-0.12258655822554747,-0.12258655822554747
-0.1427204213798305,-0.1427204213798305
-0.12258655822554747,-0.12258655822554747
0.00408899745348309,0.00408899745348309
0.1450260395334641,0.1450260395334641
0.1878104987363155,0.1878104987363155
0.23395060179821403,0.23395060179821403
0.33797556142867624,0.33797556142867624
0.4117997263277139,0.4117997263277139
0.3614650684420064,0.3614650684420064
0.32287516406296396,0.32287516406296396
0.3715320000191479,0.3715320000191479
0.4117997263277139,0.4117997263277139
0.32287516406296396,0.32287516406296396
0.23395060179821403,0.23395060179821403
0.22975604697440508,0.22975604697440508
0.23395060179821403,0.23395060179821403
0.12824782023822828,0.12824782023822828
0.05526256630395239,0.05526256630395239
0.0946913816477566,0.0946913816477566
0.1450260395334641,0.1450260395334641
0.06029603209252314,0.06029603209252314
-0.03366199596079754,-0.03366199596079754
-0.016044865700799913,-0.016044865700799913
0.05526256630395239,0.05526256630395239
0.05526256630395239,0.05526256630395239
0.05526256630395239,0.05526256630395239
0.13412019699156083,0.13412019699156083
0.23395060179821403,0.23395060179821403
0.2574401088115442,0.2574401088115442
0.32287516406296396,0.32287516406296396
0.5552535013019803,0.5552535013019803
0.9453470999162135,0.9453470999162135
1.3857753564161541,1.3857753564161541
1.9243561957932245,1.9243561957932245
2.611424275933132,2.611424275933132
3.3471491920292236,3.3471491920292236
3.840428839309157,3.840428839309157
3.8815354765824845,3.8815354765824845
3.411745336315881,3.411745336315881
2.546828131646474,2.546828131646474
1.4444991239494795,1.4444991239494795
0.32287516406296396,0.32287516406296396
-0.6410335344483348,-0.6410335344483348
-1.2786058676672964,-1.2786058676672964
-1.5210511364834545,-1.5210511364834545
-1.3675304299320465,-1.3675304299320465
-0.9782757422825751,-0.9782757422825751
-0.5672093695492971,-0.5672093695492971
-0.35832053932361096,-0.35832053932361096
-0.38936024501979727,-0.38936024501979727
-0.5302972870997783,-0.5302972870997783
-0.5672093695492971,-0.5672093695492971
-0.48164045114359433,-0.48164045114359433
-0.38936024501979727,-0.38936024501979727
-0.3868435121255119,-0.3868435121255119
-0.38936024501979727,-0.38936024501979727
-0.37258202572456145,-0.37258202572456145
-0.38936024501979727,-0.38936024501979727
-0.4724124305312146,-0.4724124305312146
-0.4782848072845472,-0.4782848072845472
-0.4052995533502713,-0.4052995533502713
-0.38936024501979727,-0.38936024501979727
-0.5084856020159717,-0.5084856020159717
-0.5672093695492971,-0.5672093695492971
-0.4740902524607382,-0.4740902524607382
-0.38936024501979727,-0.38936024501979727
-0.4732513414959764,-0.4732513414959764
-0.5672093695492971,-0.5672093695492971
-0.5076466910512099,-0.5076466910512099
-0.38936024501979727,-0.38936024501979727
-0.4296279713283633,-0.4296279713283633
-0.5672093695492971,-0.5672093695492971
-0.624255315153099,-0.624255315153099
-0.5672093695492971,-0.5672093695492971
-0.5638537256902499,-0.5638537256902499
-0.656133931814047,-0.656133931814047
-0.7551254256559384,-0.7551254256559384
-0.745058494078797,-0.745058494078797
-0.6620063085673796,-0.6620063085673796
-0.5672093695492971,-0.5672093695492971
-0.5160358006988278,-0.5160358006988278
-0.4782848072845472,-0.4782848072845472
-0.4422116357997901,-0.4422116357997901
-0.38936024501979727,-0.38936024501979727
-0.3448979638874223,-0.3448979638874223
-0.30043568275504734,-0.30043568275504734
-0.28449637442457326,-0.28449637442457326
-0.30043568275504734,-0.30043568275504734
-0.33231429941599544,-0.33231429941599544
-0.30043568275504734,-0.30043568275504734
-0.21067220952553561,-0.21067220952553561
-0.12258655822554747,-0.12258655822554747
-0.08567447577602863,-0.08567447577602863
-0.03366199596079754,-0.03366199596079754
0.034289792184907596,0.034289792184907596
0.05526256630395239,0.05526256630395239
-0.0059779341236584115,-0.0059779341236584115
-0.03366199596079754,-0.03366199596079754
0.01415592903062459,0.01415592903062459
0.05526256630395239,0.05526256630395239
0.0057668193830066735,0.0057668193830066735
-0.03366199596079754,-0.03366199596079754
0.004927908418244882,0.004927908418244882
0.05526256630395239,0.05526256630395239
0.016672661924909966,0.016672661924909966
-0.03366199596079754,-0.03366199596079754
-0.035339817890321125,-0.035339817890321125
-0.03366199596079754,-0.03366199596079754
-0.09574140735317013,-0.09574140735317013
-0.12258655822554747,-0.12258655822554747
-0.07225190033983997,-0.07225190033983997
-0.03366199596079754,-0.03366199596079754
-0.09238576349412296,-0.09238576349412296
-0.12258655822554747,-0.12258655822554747
-0.047923482361748,-0.047923482361748
0.05526256630395239,0.05526256630395239
0.0854633610353769,0.0854633610353769
0.1450260395334641,0.1450260395334641
0.2599568417058296,0.2599568417058296
0.32287516406296396,0.32287516406296396
0.2280782250448815,0.2280782250448815
0.1450260395334641,0.1450260395334641
0.1785824781239358,0.1785824781239358
0.23395060179821403,0.23395060179821403
0.157609704004891,0.157609704004891
0.05526256630395239,0.05526256630395239
0.06616840884585569,0.06616840884585569
0.1450260395334641,0.1450260395334641
0.12824782023822828,0.12824782023822828
0.05526256630395239,0.05526256630395239
0.06952405270490285,0.06952405270490285
0.23395060179821403,0.23395060179821403
0.4487118087772327,0.4487118087772327
0.6785734131219637,0.6785734131219637
0.9872926481543031,0.9872926481543031
1.4788944735047131,1.4788944735047131
2.108077697076057,2.108077697076057
2.724677256175974,2.724677256175974
3.1206432315435397,3.1206432315435397
3.1693000674997234,3.1693000674997234
2.790112311427394,2.790112311427394
2.0132807580579746,2.0132807580579746
0.9629642301762111,0.9629642301762111
-0.12258655822554747,-0.12258655822554747
-1.083139612877799,-1.083139612877799
-1.8129921522205579,-1.8129921522205579
-2.2165083262709797,-2.2165083262709797
-2.168690401279558,-2.168690401279558
-1.7785968026653245,-1.7785968026653245
-1.3675304299320465,-1.3675304299320465
-1.2215599220634947,-1.2215599220634947
-1.2786058676672964,-1.2786058676672964
-1.3608191422139522,-1.3608191422139522
-1.3675304299320465,-1.3675304299320465
-1.3197125049406244,-1.3197125049406244
-1.1896813054025466,-1.1896813054025466
-1.047905352357804,-1.047905352357804
-1.0118321808730468,-1.0118321808730468
-1.0990789212082732,-1.0990789212082732
-1.1007567431377967,-1.1007567431377967
-0.9589807900930539,-0.9589807900930539
-0.8339830563435469,-0.8339830563435469
-0.8767675155463983,-0.8767675155463983
-0.9229076186082968,-0.9229076186082968
-0.845727809850212,-0.845727809850212
-0.745058494078797,-0.745058494078797
-0.776937110739745,-0.776937110739745
-0.8339830563435469,-0.8339830563435469
-0.797070973894028,-0.797070973894028
-0.745058494078797,-0.745058494078797
-0.817204837048311,-0.817204837048311
-0.9229076186082968,-0.9229076186082968
-0.946397125621627,-0.946397125621627
-0.9229076186082968,-0.9229076186082968
-0.96653098877591,-0.96653098877591
-1.0118321808730468,-1.0118321808730468
-0.9816313861416223,-0.9816313861416223
-0.9229076186082968,-0.9229076186082968
-0.9522695023749596,-0.9522695023749596
-1.0118321808730468,-1.0118321808730468
-1.0034430712254288,-1.0034430712254288
-0.9229076186082968,-0.9229076186082968
-0.890190090982587,-0.890190090982587
-0.9229076186082968,-0.9229076186082968
-0.9589807900930539,-0.9589807900930539
-0.9229076186082968,-0.9229076186082968
-0.8675394949340186,-0.8675394949340186
-0.8339830563435469,-0.8339830563435469
-0.817204837048311,-0.817204837048311
-0.745058494078797,-0.745058494078797
-0.6628452195321414,-0.6628452195321414
-0.656133931814047,-0.656133931814047
-0.733313740572132,-0.733313740572132
-0.745058494078797,-0.745058494078797
-0.6527782879549999,-0.6527782879549999
-0.5672093695492971,-0.5672093695492971
-0.5806319449854858,-0.5806319449854858
-0.5672093695492971,-0.5672093695492971
-0.4455672796588373,-0.4455672796588373
-0.30043568275504734,-0.30043568275504734
-0.2509399358341016,-0.2509399358341016
-0.2115111204902974,-0.2115111204902974
-0.11587527050745314,-0.11587527050745314
-0.03366199596079754,-0.03366199596079754
-0.04372892753793904,-0.04372892753793904
-0.03366199596079754,-0.03366199596079754
0.03764543604395476,0.03764543604395476
0.05526256630395239,0.05526256630395239
-0.05715150297412771,-0.05715150297412771
-0.12258655822554747,-0.12258655822554747
-0.06218496876269846,-0.06218496876269846
-0.03366199596079754,-0.03366199596079754
-0.17292121611125497,-0.17292121611125497
-0.30043568275504734,-0.30043568275504734
-0.27526835381219356,-0.27526835381219356
-0.2115111204902974,-0.2115111204902974
-0.2635236003055285,-0.2635236003055285
-0.30043568275504734,-0.30043568275504734
-0.2115111204902974,-0.2115111204902974
-0.12258655822554747,-0.12258655822554747
-0.2006052779483941,-0.2006052779483941
-0.30043568275504734,-0.30043568275504734
-0.22996716171505682,-0.22996716171505682
-0.03366199596079754,-0.03366199596079754
0.06281276498680852,0.06281276498680852
0.05526256630395239,0.05526256630395239
0.09049682682394765,0.09049682682394765
0.23395060179821403,0.23395060179821403
0.31616387634486964,0.31616387634486964
0.23395060179821403,0.23395060179821403
0.07623534042299718,0.07623534042299718
0.05526256630395239,0.05526256630395239
0.1643209917229853,0.1643209917229853
0.23395060179821403,0.23395060179821403
0.15257623821632024,0.15257623821632024
0.05526256630395239,0.05526256630395239
0.041001079903001926,0.041001079903001926
0.05526256630395239,0.05526256630395239
0.000733353594435923,0.000733353594435923
-0.03366199596079754,-0.03366199596079754
0.011639196136339217,0.011639196136339217
0.05526256630395239,0.05526256630395239
-0.021078331489370664,-0.021078331489370664
-0.12258655822554747,-0.12258655822554747
-0.14439824330935405,-0.14439824330935405
-0.12258655822554747,-0.12258655822554747
-0.1905383463712526,-0.1905383463712526
-0.30043568275504734,-0.30043568275504734
-0.3759376695836086,-0.3759376695836086
-0.38936024501979727,-0.38936024501979727
-0.4304668822931251,-0.4304668822931251
-0.4782848072845472,-0.4782848072845472
-0.5252638213112075,-0.5252638213112075
-0.5672093695492971,-0.5672093695492971
-0.6099938287521485,-0.6099938287521485
-0.5672093695492971,-0.5672093695492971
-0.43214470422264867,-0.43214470422264867
-0.30043568275504734,-0.30043568275504734
-0.27862399767124074,-0.27862399767124074
-0.30043568275504734,-0.30043568275504734
-0.26604033319981385,-0.26604033319981385
-0.12258655822554747,-0.12258655822554747
0.1357980189210844,0.1357980189210844
0.5896488508572137,0.5896488508572137
1.2590998007371237,1.2590998007371237
2.1022053203227244,2.1022053203227244
3.0359132241025986,3.0359132241025986
3.970460038847235,3.970460038847235
4.589576330841437,4.589576330841437
4.504007412435734,4.504007412435734
3.6105672349644258,3.6105672349644258
2.280054444852224,2.280054444852224
0.8983680858895532,0.8983680858895532
-0.38936024501979727,-0.38936024501979727
-1.5093063829767892,-1.5093063829767892
-2.168690401279558,-2.168690401279558
-2.1728849561033665,-2.1728849561033665
-1.724067589955808,-1.724067589955808
-1.2903506211739617,-1.2903506211739617
-1.1007567431377967,-1.1007567431377967
-1.0906898115606551,-1.0906898115606551
-1.1007567431377967,-1.1007567431377967
-1.1083069418206528,-1.1083069418206528
-1.1007567431377967,-1.1007567431377967
-1.0512609962168509,-1.0512609962168509
-0.9229076186082968,-0.9229076186082968
-0.8213993918721201,-0.8213993918721201
-0.8339830563435469,-0.8339830563435469
-0.930457817291153,-0.930457817291153
-0.9229076186082968,-0.9229076186082968
-0.8138491931892639,-0.8138491931892639
-0.745058494078797,-0.745058494078797
-0.8104935493302168,-0.8104935493302168
-0.8339830563435469,-0.8339830563435469
-0.7383472063607026,-0.7383472063607026
-0.656133931814047,-0.656133931814047
-0.7098242335588018,-0.7098242335588018
-0.745058494078797,-0.745058494078797
-0.6519393769902381,-0.6519393769902381
-0.5672093695492971,-0.5672093695492971
-0.6469059112016673,-0.6469059112016673
-0.745058494078797,-0.745058494078797
-0.6947238361930894,-0.6947238361930894
-0.5672093695492971,-0.5672093695492971
-0.5420420406064433,-0.5420420406064433
-0.5672093695492971,-0.5672093695492971
-0.5353307528883491,-0.5353307528883491
-0.4782848072845472,-0.4782848072845472
-0.5101634239454953,-0.5101634239454953
-0.5672093695492971,-0.5672093695492971
-0.5730817463026296,-0.5730817463026296
-0.5672093695492971,-0.5672093695492971
-0.6460670002369056,-0.6460670002369056
-0.745058494078797,-0.745058494078797
-0.8021044396825988,-0.8021044396825988
-0.8339830563435469,-0.8339830563435469
-0.8994181115949667,-0.8994181115949667
-0.9229076186082968,-0.9229076186082968
-0.8784453374759219,-0.8784453374759219
-0.8339830563435469,-0.8339830563435469
-0.8792842484406836,-0.8792842484406836
-0.9229076186082968,-0.9229076186082968
-0.8750896936168747,-0.8750896936168747
-0.745058494078797,-0.745058494078797
-0.6427113563778584,-0.6427113563778584
-0.5672093695492971,-0.5672093695492971
-0.4900295607912123,-0.4900295607912123
-0.38936024501979727,-0.38936024501979727
-0.30546914854361806,-0.30546914854361806
-0.2115111204902974,-0.2115111204902974
-0.09238576349412296,-0.09238576349412296
0.05526256630395239,0.05526256630395239
0.1643209917229853,0.1643209917229853
0.23395060179821403,0.23395060179821403
0.29770783512011023,0.29770783512011023
0.4117997263277139,0.4117997263277139
0.5007242885924639,0.5007242885924639
0.5007242885924639,0.5007242885924639
0.4487118087772327,0.4487118087772327
0.5007242885924639,0.5007242885924639
0.6307554881305416,0.6307554881305416
0.6785734131219637,0.6785734131219637
0.5720317205972162,0.5720317205972162
0.5007242885924639,0.5007242885924639
0.5502200355134096,0.5502200355134096
0.5896488508572137,0.5896488508572137
0.4923351789448459,0.4923351789448459
0.4117997263277139,0.4117997263277139
0.4520674526362799,0.4520674526362799
0.5007242885924639,0.5007242885924639
0.4101219043981903,0.4101219043981903
0.32287516406296396,0.32287516406296396
0.35475378072391206,0.35475378072391206
0.4117997263277139,0.4117997263277139
0.3304253627458201,0.3304253627458201
0.23395060179821403,0.23395060179821403
0.24905099916392628,0.24905099916392628
0.32287516406296396,0.32287516406296396
0.28764090354296873,0.28764090354296873
0.23395060179821403,0.23395060179821403
0.2775739719658272,0.2775739719658272
0.4117997263277139,0.4117997263277139
0.483946069297228,0.483946069297228
0.5007242885924639,0.5007242885924639
0.5015631995572256,0.5015631995572256
0.5007242885924639,0.5007242885924639
0.4747180486848483,0.4747180486848483
0.5007242885924639,0.5007242885924639
0.5896488508572137,0.5896488508572137
0.6785734131219637,0.6785734131219637
0.7029018311000557,0.7029018311000557
0.7674979753867136,0.7674979753867136
0.9428303670219281,0.9428303670219281
1.2121207867104633,1.2121207867104633
1.5325847752494677,1.5325847752494677
2.0132807580579746,2.0132807580579746
2.6978321053035965,2.6978321053035965
3.436912665258735,3.436912665258735
3.8983136958777207,3.8983136958777207
3.8815354765824845,3.8815354765824845
3.3555383016768414,3.3555383016768414
2.457903569381724,2.457903569381724
1.3480243630018736,1.3480243630018736
0.23395060179821403,0.23395060179821403
-0.7224078980302286,-0.7224078980302286
-1.3675304299320465,-1.3675304299320465
-1.6468877811977232,-1.6468877811977232
-1.546218465426308,-1.546218465426308
-1.180453284790167,-1.180453284790167
-0.745058494078797,-0.745058494078797
-0.5084856020159717,-0.5084856020159717
-0.5672093695492971,-0.5672093695492971
-0.7744203778454597,-0.7744203778454597
-0.8339830563435469,-0.8339830563435469
-0.704790767770231,-0.704790767770231
-0.5672093695492971,-0.5672093695492971
-0.5672093695492971,-0.5672093695492971
-0.5672093695492971,-0.5672093695492971
-0.479123718249309,-0.479123718249309
-0.38936024501979727,-0.38936024501979727
-0.43214470422264867,-0.43214470422264867
-0.4782848072845472,-0.4782848072845472
-0.4170443068569364,-0.4170443068569364
-0.30043568275504734,-0.30043568275504734
-0.28030181960076433,-0.28030181960076433
-0.30043568275504734,-0.30043568275504734
-0.26855706609409924,-0.26855706609409924
-0.2115111204902974,-0.2115111204902974
-0.23667844943315117,-0.23667844943315117
-0.30043568275504734,-0.30043568275504734
-0.32308627880361573,-0.32308627880361573
-0.30043568275504734,-0.30043568275504734
-0.30127459371980914,-0.30127459371980914
-0.30043568275504734,-0.30043568275504734
-0.29204657310742943,-0.29204657310742943
-0.30043568275504734,-0.30043568275504734
-0.33650885423980437,-0.33650885423980437
-0.30043568275504734,-0.30043568275504734
-0.19389399023029977,-0.19389399023029977
-0.12258655822554747,-0.12258655822554747
-0.16788775032268421,-0.16788775032268421
-0.2115111204902974,-0.2115111204902974
-0.17711577093506395,-0.17711577093506395
-0.12258655822554747,-0.12258655822554747
-0.1578208187455427,-0.1578208187455427
-0.2115111204902974,-0.2115111204902974
-0.19724963408934693,-0.19724963408934693
-0.12258655822554747,-0.12258655822554747
-0.10161378410650268,-0.10161378410650268
-0.12258655822554747,-0.12258655822554747
-0.11503635954269134,-0.11503635954269134
-0.03366199596079754,-0.03366199596079754
0.03680652507919297,0.03680652507919297
0.05526256630395239,0.05526256630395239
0.06197385402204672,0.06197385402204672
0.1450260395334641,0.1450260395334641
0.23646733469249942,0.23646733469249942
0.23395060179821403,0.23395060179821403
0.14334821760394054,0.14334821760394054
0.1450260395334641,0.1450260395334641
0.25408446495249704,0.25408446495249704
0.32287516406296396,0.32287516406296396
0.2574401088115442,0.2574401088115442
0.23395060179821403,0.23395060179821403
0.3304253627458201,0.3304253627458201
0.4117997263277139,0.4117997263277139
0.35223704782962667,0.35223704782962667
0.32287516406296396,0.32287516406296396
0.423544479834379,0.423544479834379
0.5007242885924639,0.5007242885924639
0.3799211096667658,0.3799211096667658
0.23395060179821403,0.23395060179821403
0.23898406758678478,0.23898406758678478
0.32287516406296396,0.32287516406296396
0.29686892415534843,0.29686892415534843
0.23395060179821403,0.23395060179821403
0.22975604697440508,0.22975604697440508
0.23395060179821403,0.23395060179821403
0.1357980189210844,0.1357980189210844
0.05526256630395239,0.05526256630395239
0.0837855391058533,0.0837855391058533
0.1450260395334641,0.1450260395334641
0.10224158033061273,0.10224158033061273
0.05526256630395239,0.05526256630395239
0.11398633383727781,0.11398633383727781
0.23395060179821403,0.23395060179821403
0.2574401088115442,0.2574401088115442
0.23395060179821403,0.23395060179821403
0.2993856570496338,0.2993856570496338
0.5007242885924639,0.5007242885924639
0.6643119267210132,0.6643119267210132
0.6785734131219637,0.6785734131219637
0.5955212276105463,0.5955212276105463
0.5896488508572137,0.5896488508572137
0.6567617280381571,0.6567617280381571
0.6785734131219637,0.6785734131219637
0.5829375631391194,0.5829375631391194
0.5007242885924639,0.5007242885924639
0.4948519118391313,0.4948519118391313
0.5007242885924639,0.5007242885924639
0.4361281443058059,0.4361281443058059
0.4117997263277139,0.4117997263277139
0.4688456719315157,0.4688456719315157
0.5007242885924639,0.5007242885924639
0.3824378425610512,0.3824378425610512
0.23395060179821403,0.23395060179821403
0.1651599026877471,0.1651599026877471
0.1450260395334641,0.1450260395334641
0.07707425138775897,0.07707425138775897
0.05526256630395239,0.05526256630395239
0.11146960094299244,0.11146960094299244
0.1450260395334641,0.1450260395334641
0.0443567237620491,0.0443567237620491
-0.03366199596079754,-0.03366199596079754
-0.0017833792998494524,-0.0017833792998494524
0.05526256630395239,0.05526256630395239
0.007444641312530257,0.007444641312530257
-0.03366199596079754,-0.03366199596079754
0.009122463242053841,0.009122463242053841
0.05526256630395239,0.05526256630395239
0.02673959350205147,0.02673959350205147
0.05526256630395239,0.05526256630395239
0.1743879233001268,0.1743879233001268
0.23395060179821403,0.23395060179821403
0.1668377246172707,0.1668377246172707
0.23395060179821403,0.23395060179821403
0.5787430083153104,0.5787430083153104
1.0342716621809633,1.0342716621809633
1.4176539730771023,1.4176539730771023
1.9243561957932245,1.9243561957932245
2.7112546807397853,2.7112546807397853
3.525837227523485,3.525837227523485
3.879857654652961,3.879857654652961
3.614761789788235,3.614761789788235
2.8664532092207167,2.8664532092207167
1.8354316335284746,1.8354316335284746
0.6659897486505368,0.6659897486505368
-0.38936024501979727,-0.38936024501979727
-1.1225684282216033,-1.1225684282216033
-1.4564549921967964,-1.4564549921967964
-1.4572939031615582,-1.4572939031615582
-1.1896813054025466,-1.1896813054025466
-0.8440499879206884,-0.8440499879206884
-0.656133931814047,-0.656133931814047
-0.745058494078797,-0.745058494078797
-0.9229076186082968,-0.9229076186082968
-0.9656920778111482,-0.9656920778111482
-0.8339830563435469,-0.8339830563435469
-0.724924630924514,-0.724924630924514
-0.745058494078797,-0.745058494078797
-0.8348219673083087,-0.8348219673083087
-0.8339830563435469,-0.8339830563435469
-0.7693869120568889,-0.7693869120568889
-0.745058494078797,-0.745058494078797
-0.8130102822245021,-0.8130102822245021
-0.8339830563435469,-0.8339830563435469
-0.7836483984578394,-0.7836483984578394
-0.745058494078797,-0.745058494078797
-0.7760981997749833,-0.7760981997749833
-0.745058494078797,-0.745058494078797
-0.6267720480473843,-0.6267720480473843
-0.5672093695492971,-0.5672093695492971
-0.644389178307382,-0.644389178307382
-0.656133931814047,-0.656133931814047
-0.4883517388616887,-0.4883517388616887
-0.30043568275504734,-0.30043568275504734
-0.28030181960076433,-0.28030181960076433
-0.30043568275504734,-0.30043568275504734
-0.21990023013791532,-0.21990023013791532
-0.12258655822554747,-0.12258655822554747
-0.15698190778078094,-0.15698190778078094
-0.2115111204902974,-0.2115111204902974
-0.1712433941817314,-0.1712433941817314
-0.12258655822554747,-0.12258655822554747
-0.19976636698363232,-0.19976636698363232
-0.30043568275504734,-0.30043568275504734
-0.33902558713408976,-0.33902558713408976
-0.38936024501979727,-0.38936024501979727
-0.5202303555226367,-0.5202303555226367
-0.5672093695492971,-0.5672093695492971
-0.4665400537778821,-0.4665400537778821
-0.38936024501979727,-0.38936024501979727
-0.4833182730731179,-0.4833182730731179
-0.5672093695492971,-0.5672093695492971
-0.4942241156150212,-0.4942241156150212
-0.38936024501979727,-0.38936024501979727
-0.4539563893064552,-0.4539563893064552
-0.5672093695492971,-0.5672093695492971
-0.5403642186769197,-0.5403642186769197
-0.38936024501979727,-0.38936024501979727
-0.30714697047314166,-0.30714697047314166
-0.30043568275504734,-0.30043568275504734
-0.25765122355219594,-0.25765122355219594
-0.12258655822554747,-0.12258655822554747
-0.005139023158896619,-0.005139023158896619
0.05526256630395239,0.05526256630395239
0.11063068997823065,0.11063068997823065
0.23395060179821403,0.23395060179821403
0.33461991756962906,0.33461991756962906
0.32287516406296396,0.32287516406296396
0.22891713600964328,0.22891713600964328
0.23395060179821403,0.23395060179821403
0.34468684914677056,0.34468684914677056
0.4117997263277139,0.4117997263277139
0.34720358204105595,0.34720358204105595
0.32287516406296396,0.32287516406296396
0.41683319211628467,0.41683319211628467
0.5007242885924639,0.5007242885924639
0.4487118087772327,0.4487118087772327
0.4117997263277139,0.4117997263277139
0.4722013157905629,0.4722013157905629
0.5007242885924639,0.5007242885924639
0.38495457545533657,0.38495457545533657
0.32287516406296396,0.32287516406296396
0.41851101404580826,0.41851101404580826
0.5007242885924639,0.5007242885924639
0.4025717057153342,0.4025717057153342
0.32287516406296396,0.32287516406296396
0.40676626053914317,0.40676626053914317
0.5007242885924639,0.5007242885924639
0.4117997263277139,0.4117997263277139
0.32287516406296396,0.32287516406296396
0.39669932896200166,0.39669932896200166
0.5007242885924639,0.5007242885924639
0.42857794562294976,0.42857794562294976
0.32287516406296396,0.32287516406296396
0.34468684914677056,0.34468684914677056
0.4117997263277139,0.4117997263277139
0.3614650684420064,0.3614650684420064
0.32287516406296396,0.32287516406296396
0.4042495276448578,0.4042495276448578
0.5007242885924639,0.5007242885924639
0.4571009184248507,0.4571009184248507
0.4117997263277139,0.4117997263277139
0.4612954732486596,0.4612954732486596
0.5007242885924639,0.5007242885924639
0.3698541780896243,0.3698541780896243
0.23395060179821403,0.23395060179821403
0.24150080048107017,0.24150080048107017
0.32287516406296396,0.32287516406296396
0.29519110222582484,0.29519110222582484
0.23395060179821403,0.23395060179821403
0.25492337591725883,0.25492337591725883
0.32287516406296396,0.32287516406296396
0.2993856570496338,0.2993856570496338
0.23395060179821403,0.23395060179821403
0.20542762899631312,0.20542762899631312
0.23395060179821403,0.23395060179821403
0.29686892415534843,0.29686892415534843
0.5007242885924639,0.5007242885924639
0.8824287775590791,0.8824287775590791
1.389969911239963,1.389969911239963
1.9797243194675027,1.9797243194675027
2.724677256175974,2.724677256175974
3.505703364369202,3.505703364369202
3.970460038847235,3.970460038847235
3.799322202035829,3.799322202035829
3.0803755052349735,3.0803755052349735
2.09549403260463,2.09549403260463
1.0342716621809633,1.0342716621809633
-0.0890301196350758,-0.0890301196350758
-1.1007567431377967,-1.1007567431377967
-1.663666000492959,-1.663666000492959
-1.546218465426308,-1.546218465426308
-1.0118321808730468,-1.0118321808730468
-0.5672093695492971,-0.5672093695492971
-0.4858350059674033,-0.4858350059674033
-0.5672093695492971,-0.5672093695492971
-0.5890210546331037,-0.5890210546331037
-0.5672093695492971,-0.5672093695492971
-0.62006076032929,-0.62006076032929
-0.656133931814047,-0.656133931814047
-0.6074770958578631,-0.6074770958578631
-0.5672093695492971,-0.5672093695492971
-0.6578117537435706,-0.6578117537435706
-0.745058494078797,-0.745058494078797
-0.720730076100705,-0.720730076100705
-0.656133931814047,-0.656133931814047
-0.700596212946422,-0.700596212946422
-0.745058494078797,-0.745058494078797
-0.6829790826864244,-0.6829790826864244
-0.5672093695492971,-0.5672093695492971
-0.5453976844654905,-0.5453976844654905
-0.5672093695492971,-0.5672093695492971
-0.5378474857826344,-0.5378474857826344
-0.4782848072845472,-0.4782848072845472
-0.499257581403592,-0.499257581403592
-0.5672093695492971,-0.5672093695492971
-0.5990879862102452,-0.5990879862102452
-0.5672093695492971,-0.5672093695492971
-0.5529478831483466,-0.5529478831483466
-0.5672093695492971,-0.5672093695492971
-0.5848264998092948,-0.5848264998092948
-0.5672093695492971,-0.5672093695492971
-0.5571424379721556,-0.5571424379721556
-0.5672093695492971,-0.5672093695492971
-0.5873432327035801,-0.5873432327035801
-0.5672093695492971,-0.5672093695492971
-0.5479144173597759,-0.5479144173597759
-0.5672093695492971,-0.5672093695492971
-0.6108327397169103,-0.6108327397169103
-0.5672093695492971,-0.5672093695492971
-0.4539563893064552,-0.4539563893064552
-0.38936024501979727,-0.38936024501979727
-0.4430505467645519,-0.4430505467645519
-0.4782848072845472,-0.4782848072845472
-0.41033301913884207,-0.41033301913884207
-0.30043568275504734,-0.30043568275504734
-0.25513449065791055,-0.25513449065791055
-0.2115111204902974,-0.2115111204902974
-0.1410425994503069,-0.1410425994503069
-0.12258655822554747,-0.12258655822554747
-0.21990023013791532,-0.21990023013791532
-0.30043568275504734,-0.30043568275504734
-0.30043568275504734,-0.30043568275504734
-0.30043568275504734,-0.30043568275504734
-0.354125984499802,-0.354125984499802
-0.30043568275504734,-0.30043568275504734
-0.09993596217697909,-0.09993596217697909
0.05526256630395239,0.05526256630395239
0.01415592903062459,0.01415592903062459
-0.03366199596079754,-0.03366199596079754
0.0753964294582354,0.0753964294582354
0.23395060179821403,0.23395060179821403
0.25408446495249704,0.25408446495249704
0.23395060179821403,0.23395060179821403
0.28092961582487436,0.28092961582487436
0.32287516406296396,0.32287516406296396
0.23478951276297583,0.23478951276297583
0.1450260395334641,0.1450260395334641
0.1450260395334641,0.1450260395334641
0.1450260395334641,0.1450260395334641
0.035967614114431175,0.035967614114431175
-0.03366199596079754,-0.03366199596079754
0.01751157288967176,0.01751157288967176
0.05526256630395239,0.05526256630395239
-0.047923482361748,-0.047923482361748
-0.12258655822554747,-0.12258655822554747
-0.047084571396986206,-0.047084571396986206
0.05526256630395239,0.05526256630395239
0.014994839995386384,0.014994839995386384
-0.03366199596079754,-0.03366199596079754
0.06365167595157031,0.06365167595157031
0.23395060179821403,0.23395060179821403
0.27589615003630363,0.27589615003630363
0.23395060179821403,0.23395060179821403
0.24233971144583197,0.24233971144583197
0.32287516406296396,0.32287516406296396
0.32371407502772576,0.32371407502772576
0.23395060179821403,0.23395060179821403
0.16935445751155606,0.16935445751155606
0.23395060179821403,0.23395060179821403
0.2993856570496338,0.2993856570496338
0.23395060179821403,0.23395060179821403
0.07875207331728255,0.07875207331728255
0.05526256630395239,0.05526256630395239
0.17187119040584145,0.17187119040584145
0.23395060179821403,0.23395060179821403
0.1274089092734665,0.1274089092734665
0.05526256630395239,0.05526256630395239
0.1357980189210844,0.1357980189210844
0.23395060179821403,0.23395060179821403
0.18948832066583907,0.18948832066583907
0.1450260395334641,0.1450260395334641
0.19955525224298057,0.19955525224298057
0.23395060179821403,0.23395060179821403
0.12321435444965752,0.12321435444965752
0.05526256630395239,0.05526256630395239
0.1467038614629877,0.1467038614629877
0.23395060179821403,0.23395060179821403
0.14167039567441694,0.14167039567441694
0.05526256630395239,0.05526256630395239
0.13244237506203724,0.13244237506203724
0.23395060179821403,0.23395060179821403
0.15928752593441456,0.15928752593441456
0.05526256630395239,0.05526256630395239
0.08210771717632973,0.08210771717632973
0.1450260395334641,0.1450260395334641
0.06532949788109389,0.06532949788109389
-0.03366199596079754,-0.03366199596079754
-0.012689221841752746,-0.012689221841752746
0.05526256630395239,0.05526256630395239
0.01835048385443355,0.01835048385443355
-0.03366199596079754,-0.03366199596079754
-0.02359506438365604,-0.02359506438365604
-0.03366199596079754,-0.03366199596079754
-0.1519484419922102,-0.1519484419922102
-0.2115111204902974,-0.2115111204902974
-0.12594220208459464,-0.12594220208459464
-0.03366199596079754,-0.03366199596079754
-0.08315774288174325,-0.08315774288174325
-0.12258655822554747,-0.12258655822554747
-0.03869546174936829,-0.03869546174936829
0.05526256630395239,0.05526256630395239
0.011639196136339217,0.011639196136339217
-0.03366199596079754,-0.03366199596079754
0.04267890183252551,0.04267890183252551
0.1450260395334641,0.1450260395334641
0.11230851190775423,0.11230851190775423
0.05526256630395239,0.05526256630395239
0.11314742287251603,0.11314742287251603
0.23395060179821403,0.23395060179821403
0.23143386890392867,0.23143386890392867
0.1450260395334641,0.1450260395334641
0.1265699983087047,0.1265699983087047
0.23395060179821403,0.23395060179821403
0.2993856570496338,0.2993856570496338
0.23395060179821403,0.23395060179821403
0.12405326541441931,0.12405326541441931
0.1450260395334641,0.1450260395334641
0.238145156622023,0.238145156622023
0.23395060179821403,0.23395060179821403
0.09972484743632735,0.09972484743632735
0.05526256630395239,0.05526256630395239
0.16012643689917636,0.16012643689917636
0.23395060179821403,0.23395060179821403
0.1349591079563226,0.1349591079563226
0.05526256630395239,0.05526256630395239
0.13328128602679903,0.13328128602679903
0.23395060179821403,0.23395060179821403
0.1651599026877471,0.1651599026877471
0.05526256630395239,0.05526256630395239
0.0435178127972873,0.0435178127972873
0.05526256630395239,0.05526256630395239
-0.04372892753793904,-0.04372892753793904
-0.12258655822554747,-0.12258655822554747
-0.08064100998745788,-0.08064100998745788
-0.03366199596079754,-0.03366199596079754
-0.12510329111983284,-0.12510329111983284
-0.2115111204902974,-0.2115111204902974
-0.17795468189982572,-0.17795468189982572
-0.12258655822554747,-0.12258655822554747
-0.18298814768839647,-0.18298814768839647
-0.2115111204902974,-0.2115111204902974
-0.09574140735317013,-0.09574140735317013
0.05526256630395239,0.05526256630395239
0.0435178127972873,0.0435178127972873
-0.03366199596079754,-0.03366199596079754
-0.027789619207464998,-0.027789619207464998
0.05526256630395239,0.05526256630395239
0.07204078559918822,0.07204078559918822
0.05526256630395239,0.05526256630395239
0.10895286804870706,0.10895286804870706
0.23395060179821403,0.23395060179821403
0.28680199257820693,0.28680199257820693
0.23395060179821403,0.23395060179821403
0.1441871285687023,0.1441871285687023
0.1450260395334641,0.1450260395334641
0.28176852678963615,0.28176852678963615
0.5896488508572137,0.5896488508572137
1.0493720595466756,1.0493720595466756
1.656743598034213,1.656743598034213
2.3631066303636414,2.3631066303636414
3.0803755052349735,3.0803755052349735
3.594627926633952,3.594627926633952
3.703686352052985,3.703686352052985
3.3169483972977987,3.3169483972977987
2.546828131646474,2.546828131646474
1.5342625971789914,1.5342625971789914
0.4117997263277139,0.4117997263277139
-0.6972405690873749,-0.6972405690873749
-1.546218465426308,-1.546218465426308
-1.905272358344355,-1.905272358344355
-1.724067589955808,-1.724067589955808
-1.2802836895968202,-1.2802836895968202
-0.9229076186082968,-0.9229076186082968
-0.817204837048311,-0.817204837048311
-0.8339830563435469,-0.8339830563435469
-0.8700562278283039,-0.8700562278283039
-0.9229076186082968,-0.9229076186082968
-1.0101543589435231,-1.0101543589435231
-1.0118321808730468,-1.0118321808730468
-0.9145185089606789,-0.9145185089606789
-0.8339830563435469,-0.8339830563435469
-0.8801231594054455,-0.8801231594054455
-0.9229076186082968,-0.9229076186082968
-0.8843177142292544,-0.8843177142292544
-0.8339830563435469,-0.8339830563435469
-0.8868344471235398,-0.8868344471235398
-0.9229076186082968,-0.9229076186082968
-0.8524390975683064,-0.8524390975683064
-0.745058494078797,-0.745058494078797
-0.7341526515368937,-0.7341526515368937
-0.745058494078797,-0.745058494078797
-0.6754288840035683,-0.6754288840035683
-0.5672093695492971,-0.5672093695492971
-0.5412031296416816,-0.5412031296416816
-0.5672093695492971,-0.5672093695492971
-0.5781152120912004,-0.5781152120912004
-0.5672093695492971,-0.5672093695492971
-0.5781152120912004,-0.5781152120912004
-0.5672093695492971,-0.5672093695492971
-0.539525307712158,-0.539525307712158
-0.5672093695492971,-0.5672093695492971
-0.7039518568054692,-0.7039518568054692
-0.8339830563435469,-0.8339830563435469
-0.8633449401102096,-0.8633449401102096
-0.8339830563435469,-0.8339830563435469
-0.8851566251940162,-0.8851566251940162
-1.0118321808730468,-1.0118321808730468
-1.1108236747149383,-1.1108236747149383
-1.1007567431377967,-1.1007567431377967
-1.0697170374416105,-1.0697170374416105
-1.1007567431377967,-1.1007567431377967
-1.1821311067196905,-1.1821311067196905
-1.1896813054025466,-1.1896813054025466
-1.1301186269044594,-1.1301186269044594
-1.1007567431377967,-1.1007567431377967
-1.1611583326006456,-1.1611583326006456
-1.1896813054025466,-1.1896813054025466
-1.14438011330541,-1.14438011330541
-1.1007567431377967,-1.1007567431377967
-1.1292797159396977,-1.1292797159396977
-1.1007567431377967,-1.1007567431377967
-0.96653098877591,-0.96653098877591
-0.8339830563435469,-0.8339830563435469
-0.8029433506473607,-0.8029433506473607
-0.745058494078797,-0.745058494078797
-0.5990879862102452,-0.5990879862102452
-0.4782848072845472,-0.4782848072845472
-0.4657011428131203,-0.4657011428131203
-0.38936024501979727,-0.38936024501979727
-0.18382705865315827,-0.18382705865315827
-0.03366199596079754,-0.03366199596079754
-0.08231883191698146,-0.08231883191698146
-0.12258655822554747,-0.12258655822554747
0.0024111755239595066,0.0024111755239595066
0.1450260395334641,0.1450260395334641
0.11314742287251603,0.11314742287251603
0.05526256630395239,0.05526256630395239
0.12992564216775185,0.12992564216775185
0.23395060179821403,0.23395060179821403
0.1961996083839334,0.1961996083839334
0.1450260395334641,0.1450260395334641
0.21633347153821642,0.21633347153821642
0.32287516406296396,0.32287516406296396
0.29770783512011023,0.29770783512011023
0.23395060179821403,0.23395060179821403
0.23311169083345226,0.23311169083345226
0.23395060179821403,0.23395060179821403
0.12992564216775185,0.12992564216775185
0.05526256630395239,0.05526256630395239
0.11901979962584856,0.11901979962584856
0.23395060179821403,0.23395060179821403
0.22052802636202537,0.22052802636202537
0.1450260395334641,0.1450260395334641
0.1450260395334641,0.1450260395334641
0.23395060179821403,0.23395060179821403
0.24233971144583197,0.24233971144583197
0.1450260395334641,0.1450260395334641
0.06784623077537927,0.06784623077537927
0.1450260395334641,0.1450260395334641
0.25576228688202063,0.25576228688202063
0.23395060179821403,0.23395060179821403
0.09049682682394765,0.09049682682394765
0.05526256630395239,0.05526256630395239
0.1659988136525089,0.1659988136525089
0.23395060179821403,0.23395060179821403
0.13160346409727544,0.13160346409727544
0.05526256630395239,0.05526256630395239
0.1349591079563226,0.1349591079563226
0.23395060179821403,0.23395060179821403
0.1659988136525089,0.1659988136525089
0.05526256630395239,0.05526256630395239
0.04183999086776372,0.04183999086776372
0.05526256630395239,0.05526256630395239
-0.037017639819844704,-0.037017639819844704
-0.12258655822554747,-0.12258655822554747
-0.11671418147221493,-0.11671418147221493
-0.12258655822554747,-0.12258655822554747
-0.24338973715124548,-0.24338973715124548
-0.30043568275504734,-0.30043568275504734
-0.1804714147941111,-0.1804714147941111
-0.03366199596079754,-0.03366199596079754
-0.05547368104460413,-0.05547368104460413
-0.12258655822554747,-0.12258655822554747
-0.09322467445888476,-0.09322467445888476
-0.03366199596079754,-0.03366199596079754
-0.07644645516364892,-0.07644645516364892
-0.12258655822554747,-0.12258655822554747
-0.10413051700078806,-0.10413051700078806
-0.12258655822554747,-0.12258655822554747
-0.2509399358341016,-0.2509399358341016
-0.30043568275504734,-0.30043568275504734
-0.19641072312458516,-0.19641072312458516
-0.12258655822554747,-0.12258655822554747
-0.22493369592648607,-0.22493369592648607
-0.30043568275504734,-0.30043568275504734
-0.21235003145505918,-0.21235003145505918
-0.12258655822554747,-0.12258655822554747
-0.21067220952553561,-0.21067220952553561
-0.30043568275504734,-0.30043568275504734
-0.22828933978553323,-0.22828933978553323
-0.12258655822554747,-0.12258655822554747
-0.1922161683007762,-0.1922161683007762
-0.30043568275504734,-0.30043568275504734
-0.25849013451695774,-0.25849013451695774
-0.12258655822554747,-0.12258655822554747
-0.14691497620363944,-0.14691497620363944
-0.30043568275504734,-0.30043568275504734
-0.3868435121255119,-0.3868435121255119
-0.30043568275504734,-0.30043568275504734
-0.20312201084267947,-0.20312201084267947
-0.2115111204902974,-0.2115111204902974
-0.28701310731885865,-0.28701310731885865
-0.30043568275504734,-0.30043568275504734
-0.24758429197505444,-0.24758429197505444
-0.2115111204902974,-0.2115111204902974
-0.2618457783760049,-0.2618457783760049
-0.30043568275504734,-0.30043568275504734
-0.18466596961792006,-0.18466596961792006
0.1450260395334641,0.1450260395334641
0.568676076738169,0.568676076738169
1.0342716621809633,1.0342716621809633
1.652549043210404,1.652549043210404
2.546828131646474,2.546828131646474
3.473824747708254,3.473824747708254
3.970460038847235,3.970460038847235
3.772477051163452,3.772477051163452
3.0803755052349735,3.0803755052349735
2.1517010672436703,2.1517010672436703
1.0342716621809633,1.0342716621809633
-0.29875786082552375,-0.29875786082552375
-1.546218465426308,-1.546218465426308
-2.260131696438593,-2.260131696438593
-2.2576149635443077,-2.2576149635443077
-1.849065323705315,-1.849065323705315
-1.4564549921967964,-1.4564549921967964
-1.2702167580196786,-1.2702167580196786
-1.1896813054025466,-1.1896813054025466
-1.1569637777768367,-1.1569637777768367
-1.1896813054025466,-1.1896813054025466
-1.2584720045130136,-1.2584720045130136
-1.1896813054025466,-1.1896813054025466
-0.9841481190359076,-0.9841481190359076
-0.8339830563435469,-0.8339830563435469
-0.8742507826521129,-0.8742507826521129
-0.9229076186082968,-0.9229076186082968
-0.8516001866035445,-0.8516001866035445
-0.745058494078797,-0.745058494078797
-0.7517697817968914,-0.7517697817968914
-0.745058494078797,-0.745058494078797
-0.644389178307382,-0.644389178307382
-0.5672093695492971,-0.5672093695492971
-0.6527782879549999,-0.6527782879549999
-0.745058494078797,-0.745058494078797
-0.6838179936511862,-0.6838179936511862
-0.5672093695492971,-0.5672093695492971
-0.6074770958578631,-0.6074770958578631
-0.745058494078797,-0.745058494078797
-0.7802927545987922,-0.7802927545987922
-0.656133931814047,-0.656133931814047
-0.5504311502540613,-0.5504311502540613
-0.5672093695492971,-0.5672093695492971
-0.6485837331311909,-0.6485837331311909
-0.656133931814047,-0.656133931814047
-0.6032825410340542,-0.6032825410340542
-0.5672093695492971,-0.5672093695492971
-0.5848264998092948,-0.5848264998092948
-0.5672093695492971,-0.5672093695492971
-0.5068077800864481,-0.5068077800864481
-0.4782848072845472,-0.4782848072845472
-0.5361696638531108,-0.5361696638531108
-0.5672093695492971,-0.5672093695492971
-0.5227470884169222,-0.5227470884169222
-0.4782848072845472,-0.4782848072845472
-0.5227470884169222,-0.5227470884169222
-0.5672093695492971,-0.5672093695492971
-0.5630148147254882,-0.5630148147254882
-0.5672093695492971,-0.5672093695492971
-0.6167051164702428,-0.6167051164702428
-0.5672093695492971,-0.5672093695492971
-0.40194390949122416,-0.40194390949122416
-0.30043568275504734,-0.30043568275504734
-0.39103806694932086,-0.39103806694932086
-0.4782848072845472,-0.4782848072845472
-0.4136886629978892,-0.4136886629978892
-0.30043568275504734,-0.30043568275504734
-0.29959677179028554,-0.29959677179028554
-0.30043568275504734,-0.30043568275504734
-0.20983329856077382,-0.20983329856077382
-0.12258655822554747,-0.12258655822554747
-0.14523715427411585,-0.14523715427411585
-0.12258655822554747,-0.12258655822554747
0.025061771572527886,0.025061771572527886
0.1450260395334641,0.1450260395334641
0.0955302926125184,0.0955302926125184
0.05526256630395239,0.05526256630395239
0.1475427724277495,0.1475427724277495
0.23395060179821403,0.23395060179821403
0.1467038614629877,0.1467038614629877
0.05526256630395239,0.05526256630395239
0.12069762155537214,0.12069762155537214
0.23395060179821403,0.23395060179821403
0.177743567159174,0.177743567159174
0.05526256630395239,0.05526256630395239
0.07036296366966464,0.07036296366966464
0.23395060179821403,0.23395060179821403
0.3094525886267753,0.3094525886267753
0.23395060179821403,0.23395060179821403
0.12405326541441931,0.12405326541441931
0.1450260395334641,0.1450260395334641
0.21549456057345462,0.21549456057345462
0.23395060179821403,0.23395060179821403
0.1886494097010773,0.1886494097010773
0.23395060179821403,0.23395060179821403
0.3807600206315276,0.3807600206315276
0.5007242885924639,0.5007242885924639
0.4747180486848483,0.4747180486848483
0.4117997263277139,0.4117997263277139
0.423544479834379,0.423544479834379
0.5007242885924639,0.5007242885924639
0.5586091451610274,0.5586091451610274
0.6785734131219637,0.6785734131219637
0.9537362095638314,0.9537362095638314
1.389969911239963,1.389969911239963
1.9117725313217977,1.9117725313217977
2.546828131646474,2.546828131646474
3.2775195819539946,3.2775195819539946
3.970460038847235,3.970460038847235
4.393271165087178,4.393271165087178
4.415082850170984,4.415082850170984
3.9226421138558125,3.9226421138558125
2.9025263807054738,2.9025263807054738
1.5359404191085149,1.5359404191085149
0.23395060179821403,0.23395060179821403
-0.7442195831140351,-0.7442195831140351
-1.3675304299320465,-1.3675304299320465
-1.6686994662815298,-1.6686994662815298
-1.546218465426308,-1.546218465426308
-1.0932065444549406,-1.0932065444549406
-0.656133931814047,-0.656133931814047
-0.5252638213112075,-0.5252638213112075
-0.5672093695492971,-0.5672093695492971
-0.559659170866441,-0.559659170866441
-0.4782848072845472,-0.4782848072845472
-0.4422116357997901,-0.4422116357997901
-0.38936024501979727,-0.38936024501979727
-0.2610068674112431,-0.2610068674112431
-0.12258655822554747,-0.12258655822554747
-0.10329160603602626,-0.10329160603602626
-0.12258655822554747,-0.12258655822554747
-0.11755309243697672,-0.11755309243697672
-0.12258655822554747,-0.12258655822554747
-0.2215780520674389,-0.2215780520674389
-0.30043568275504734,-0.30043568275504734
-0.27778508670647895,-0.27778508670647895
-0.2115111204902974,-0.2115111204902974
-0.23751736039791294,-0.23751736039791294
-0.30043568275504734,-0.30043568275504734
-0.27107379898838463,-0.27107379898838463
-0.12258655822554747,-0.12258655822554747
-0.012689221841752746,-0.012689221841752746
-0.03366199596079754,-0.03366199596079754
-0.12258655822554747,-0.12258655822554747
-0.12258655822554747,-0.12258655822554747
-0.053795859115080544,-0.053795859115080544
-0.03366199596079754,-0.03366199596079754
-0.10413051700078806,-0.10413051700078806
-0.12258655822554747,-0.12258655822554747
-0.06050714683317488,-0.06050714683317488
-0.03366199596079754,-0.03366199596079754
-0.10916398278935881,-0.10916398278935881
-0.12258655822554747,-0.12258655822554747
-0.017722687630323496,-0.017722687630323496
0.05526256630395239,0.05526256630395239
-0.014367043771276329,-0.014367043771276329
-0.03366199596079754,-0.03366199596079754
0.1055972241896599,0.1055972241896599
0.23395060179821403,0.23395060179821403
0.16012643689917636,0.16012643689917636
0.05526256630395239,0.05526256630395239
0.1047583132248981,0.1047583132248981
0.23395060179821403,0.23395060179821403
0.25156773205821165,0.25156773205821165
0.23395060179821403,0.23395060179821403
0.2775739719658272,0.2775739719658272
0.32287516406296396,0.32287516406296396
0.26331248556487674,0.26331248556487674
0.23395060179821403,0.23395060179821403
0.32035843116867857,0.32035843116867857
0.4117997263277139,0.4117997263277139
0.36733744519533895,0.36733744519533895
0.32287516406296396,0.32287516406296396
0.3925047741381927,0.3925047741381927
0.5007242885924639,0.5007242885924639
0.5057577543810345,0.5057577543810345
0.5007242885924639,0.5007242885924639
0.5535756793724567,0.5535756793724567
0.5896488508572137,0.5896488508572137
0.4956908228038931,0.4956908228038931
0.4117997263277139,0.4117997263277139
0.4352892333410441,0.4352892333410441
0.5007242885924639,0.5007242885924639
0.4352892333410441,0.4352892333410441
0.32287516406296396,0.32287516406296396
0.30525803380296634,0.30525803380296634
0.4117997263277139,0.4117997263277139
0.4931740899096077,0.4931740899096077
0.5007242885924639,0.5007242885924639
0.4805904254381808,0.4805904254381808
0.5007242885924639,0.5007242885924639
0.5116301311343672,0.5116301311343672
0.5007242885924639,0.5007242885924639
0.5141468640286525,0.5141468640286525
0.6785734131219637,0.6785734131219637
1.0132988880619187,1.0132988880619187
1.4788944735047131,1.4788944735047131
2.030897888317972,2.030897888317972
2.724677256175974,2.724677256175974
3.5224815836644376,3.5224815836644376
4.2372337256414845,4.2372337256414845
4.560214447074774,4.560214447074774
4.326158287906234,4.326158287906234
3.5157702959463437,3.5157702959463437
2.280054444852224,2.280054444852224
0.8606170924752725,0.8606170924752725
-0.38936024501979727,-0.38936024501979727
-1.2215599220634947,-1.2215599220634947
-1.546218465426308,-1.546218465426308
-1.4572939031615582,-1.4572939031615582
-1.1007567431377967,-1.1007567431377967
-0.7375082953959409,-0.7375082953959409
-0.5672093695492971,-0.5672093695492971
-0.5890210546331037,-0.5890210546331037
-0.5672093695492971,-0.5672093695492971
-0.4237555945750307,-0.4237555945750307
-0.30043568275504734,-0.30043568275504734
-0.33315321038075724,-0.33315321038075724
-0.38936024501979727,-0.38936024501979727
-0.38264895730170295,-0.38264895730170295
-0.38936024501979727,-0.38936024501979727
-0.5051299581569245,-0.5051299581569245
-0.5672093695492971,-0.5672093695492971
-0.4925462936854976,-0.4925462936854976
-0.38936024501979727,-0.38936024501979727
-0.40110499852646236,-0.40110499852646236
-0.38936024501979727,-0.38936024501979727
-0.25513449065791055,-0.25513449065791055
-0.12258655822554747,-0.12258655822554747
-0.1712433941817314,-0.1712433941817314
-0.30043568275504734,-0.30043568275504734
-0.34154232002837515,-0.34154232002837515
-0.30043568275504734,-0.30043568275504734
-0.3239251897683775,-0.3239251897683775
-0.38936024501979727,-0.38936024501979727
-0.38852133405503547,-0.38852133405503547
-0.30043568275504734,-0.30043568275504734
-0.28114073056552613,-0.28114073056552613
-0.38936024501979727,-0.38936024501979727
-0.5126801568397806,-0.5126801568397806
-0.4782848072845472,-0.4782848072845472
-0.34993142967599306,-0.34993142967599306
-0.30043568275504734,-0.30043568275504734
-0.3759376695836086,-0.3759376695836086
-0.38936024501979727,-0.38936024501979727
-0.28533528538933506,-0.28533528538933506
-0.2115111204902974,-0.2115111204902974
-0.27610726477695535,-0.27610726477695535
-0.30043568275504734,-0.30043568275504734
-0.17292121611125497,-0.17292121611125497
-0.03366199596079754,-0.03366199596079754
-0.06134605779793667,-0.06134605779793667
-0.12258655822554747,-0.12258655822554747
-0.06302387972746025,-0.06302387972746025
0.05526256630395239,0.05526256630395239
0.06952405270490285,0.06952405270490285
0.05526256630395239,0.05526256630395239
0.12237544348489574,0.12237544348489574
0.23395060179821403,0.23395060179821403
0.27505723907154184,0.27505723907154184
0.32287516406296396,0.32287516406296396
0.4243833907991408,0.4243833907991408
0.5007242885924639,0.5007242885924639
0.4554230964953271,0.4554230964953271
0.4117997263277139,0.4117997263277139
0.4495507197419945,0.4495507197419945
0.5007242885924639,0.5007242885924639
0.479751514473419,0.479751514473419
0.5007242885924639,0.5007242885924639
0.5837764741038812,0.5837764741038812
0.5896488508572137,0.5896488508572137
0.4336114114115205,0.4336114114115205
0.32287516406296396,0.32287516406296396
0.36314289037152997,0.36314289037152997
0.4117997263277139,0.4117997263277139
0.31280823248582246,0.31280823248582246
0.23395060179821403,0.23395060179821403
0.30525803380296634,0.30525803380296634
0.4117997263277139,0.4117997263277139
0.37404873291343327,0.37404873291343327
0.32287516406296396,0.32287516406296396
0.3899880412439073,0.3899880412439073
0.5007242885924639,0.5007242885924639
0.4747180486848483,0.4747180486848483
0.4117997263277139,0.4117997263277139
0.4327725004467587,0.4327725004467587
0.5007242885924639,0.5007242885924639
0.443678342988662,0.443678342988662
0.32287516406296396,0.32287516406296396
0.29435219126106305,0.29435219126106305
0.4117997263277139,0.4117997263277139
0.5133079530638907,0.5133079530638907
0.5007242885924639,0.5007242885924639
0.41683319211628467,0.41683319211628467
0.4117997263277139,0.4117997263277139
0.5158246859581761,0.5158246859581761
0.6785734131219637,0.6785734131219637
0.8312552087086098,0.8312552087086098
1.0342716621809633,1.0342716621809633
1.354735650719968,1.354735650719968
1.8354316335284746,1.8354316335284746
2.433575151403632,2.433575151403632
3.0803755052349735,3.0803755052349735
3.5535212893606243,3.5535212893606243
3.614761789788235,3.614761789788235
3.1844004648654356,3.1844004648654356
2.457903569381724,2.457903569381724
1.5845972550646987,1.5845972550646987
0.5896488508572137,0.5896488508572137
-0.4673789647426439,-0.4673789647426439
-1.2786058676672964,-1.2786058676672964
-1.6208815412901076,-1.6208815412901076
-1.546218465426308,-1.546218465426308
-1.276928045737773,-1.276928045737773
-0.9229076186082968,-0.9229076186082968
-0.6301276919064315,-0.6301276919064315
-0.5672093695492971,-0.5672093695492971
-0.7358304734664173,-0.7358304734664173
-0.8339830563435469,-0.8339830563435469
-0.7182133432064196,-0.7182133432064196
-0.5672093695492971,-0.5672093695492971
-0.5932156094569127,-0.5932156094569127
-0.656133931814047,-0.656133931814047
-0.6175440274350046,-0.6175440274350046
-0.5672093695492971,-0.5672093695492971
-0.6611673976026178,-0.6611673976026178
-0.745058494078797,-0.745058494078797
-0.6854958155807097,-0.6854958155807097
-0.5672093695492971,-0.5672093695492971
-0.5604980818312028,-0.5604980818312028
-0.5672093695492971,-0.5672093695492971
-0.4824793621083561,-0.4824793621083561
-0.38936024501979727,-0.38936024501979727
-0.42123886168074537,-0.42123886168074537
-0.4782848072845472,-0.4782848072845472
-0.4472451015883609,-0.4472451015883609
-0.38936024501979727,-0.38936024501979727
-0.4296279713283633,-0.4296279713283633
-0.4782848072845472,-0.4782848072845472
-0.42123886168074537,-0.42123886168074537
-0.30043568275504734,-0.30043568275504734
-0.29036875117790584,-0.29036875117790584
-0.38936024501979727,-0.38936024501979727
-0.4564731222007406,-0.4564731222007406
-0.38936024501979727,-0.38936024501979727
-0.29791894986076195,-0.29791894986076195
-0.30043568275504734,-0.30043568275504734
-0.37929331344265577,-0.37929331344265577
-0.38936024501979727,-0.38936024501979727
-0.35077034064075485,-0.35077034064075485
-0.38936024501979727,-0.38936024501979727
-0.5286194651702547,-0.5286194651702547
-0.5672093695492971,-0.5672093695492971
-0.4598287660597878,-0.4598287660597878
-0.38936024501979727,-0.38936024501979727
-0.4891906498264505,-0.4891906498264505
-0.5672093695492971,-0.5672093695492971
-0.4891906498264505,-0.4891906498264505
-0.38936024501979727,-0.38936024501979727
-0.434661437116934,-0.434661437116934
-0.4782848072845472,-0.4782848072845472
-0.3960715327378916,-0.3960715327378916
-0.30043568275504734,-0.30043568275504734
-0.32560301169790107,-0.32560301169790107
-0.30043568275504734,-0.30043568275504734
-0.11839200340173851,-0.11839200340173851
0.05526256630395239,0.05526256630395239
0.053584744374428804,0.053584744374428804
0.05526256630395239,0.05526256630395239
0.19536069741917161,0.19536069741917161
0.32287516406296396,0.32287516406296396
0.27086268424773285,0.27086268424773285
0.23395060179821403,0.23395060179821403
0.36314289037152997,0.36314289037152997
0.5007242885924639,0.5007242885924639
0.4352892333410441,0.4352892333410441
0.32287516406296396,0.32287516406296396
0.34300902721724696,0.34300902721724696
0.4117997263277139,0.4117997263277139
0.33881447239343804,0.33881447239343804
0.23395060179821403,0.23395060179821403
0.24485644434011733,0.24485644434011733
0.32287516406296396,0.32287516406296396
0.29854674608487203,0.29854674608487203
0.23395060179821403,0.23395060179821403
0.24737317723440272,0.24737317723440272
0.32287516406296396,0.32287516406296396
0.30777476669725173,0.30777476669725173
0.23395060179821403,0.23395060179821403
0.24485644434011733,0.24485644434011733
0.4117997263277139,0.4117997263277139
0.5451865697248388,0.5451865697248388
0.5007242885924639,0.5007242885924639
0.34133120528772337,0.34133120528772337
0.32287516406296396,0.32287516406296396
0.4411616100943766,0.4411616100943766
0.5007242885924639,0.5007242885924639
0.3891491302791455,0.3891491302791455
0.32287516406296396,0.32287516406296396
0.4126386372924757,0.4126386372924757
0.5007242885924639,0.5007242885924639
0.41599428115152287,0.41599428115152287
0.32287516406296396,0.32287516406296396
0.38495457545533657,0.38495457545533657
0.5007242885924639,0.5007242885924639
0.4755569596496101,0.4755569596496101
0.4117997263277139,0.4117997263277139
0.4763958706143719,0.4763958706143719
0.6785734131219637,0.6785734131219637
0.9453470999162135,0.9453470999162135
1.389969911239963,1.389969911239963
2.051031751472255,2.051031751472255
2.724677256175974,2.724677256175974
3.114770854790207,3.114770854790207
3.1693000674997234,3.1693000674997234
2.9025263807054738,2.9025263807054738
2.280054444852224,2.280054444852224
1.305239903799022,1.305239903799022
0.23395060179821403,0.23395060179821403
-0.6913681923340423,-0.6913681923340423
-1.3675304299320465,-1.3675304299320465
-1.7593018504758033,-1.7593018504758033
-1.724067589955808,-1.724067589955808
-1.3079677514339592,-1.3079677514339592
-0.8339830563435469,-0.8339830563435469
-0.6544561098845235,-0.6544561098845235
-0.745058494078797,-0.745058494078797
-0.8851566251940162,-0.8851566251940162
-0.9229076186082968,-0.9229076186082968
-0.8985792006302049,-0.8985792006302049
-0.8339830563435469,-0.8339830563435469
-0.7735814668806978,-0.7735814668806978
-0.745058494078797,-0.745058494078797
-0.7685480010921272,-0.7685480010921272
-0.745058494078797,-0.745058494078797
-0.660328486637856,-0.660328486637856
-0.5672093695492971,-0.5672093695492971
-0.5579813489369174,-0.5579813489369174
-0.5672093695492971,-0.5672093695492971
-0.5370085748178726,-0.5370085748178726
-0.4782848072845472,-0.4782848072845472
-0.4925462936854976,-0.4925462936854976
-0.5672093695492971,-0.5672093695492971
-0.5906988765626273,-0.5906988765626273
-0.4782848072845472,-0.4782848072845472
-0.35915945028837276,-0.35915945028837276
-0.38936024501979727,-0.38936024501979727
-0.5353307528883491,-0.5353307528883491
-0.5672093695492971,-0.5672093695492971
-0.4539563893064552,-0.4539563893064552
-0.38936024501979727,-0.38936024501979727
-0.49170738272073583,-0.49170738272073583
-0.5672093695492971,-0.5672093695492971
-0.4866739169321651,-0.4866739169321651
-0.38936024501979727,-0.38936024501979727
-0.4564731222007406,-0.4564731222007406
-0.5672093695492971,-0.5672093695492971
-0.5814708559502476,-0.5814708559502476
-0.5672093695492971,-0.5672093695492971
-0.660328486637856,-0.660328486637856
-0.745058494078797,-0.745058494078797
-0.716535521276896,-0.716535521276896
-0.656133931814047,-0.656133931814047
-0.7014351239111838,-0.7014351239111838
-0.745058494078797,-0.745058494078797
-0.7014351239111838,-0.7014351239111838
-0.656133931814047,-0.656133931814047
-0.7173744322416579,-0.7173744322416579
-0.745058494078797,-0.745058494078797
-0.6334833357654787,-0.6334833357654787
-0.4782848072845472,-0.4782848072845472
-0.4287890603636015,-0.4287890603636015
-0.38936024501979727,-0.38936024501979727
-0.26604033319981385,-0.26604033319981385
-0.12258655822554747,-0.12258655822554747
-0.07560754419888713,-0.07560754419888713
-0.03366199596079754,-0.03366199596079754
0.09049682682394765,0.09049682682394765
0.23395060179821403,0.23395060179821403
0.26079575267059135,0.26079575267059135
0.23395060179821403,0.23395060179821403
0.25408446495249704,0.25408446495249704
0.32287516406296396,0.32287516406296396
0.31364714345058425,0.31364714345058425
0.23395060179821403,0.23395060179821403
0.18193812198298295,0.18193812198298295
0.23395060179821403,0.23395060179821403
0.2800907048601126,0.2800907048601126
0.23395060179821403,0.23395060179821403
0.1366369298858462,0.1366369298858462
0.1450260395334641,0.1450260395334641
0.22723931408011971,0.22723931408011971
0.23395060179821403,0.23395060179821403
0.11063068997823065,0.11063068997823065
0.05526256630395239,0.05526256630395239
0.1458649504982259,0.1458649504982259
0.23395060179821403,0.23395060179821403
0.1542540601458438,0.1542540601458438
0.05526256630395239,0.05526256630395239
0.09720811454204198,0.09720811454204198
0.23395060179821403,0.23395060179821403
0.2691848623182093,0.2691848623182093
0.23395060179821403,0.23395060179821403
0.21465564960869282,0.21465564960869282
0.23395060179821403,0.23395060179821403
0.21968911539726357,0.21968911539726357
0.23395060179821403,0.23395060179821403
0.29267436933153945,0.29267436933153945
0.32287516406296396,0.32287516406296396
0.26415139652963854,0.26415139652963854
0.23395060179821403,0.23395060179821403
0.2775739719658272,0.2775739719658272
0.32287516406296396,0.32287516406296396
0.3404922943229616,0.3404922943229616
0.5007242885924639,0.5007242885924639
0.8153159003781357,0.8153159003781357
1.1231962244457134,1.1231962244457134
1.4042313976409135,1.4042313976409135
1.9243561957932245,1.9243561957932245
2.6642756667131247,2.6642756667131247
3.1693000674997234,3.1693000674997234
3.0812144161997352,3.0812144161997352
2.635752693911224,2.635752693911224
2.1298893821598637,2.1298893821598637
1.4788944735047131,1.4788944735047131
0.4956908228038931,0.4956908228038931
-0.5672093695492971,-0.5672093695492971
-1.3348129023063366,-1.3348129023063366
-1.724067589955808,-1.724067589955808
-1.8700380978243598,-1.8700380978243598
-1.724067589955808,-1.724067589955808
-1.2660222031958697,-1.2660222031958697
-0.745058494078797,-0.745058494078797
-0.5370085748178726,-0.5370085748178726
-0.656133931814047,-0.656133931814047
-0.8339830563435469,-0.8339830563435469
-0.8339830563435469,-0.8339830563435469
-0.7056296787349927,-0.7056296787349927
-0.5672093695492971,-0.5672093695492971
-0.5000964923683537,-0.5000964923683537
-0.4782848072845472,-0.4782848072845472
-0.5344918419235872,-0.5344918419235872
-0.656133931814047,-0.656133931814047
-0.7760981997749833,-0.7760981997749833
-0.745058494078797,-0.745058494078797
-0.6175440274350046,-0.6175440274350046
-0.5672093695492971,-0.5672093695492971
-0.6737510620740447,-0.6737510620740447
-0.745058494078797,-0.745058494078797
-0.6695565072502357,-0.6695565072502357
-0.5672093695492971,-0.5672093695492971
-0.5948934313864362,-0.5948934313864362
-0.656133931814047,-0.656133931814047
-0.6318055138359551,-0.6318055138359551
-0.5672093695492971,-0.5672093695492971
-0.5747595682321532,-0.5747595682321532
-0.5672093695492971,-0.5672093695492971
-0.4774458963197854,-0.4774458963197854
-0.38936024501979727,-0.38936024501979727
-0.4229166836102689,-0.4229166836102689
-0.4782848072845472,-0.4782848072845472
-0.4539563893064552,-0.4539563893064552
-0.38936024501979727,-0.38936024501979727
-0.39019915598455907,-0.39019915598455907
-0.38936024501979727,-0.38936024501979727
-0.33902558713408976,-0.33902558713408976
-0.30043568275504734,-0.30043568275504734
-0.35244816257027844,-0.35244816257027844
-0.38936024501979727,-0.38936024501979727
-0.34741469678170767,-0.34741469678170767
-0.30043568275504734,-0.30043568275504734
-0.34657578581694587,-0.34657578581694587
-0.38936024501979727,-0.38936024501979727
-0.3558038064293256,-0.3558038064293256
-0.30043568275504734,-0.30043568275504734
-0.31218043626171244,-0.31218043626171244
-0.30043568275504734,-0.30043568275504734
-0.21235003145505918,-0.21235003145505918
-0.12258655822554747,-0.12258655822554747
-0.12594220208459464,-0.12594220208459464
-0.12258655822554747,-0.12258655822554747
-0.040373283678891876,-0.040373283678891876
0.05526256630395239,0.05526256630395239
0.058618210162999555,0.058618210162999555
0.05526256630395239,0.05526256630395239
0.1274089092734665,0.1274089092734665
0.23395060179821403,0.23395060179821403
0.25408446495249704,0.25408446495249704
0.23395060179821403,0.23395060179821403
0.25156773205821165,0.25156773205821165
0.32287516406296396,0.32287516406296396
0.34888140397057954,0.34888140397057954
0.32287516406296396,0.32287516406296396
0.27254050617725645,0.27254050617725645
0.23395060179821403,0.23395060179821403
0.1559318820753674,0.1559318820753674
0.05526256630395239,0.05526256630395239
-0.004300112194134828,-0.004300112194134828
0.05526256630395239,0.05526256630395239
0.14334821760394054,0.14334821760394054
0.1450260395334641,0.1450260395334641
0.05610147726871418,0.05610147726871418
0.05526256630395239,0.05526256630395239
0.157609704004891,0.157609704004891
0.23395060179821403,0.23395060179821403
0.177743567159174,0.177743567159174
0.1450260395334641,0.1450260395334641
0.20039416320774237,0.20039416320774237
0.23395060179821403,0.23395060179821403
0.13160346409727544,0.13160346409727544
0.05526256630395239,0.05526256630395239
0.1274089092734665,0.1274089092734665
0.23395060179821403,0.23395060179821403
0.2062665399610749,0.2062665399610749
0.1450260395334641,0.1450260395334641
0.18948832066583907,0.18948832066583907
0.32287516406296396,0.32287516406296396
0.4503896307067563,0.4503896307067563
0.6785734131219637,0.6785734131219637
1.1181627586571425,1.1181627586571425
1.7465070712637247,1.7465070712637247
2.4436420829807735,2.4436420829807735
3.1693000674997234,3.1693000674997234
3.7540210099386924,3.7540210099386924
3.8815354765824845,3.8815354765824845
3.3295320617692257,3.3295320617692257
2.280054444852224,2.280054444852224
1.0594389911238171,1.0594389911238171
-0.12258655822554747,-0.12258655822554747
-1.2215599220634947,-1.2215599220634947
-2.0797658390148075,-2.0797658390148075
-2.485798745959515,-2.485798745959515
-2.3465395258090576,-2.3465395258090576
-1.8700380978243598,-1.8700380978243598
-1.3675304299320465,-1.3675304299320465
-1.0797839690187518,-1.0797839690187518
-1.0118321808730468,-1.0118321808730468
-1.0655224826178014,-1.0655224826178014
-1.1007567431377967,-1.1007567431377967
-1.0562944620054218,-1.0562944620054218
-0.9229076186082968,-0.9229076186082968
-0.8205604809073582,-0.8205604809073582
-0.8339830563435469,-0.8339830563435469
-0.930457817291153,-0.930457817291153
-0.9229076186082968,-0.9229076186082968
-0.8104935493302168,-0.8104935493302168
-0.745058494078797,-0.745058494078797
-0.8381776111673559,-0.8381776111673559
-0.9229076186082968,-0.9229076186082968
-0.8935457348416341,-0.8935457348416341
-0.8339830563435469,-0.8339830563435469
-0.8750896936168747,-0.8750896936168747
-0.9229076186082968,-0.9229076186082968
-0.8851566251940162,-0.8851566251940162
-0.8339830563435469,-0.8339830563435469
-0.8784453374759219,-0.8784453374759219
-0.9229076186082968,-0.9229076186082968
-0.8851566251940162,-0.8851566251940162
-0.8339830563435469,-0.8339830563435469
-0.87760642651116,-0.87760642651116
-0.9229076186082968,-0.9229076186082968
-0.8868344471235398,-0.8868344471235398
-0.8339830563435469,-0.8339830563435469
-0.8750896936168747,-0.8750896936168747
-0.9229076186082968,-0.9229076186082968
-0.8943846458063959,-0.8943846458063959
-0.8339830563435469,-0.8339830563435469
-0.8364997892378323,-0.8364997892378323
-0.8339830563435469,-0.8339830563435469
-0.7828094874930777,-0.7828094874930777
-0.745058494078797,-0.745058494078797
-0.7953931519645044,-0.7953931519645044
-0.8339830563435469,-0.8339830563435469
-0.7979098848587899,-0.7979098848587899
-0.745058494078797,-0.745058494078797
-0.7576421585502239,-0.7576421585502239
-0.745058494078797,-0.745058494078797
-0.6569728427788089,-0.6569728427788089
-0.5672093695492971,-0.5672093695492971
-0.571403924373106,-0.571403924373106
-0.5672093695492971,-0.5672093695492971
-0.458989855095026,-0.458989855095026
-0.30043568275504734,-0.30043568275504734
-0.2517788467988634,-0.2517788467988634
-0.30043568275504734,-0.30043568275504734
-0.31469716915599777,-0.31469716915599777
-0.2115111204902974,-0.2115111204902974
-0.11168071568364418,-0.11168071568364418
-0.12258655822554747,-0.12258655822554747
-0.20815547663125022,-0.20815547663125022
-0.2115111204902974,-0.2115111204902974
-0.1410425994503069,-0.1410425994503069
-0.12258655822554747,-0.12258655822554747
-0.2014441889131559,-0.2014441889131559
-0.2115111204902974,-0.2115111204902974
-0.10496942796554984,-0.10496942796554984
-0.03366199596079754,-0.03366199596079754
-0.12258655822554747,-0.12258655822554747
-0.2115111204902974,-0.2115111204902974
-0.1821492367236347,-0.1821492367236347
-0.12258655822554747,-0.12258655822554747
-0.17376012707601676,-0.17376012707601676
-0.2115111204902974,-0.2115111204902974
-0.16453210646363706,-0.16453210646363706
-0.12258655822554747,-0.12258655822554747
-0.19473290119506156,-0.19473290119506156
-0.2115111204902974,-0.2115111204902974
-0.0789631880579343,-0.0789631880579343
0.05526256630395239,0.05526256630395239
0.025061771572527886,0.025061771572527886
-0.03366199596079754,-0.03366199596079754
0.035128703149669385,0.035128703149669385
0.1450260395334641,0.1450260395334641
0.11650306673156319,0.11650306673156319
0.05526256630395239,0.05526256630395239
0.1668377246172707,0.1668377246172707
0.5007242885924639,0.5007242885924639
0.9336023464095484,0.9336023464095484
1.4788944735047131,1.4788944735047131
2.2272030540722314,2.2272030540722314
3.1693000674997234,3.1693000674997234
4.057706779182461,4.057706779182461
4.592931974700484,4.592931974700484
4.5442751387443,4.5442751387443
3.8815354765824845,3.8815354765824845
2.7213216123169266,2.7213216123169266
1.3010453489752132,1.3010453489752132
-0.1704044832169696,-0.1704044832169696
-1.4564549921967964,-1.4564549921967964
-2.3096274433595387,-2.3096274433595387
-2.5243886503385573,-2.5243886503385573
-2.210635949517647,-2.210635949517647
-1.724067589955808,-1.724067589955808
-1.4270931084301337,-1.4270931084301337
-1.3675304299320465,-1.3675304299320465
-1.4002479575577564,-1.4002479575577564
-1.3675304299320465,-1.3675304299320465
-1.2836393334558673,-1.2836393334558673
-1.1896813054025466,-1.1896813054025466
-1.1334742707635066,-1.1334742707635066
-1.1007567431377967,-1.1007567431377967
-1.1301186269044594,-1.1301186269044594
-1.1896813054025466,-1.1896813054025466
-1.2140097233806386,-1.2140097233806386
-1.1007567431377967,-1.1007567431377967
-0.9564640571987685,-0.9564640571987685
-0.9229076186082968,-0.9229076186082968
-1.0135100028025703,-1.0135100028025703
-1.0118321808730468,-1.0118321808730468
-0.8641838510749714,-0.8641838510749714
-0.745058494078797,-0.745058494078797
-0.7886818642464102,-0.7886818642464102
-0.8339830563435469,-0.8339830563435469
-0.7526086927616531,-0.7526086927616531
-0.656133931814047,-0.656133931814047
-0.6938849252283277,-0.6938849252283277
-0.745058494078797,-0.745058494078797
-0.7014351239111838,-0.7014351239111838
-0.656133931814047,-0.656133931814047
-0.7182133432064196,-0.7182133432064196
-0.745058494078797,-0.745058494078797
-0.6494226440959527,-0.6494226440959527
-0.5672093695492971,-0.5672093695492971
-0.624255315153099,-0.624255315153099
-0.656133931814047,-0.656133931814047
-0.5806319449854858,-0.5806319449854858
-0.5672093695492971,-0.5672093695492971
-0.7341526515368937,-0.7341526515368937
-0.8339830563435469,-0.8339830563435469
-0.7106631445235635,-0.7106631445235635
-0.5672093695492971,-0.5672093695492971
-0.6376778905892876,-0.6376778905892876
-0.745058494078797,-0.745058494078797
-0.6888514594397569,-0.6888514594397569
-0.5672093695492971,-0.5672093695492971
-0.5672093695492971,-0.5672093695492971
-0.5672093695492971,-0.5672093695492971
-0.4615065879893114,-0.4615065879893114
-0.38936024501979727,-0.38936024501979727
-0.4925462936854976,-0.4925462936854976
-0.5672093695492971,-0.5672093695492971
-0.454795300271217,-0.454795300271217
-0.30043568275504734,-0.30043568275504734
-0.29875786082552375,-0.29875786082552375
-0.30043568275504734,-0.30043568275504734
-0.14523715427411585,-0.14523715427411585
0.05526256630395239,0.05526256630395239
0.09049682682394765,0.09049682682394765
0.05526256630395239,0.05526256630395239
0.11482524480203961,0.11482524480203961
0.23395060179821403,0.23395060179821403
0.23059495793916687,0.23059495793916687
0.1450260395334641,0.1450260395334641
0.1265699983087047,0.1265699983087047
0.23395060179821403,0.23395060179821403
0.29435219126106305,0.29435219126106305
0.23395060179821403,0.23395060179821403
0.1265699983087047,0.1265699983087047
0.1450260395334641,0.1450260395334641
0.22556149215059612,0.22556149215059612
0.23395060179821403,0.23395060179821403
0.1676766355820325,0.1676766355820325
0.23395060179821403,0.23395060179821403
0.4252223017639026,0.4252223017639026
0.5007242885924639,0.5007242885924639
0.37488764387819506,0.37488764387819506
0.32287516406296396,0.32287516406296396
0.4445172539534238,0.4445172539534238
0.5007242885924639,0.5007242885924639
0.3916658631734309,0.3916658631734309
0.5007242885924639,0.5007242885924639
1.0225269086742983,1.0225269086742983
1.656743598034213,1.656743598034213
2.1785462181160473,2.1785462181160473
2.9025263807054738,2.9025263807054738
3.92599775771486,3.92599775771486
4.681856536965234,4.681856536965234
4.620616036537624,4.620616036537624
3.970460038847235,3.970460038847235
3.1013482793540184,3.1013482793540184
1.9243561957932245,1.9243561957932245
0.33797556142867624,0.33797556142867624
-1.1007567431377967,-1.1007567431377967
-1.7945361109957985,-1.7945361109957985
-1.8129921522205579,-1.8129921522205579
-1.6250760961139166,-1.6250760961139166
-1.3675304299320465,-1.3675304299320465
-1.0395162427101858,-1.0395162427101858
-0.8339830563435469,-0.8339830563435469
-0.9371691050092473,-0.9371691050092473
-1.1007567431377967,-1.1007567431377967
-1.038677331745424,-1.038677331745424
-0.8339830563435469,-0.8339830563435469
-0.8004266177530752,-0.8004266177530752
-0.9229076186082968,-0.9229076186082968
-0.9698866326349572,-0.9698866326349572
-0.8339830563435469,-0.8339830563435469
-0.7182133432064196,-0.7182133432064196
-0.745058494078797,-0.745058494078797
-0.8465667208149737,-0.8465667208149737
-0.8339830563435469,-0.8339830563435469
-0.753447603726415,-0.753447603726415
-0.745058494078797,-0.745058494078797
-0.837338700202594,-0.837338700202594
-0.8339830563435469,-0.8339830563435469
-0.6838179936511862,-0.6838179936511862
-0.5672093695492971,-0.5672093695492971
-0.6418724454130966,-0.6418724454130966
-0.745058494078797,-0.745058494078797
-0.700596212946422,-0.700596212946422
-0.5672093695492971,-0.5672093695492971
-0.5336529309588255,-0.5336529309588255
-0.5672093695492971,-0.5672093695492971
-0.5529478831483466,-0.5529478831483466
-0.4782848072845472,-0.4782848072845472
-0.4338225261521722,-0.4338225261521722
-0.38936024501979727,-0.38936024501979727
-0.32979756652171005,-0.32979756652171005
-0.30043568275504734,-0.30043568275504734
-0.33063647748647185,-0.33063647748647185
-0.30043568275504734,-0.30043568275504734
-0.1896994354064908,-0.1896994354064908
-0.12258655822554747,-0.12258655822554747
-0.1821492367236347,-0.1821492367236347
-0.2115111204902974,-0.2115111204902974
-0.12426438015507105,-0.12426438015507105
-0.03366199596079754,-0.03366199596079754
-0.07309081130460175,-0.07309081130460175
