ECG,PPG
0.012211513686209747,0.012211513686209747
0.017353001607895522,0.017353001607895522
-0.0194943284975192,-0.0194943284975192
-0.05805548791016252,-0.05805548791016252
-0.09661664732280584,-0.09661664732280584
-0.14117620931074923,-0.14117620931074923
-0.16002833169026373,-0.16002833169026373
-0.12746557485292048,-0.12746557485292048
-0.07005229306076266,-0.07005229306076266
-0.027206560380047866,-0.027206560380047866
0.002785452496452492,0.002785452496452492
0.02849289210488137,0.02849289210488137
0.031063636065724258,0.031063636065724258
0.010497684378981156,0.010497684378981156
0.007926940418138267,0.007926940418138267
0.05162958775246736,0.05162958775246736
0.09704606439402504,0.09704606439402504
0.09361840577956786,0.09361840577956786
0.05762799032776743,0.05762799032776743
0.03706203864102433,0.03706203864102433
0.036205123987410034,0.036205123987410034
0.0224944895295813,0.0224944895295813
-0.015209755229447721,-0.015209755229447721
-0.05120017068124815,-0.05120017068124815
-0.06748154909991977,-0.06748154909991977
-0.07690761028967703,-0.07690761028967703
-0.09661664732280584,-0.09661664732280584
-0.11975334297039182,-0.11975334297039182
-0.12061025762400612,-0.12061025762400612
-0.08890441544027716,-0.08890441544027716
-0.04691559741317667,-0.04691559741317667
-0.02806347503366216,-0.02806347503366216
-0.040060280184262304,-0.040060280184262304
-0.062340061178234,-0.062340061178234
-0.06919537840714836,-0.06919537840714836
-0.05976931721739111,-0.05976931721739111
-0.04691559741317667,-0.04691559741317667
-0.03406187760896223,-0.03406187760896223
-0.011782096614990538,-0.011782096614990538
0.024208318836809888,0.024208318836809888
0.05762799032776743,0.05762799032776743
0.07048171013198187,0.07048171013198187
0.0636263929030675,0.0636263929030675
0.05762799032776743,0.05762799032776743
0.06791096617113898,0.06791096617113898
0.0833354299361963,0.0833354299361963
0.07990777132173912,0.07990777132173912
0.04820192913801018,0.04820192913801018
0.00021470853560960417,0.00021470853560960417
-0.049486341374019555,-0.049486341374019555
-0.09833047663003443,-0.09833047663003443
-0.1446038679252064,-0.1446038679252064
-0.17630971010893534,-0.17630971010893534
-0.18145119803062112,-0.18145119803062112
-0.17116822218724959,-0.17116822218724959
-0.17459588080170677,-0.17459588080170677
-0.2054448083318214,-0.2054448083318214
-0.23800756516916466,-0.23800756516916466
-0.24143522378362184,-0.24143522378362184
-0.22344001605772162,-0.22344001605772162
-0.22086927209687873,-0.22086927209687873
-0.24143522378362184,-0.24143522378362184
-0.2500043703197648,-0.2500043703197648
-0.2285815039794074,-0.2285815039794074
-0.2105862962535072,-0.2105862962535072
-0.2294384186330217,-0.2294384186330217
-0.2671426633920507,-0.2671426633920507
-0.2928501030004796,-0.2928501030004796
-0.3074176521119226,-0.3074176521119226
-0.32369903053059423,-0.32369903053059423
-0.3279836037986657,-0.3279836037986657
-0.3074176521119226,-0.3074176521119226
-0.2774256392354223,-0.2774256392354223
-0.26285809012397926,-0.26285809012397926
-0.24486288239807902,-0.24486288239807902
-0.21144321090712148,-0.21144321090712148
-0.16774056357279238,-0.16774056357279238
-0.16516981961194951,-0.16516981961194951
-0.22172618675049302,-0.22172618675049302
-0.2885655297324081,-0.2885655297324081
-0.28685170042517955,-0.28685170042517955
-0.21315704021435009,-0.21315704021435009
-0.1428900386179778,-0.1428900386179778
-0.11032728178063457,-0.11032728178063457
-0.0829060128649771,-0.0829060128649771
-0.07090920771437696,-0.07090920771437696
-0.11546876970232034,-0.11546876970232034
-0.14117620931074923,-0.14117620931074923
-0.016923584536676313,-0.016923584536676313
0.21358645728556927,0.21358645728556927
0.4363842672252862,0.4363842672252862
0.8605570207643627,0.8605570207643627
1.887140775794289,1.887140775794289
3.3678892972397922,3.3678892972397922
4.383333161772733,4.383333161772733
4.1382555708390445,4.1382555708390445
2.858025078339286,2.858025078339286
1.4706802541377413,1.4706802541377413
0.569206038535502,0.569206038535502
0.029349806758495665,0.029349806758495665
-0.4462378259974386,-0.4462378259974386
-0.7958590046720714,-0.7958590046720714
-0.7675808211027996,-0.7675808211027996
-0.38711071489805216,-0.38711071489805216
-0.03406187760896223,-0.03406187760896223
-0.016066669883062018,-0.016066669883062018
-0.2474336263589219,-0.2474336263589219
-0.4342410208468384,-0.4342410208468384
-0.4513793139191244,-0.4513793139191244
-0.4042490079703381,-0.4042490079703381
-0.3956798614341951,-0.3956798614341951
-0.3991075200486523,-0.3991075200486523
-0.36740167786492334,-0.36740167786492334
-0.3322681770667372,-0.3322681770667372
-0.3348389210275801,-0.3348389210275801
-0.36397401925046613,-0.36397401925046613
-0.3588325313287804,-0.3588325313287804
-0.3177006279552942,-0.3177006279552942
-0.2688564926992793,-0.2688564926992793
-0.26285809012397926,-0.26285809012397926
-0.30227616419023684,-0.30227616419023684
-0.34854955548540884,-0.34854955548540884
-0.3554048727143232,-0.3554048727143232
-0.2885655297324081,-0.2885655297324081
-0.1454607825788207,-0.1454607825788207
0.03363438002656714,0.03363438002656714
0.16302849272232584,0.16302849272232584
0.1861651883699118,0.1861651883699118
0.14074871172835413,0.14074871172835413
0.11846893073438244,0.11846893073438244
0.1690268952976259,0.1690268952976259
0.2572891046198984,0.2572891046198984
0.3138454717584419,0.3138454717584419
0.32327153294819916,0.32327153294819916
0.3301268501771135,0.3301268501771135
0.37982790008674266,0.37982790008674266
0.46294862148732935,0.46294862148732935
0.5143635007041871,0.5143635007041871
0.4912268050566011,0.4912268050566011
0.418389059499386,0.418389059499386
0.3515497165174709,0.3515497165174709
0.29585026403254167,0.29585026403254167
0.21615720124641216,0.21615720124641216
0.11332744281269666,0.11332744281269666
0.04477427052355299,0.04477427052355299
0.04820192913801018,0.04820192913801018
0.0850492592434249,0.0850492592434249
0.10133063766209652,0.10133063766209652
0.09361840577956786,0.09361840577956786
0.06962479547836757,0.06962479547836757
0.013068428339824042,0.013068428339824042
-0.0820490982113628,-0.0820490982113628
-0.15745758772942084,-0.15745758772942084
-0.1471746118860493,-0.1471746118860493
-0.06576771979269118,-0.06576771979269118
0.0010716231892239,0.0010716231892239
0.0036423671500667876,0.0036423671500667876
-0.028920389687276456,-0.028920389687276456
-0.040060280184262304,-0.040060280184262304
-0.026349645726433567,-0.026349645726433567
-0.026349645726433567,-0.026349645726433567
-0.062340061178234,-0.062340061178234
-0.09833047663003443,-0.09833047663003443
-0.08547675682581998,-0.08547675682581998
-0.03149113364811935,-0.03149113364811935
0.012211513686209747,0.012211513686209747
0.019066830915124115,0.019066830915124115
0.029349806758495665,0.029349806758495665
0.08847691785788209,0.08847691785788209
0.18016678579461173,0.18016678579461173
0.22901092105062662,0.22901092105062662
0.1930205055988262,0.1930205055988262
0.11247052815908237,0.11247052815908237
0.06705405151752468,0.06705405151752468
0.08076468597535341,0.08076468597535341
0.10304446696932511,0.10304446696932511
0.06705405151752468,0.06705405151752468
-0.03234804830173364,-0.03234804830173364
-0.1428900386179778,-0.1428900386179778
-0.2105862962535072,-0.2105862962535072
-0.2285815039794074,-0.2285815039794074
-0.2268676746721788,-0.2268676746721788
-0.23715065051555037,-0.23715065051555037
-0.2748548952745794,-0.2748548952745794
-0.34426498221733737,-0.34426498221733737
-0.4350979355004527,-0.4350979355004527
-0.5242170594763396,-0.5242170594763396
-0.5850579998829546,-0.5850579998829546
-0.6099085248377691,-0.6099085248377691
-0.6219053299883692,-0.6219053299883692
-0.621048415334755,-0.621048415334755
-0.6287606472172836,-0.6287606472172836
-0.6424712816751124,-0.6424712816751124
-0.6253329886028265,-0.6253329886028265
-0.5362138646269397,-0.5362138646269397
-0.435954850154067,-0.435954850154067
-0.42481495965708116,-0.42481495965708116
-0.46080537510888164,-0.46080537510888164
-0.4119612398528667,-0.4119612398528667
-0.32284211587698,-0.32284211587698
-0.38711071489805216,-0.38711071489805216
-0.5936271464190975,-0.5936271464190975
-0.68788775831667,-0.68788775831667
-0.5910564024582546,-0.5910564024582546
-0.4976527052142964,-0.4976527052142964
-0.3554048727143232,-0.3554048727143232
0.3318406794843421,0.3318406794843421
1.82544292073406,1.82544292073406
3.509280215086151,3.509280215086151
4.355054978203461,4.355054978203461
3.9531620056583567,3.9531620056583567
2.8143224310049573,2.8143224310049573
1.6849089175413152,1.6849089175413152
0.8751245698758057,0.8751245698758057
0.28556728818917015,0.28556728818917015
-0.15145918515412077,-0.15145918515412077
-0.3262697744914371,-0.3262697744914371
-0.20715863763905001,-0.20715863763905001
-0.03149113364811935,-0.03149113364811935
-0.06319697583184829,-0.06319697583184829
-0.2851378711179509,-0.2851378711179509
-0.4625192044161102,-0.4625192044161102
-0.4753729242203247,-0.4753729242203247
-0.42824261827153837,-0.42824261827153837
-0.45566388718719586,-0.45566388718719586
-0.5507814137383827,-0.5507814137383827
-0.6296175618708979,-0.6296175618708979
-0.6578957454401697,-0.6578957454401697
-0.664751062669084,-0.664751062669084
-0.6801755264341414,-0.6801755264341414
-0.6870308436630558,-0.6870308436630558
-0.6827462703949843,-0.6827462703949843
-0.6673218066299269,-0.6673218066299269
-0.6767478678196842,-0.6767478678196842
-0.7033122220817274,-0.7033122220817274
-0.7247350884220848,-0.7247350884220848
-0.7307334909973848,-0.7307334909973848
-0.7461579547624422,-0.7461579547624422
-0.7735792236780996,-0.7735792236780996
-0.7778637969461711,-0.7778637969461711
-0.7101675393106417,-0.7101675393106417
-0.5602074749281399,-0.5602074749281399
-0.36997242182576623,-0.36997242182576623
-0.21572778417519295,-0.21572778417519295
-0.13175014812099198,-0.13175014812099198
-0.06748154909991977,-0.06748154909991977
0.06191256359583891,0.06191256359583891
0.2572891046198984,0.2572891046198984
0.4303858646499861,0.4303858646499861
0.5229326472403301,0.5229326472403301
0.5769182704180307,0.5769182704180307
0.6574682478577745,0.6574682478577745
0.7551565183698042,0.7551565183698042
0.8245666053125622,0.8245666053125622
0.8562724474962912,0.8562724474962912
0.8716969112613485,0.8716969112613485
0.8494171302673768,0.8494171302673768
0.7568703476770329,0.7568703476770329
0.6017687953728452,0.6017687953728452
0.44666724306865774,0.44666724306865774
0.34383748463494224,0.34383748463494224
0.3052763252222989,0.3052763252222989
0.2949933493789274,0.2949933493789274
0.259002933927127,0.259002933927127
0.1655992366831687,0.1655992366831687
0.05677107567415313,0.05677107567415313
-0.0032129500788475795,-0.0032129500788475795
-0.018637413843904906,-0.018637413843904906
-0.06748154909991977,-0.06748154909991977
-0.1891634299131498,-0.1891634299131498
-0.31855754260890845,-0.31855754260890845
-0.375113909747452,-0.375113909747452
-0.36997242182576623,-0.36997242182576623
-0.3939660321269665,-0.3939660321269665
-0.4882266440245391,-0.4882266440245391
-0.6039101222624691,-0.6039101222624691
-0.6621803187082411,-0.6621803187082411
-0.6493265989040268,-0.6493265989040268
-0.6236191592955979,-0.6236191592955979
-0.6596095747473983,-0.6596095747473983
-0.763296247834728,-0.763296247834728
-0.8746951528045865,-0.8746951528045865
-0.893547275184101,-0.893547275184101
-0.8224233589341146,-0.8224233589341146
-0.696456904852813,-0.696456904852813
-0.5764888533468115,-0.5764888533468115
-0.4736590949130961,-0.4736590949130961
-0.3879676295516664,-0.3879676295516664
-0.30827456676553694,-0.30827456676553694
-0.24486288239807902,-0.24486288239807902
-0.2063017229854357,-0.2063017229854357
-0.15574375842219226,-0.15574375842219226
-0.07605069563606273,-0.07605069563606273
-0.06748154909991977,-0.06748154909991977
-0.19687566179567845,-0.19687566179567845
-0.23972139447639323,-0.23972139447639323
0.08762000320426779,0.08762000320426779
0.647185272014403,0.647185272014403
1.1227729047703372,1.1227729047703372
1.8100184569690025,1.8100184569690025
3.3833137610048496,3.3833137610048496
5.580442932871905,5.580442932871905
6.915515963202978,6.915515963202978
6.349095377163929,6.349095377163929
4.545290031305836,4.545290031305836
2.891444749830244,2.891444749830244
1.8468657870744172,1.8468657870744172
1.0096601704932502,1.0096601704932502
0.21958485986086934,0.21958485986086934
-0.23715065051555037,-0.23715065051555037
-0.2937070176540939,-0.2937070176540939
-0.2551458582414506,-0.2551458582414506
-0.3348389210275801,-0.3348389210275801
-0.47965749748839615,-0.47965749748839615
-0.6013393783016262,-0.6013393783016262
-0.6836031850485986,-0.6836031850485986
-0.713595197925099,-0.713595197925099
-0.7075967953497989,-0.7075967953497989
-0.7333042349582277,-0.7333042349582277
-0.8069988951690572,-0.8069988951690572
-0.8464169692353148,-0.8464169692353148
-0.812140383090743,-0.812140383090743
-0.7598685892202709,-0.7598685892202709
-0.7487286987232851,-0.7487286987232851
-0.719593600500399,-0.719593600500399
-0.6450420256359553,-0.6450420256359553
-0.5653489628498257,-0.5653489628498257
-0.5679197068106686,-0.5679197068106686
-0.6193345860275263,-0.6193345860275263
-0.6090516101841549,-0.6090516101841549
-0.467660692337796,-0.467660692337796
-0.25428894358783627,-0.25428894358783627
-0.07776452494329132,-0.07776452494329132
0.007926940418138267,0.007926940418138267
0.03449129468018144,0.03449129468018144
0.0644833075566818,0.0644833075566818
0.12875190657775398,0.12875190657775398
0.22044177451448366,0.22044177451448366
0.3147023864120562,0.3147023864120562
0.3995369371198715,0.3995369371198715
0.4749454266379295,0.4749454266379295
0.5554954040776733,0.5554954040776733
0.6446145280535601,0.6446145280535601
0.716595358957161,0.716595358957161
0.7294490787613753,0.7294490787613753
0.6883171753878892,0.6883171753878892
0.6523267599360887,0.6523267599360887
0.6651804797403031,0.6651804797403031
0.699457065884875,0.699457065884875
0.7011708951921036,0.7011708951921036
0.6591820771650031,0.6591820771650031
0.5974842221047738,0.5974842221047738
0.5203619032794872,0.5203619032794872
0.4166752301921574,0.4166752301921574
0.28556728818917015,0.28556728818917015
0.15360243153256856,0.15360243153256856
0.05248650240608165,0.05248650240608165
0.0010716231892239,0.0010716231892239
-0.011782096614990538,-0.011782096614990538
-0.024635816419204978,-0.024635816419204978
-0.06833846375353407,-0.06833846375353407
-0.12917940416014909,-0.12917940416014909
-0.15402992911496366,-0.15402992911496366
-0.11461185504870605,-0.11461185504870605
-0.050343256027633856,-0.050343256027633856
-0.04520176810594808,-0.04520176810594808
-0.12746557485292048,-0.12746557485292048
-0.23629373586193606,-0.23629373586193606
-0.27913946854265087,-0.27913946854265087
-0.23800756516916466,-0.23800756516916466
-0.1668836489191781,-0.1668836489191781
-0.11289802574147745,-0.11289802574147745
-0.062340061178234,-0.062340061178234
-0.010068267307761947,-0.010068267307761947
0.002785452496452492,0.002785452496452492
-0.047772512066790965,-0.047772512066790965
-0.1043288792053345,-0.1043288792053345
-0.09661664732280584,-0.09661664732280584
-0.02977730434089075,-0.02977730434089075
0.029349806758495665,0.029349806758495665
0.037918953294638624,0.037918953294638624
0.0010716231892239,0.0010716231892239
-0.05291399998847674,-0.05291399998847674
-0.07947835425051991,-0.07947835425051991
-0.05120017068124815,-0.05120017068124815
-0.0014991207716189877,-0.0014991207716189877
-0.008354438000533355,-0.008354438000533355
-0.08719058613304857,-0.08719058613304857
-0.15660067307580655,-0.15660067307580655
-0.15402992911496366,-0.15402992911496366
-0.10261504989810591,-0.10261504989810591
-0.09147515940112005,-0.09147515940112005
-0.13346397742822055,-0.13346397742822055
-0.17888045406977823,-0.17888045406977823
-0.19173417387399266,-0.19173417387399266
-0.21315704021435009,-0.21315704021435009
-0.2748548952745794,-0.2748548952745794
-0.3339820063739658,-0.3339820063739658
-0.3348389210275801,-0.3348389210275801
-0.3125591400336084,-0.3125591400336084
-0.36311710459685187,-0.36311710459685187
-0.5105064250185108,-0.5105064250185108
-0.6733202092052271,-0.6733202092052271
-0.774436138331714,-0.774436138331714
-0.8224233589341146,-0.8224233589341146
-0.8010004925937572,-0.8010004925937572
-0.48222824144923904,-0.48222824144923904
0.46551936544817224,0.46551936544817224
2.002824254032219,2.002824254032219
3.4201610911102645,3.4201610911102645
3.84004927138127,3.84004927138127
3.108244157194661,3.108244157194661
1.9471248015472897,1.9471248015472897
1.1296282219992515,1.1296282219992515
0.7423027985655898,0.7423027985655898
0.43895501118612906,0.43895501118612906
0.11075669885185377,0.11075669885185377
-0.03234804830173364,-0.03234804830173364
0.08247851528258202,0.08247851528258202
0.21444337193918359,0.21444337193918359
0.13475030915305405,0.13475030915305405
-0.08633367147943428,-0.08633367147943428
-0.21144321090712148,-0.21144321090712148
-0.1446038679252064,-0.1446038679252064
-0.011782096614990538,-0.011782096614990538
0.03449129468018144,0.03449129468018144
-0.010068267307761947,-0.010068267307761947
-0.04177410949149089,-0.04177410949149089
-0.016923584536676313,-0.016923584536676313
0.013925342993438339,0.013925342993438339
0.017353001607895522,0.017353001607895522
0.010497684378981156,0.010497684378981156
0.03277746537295285,0.03277746537295285
0.06191256359583891,0.06191256359583891
0.07476628340005334,0.07476628340005334
0.042203526562710106,0.042203526562710106
-0.03149113364811935,-0.03149113364811935
-0.10775653781979168,-0.10775653781979168
-0.13089323346737766,-0.13089323346737766
-0.10518579385894879,-0.10518579385894879
-0.07776452494329132,-0.07776452494329132
-0.06662463444630548,-0.06662463444630548
-0.024635816419204978,-0.024635816419204978
0.06534022221029609,0.06534022221029609
0.1493178582644971,0.1493178582644971
0.18188061510184034,0.18188061510184034
0.20330348144219773,0.20330348144219773
0.27442739769218427,0.27442739769218427
0.38496938800842845,0.38496938800842845
0.4698039387162437,0.4698039387162437
0.5015097808999727,0.5015097808999727
0.5075081834752727,0.5075081834752727
0.5203619032794872,0.5203619032794872
0.5383571110053874,0.5383571110053874
0.5529246601168304,0.5529246601168304
0.5743475264571878,0.5743475264571878
0.6129086858698312,0.6129086858698312
0.6480421866680173,0.6480421866680173
0.6377592108246457,0.6377592108246457
0.5640645506138162,0.5640645506138162
0.45952096287287214,0.45952096287287214
0.36611726562891395,0.36611726562891395
0.2941364347253131,0.2941364347253131
0.2298678357042409,0.2298678357042409
0.17074072460485448,0.17074072460485448
0.1270380772705254,0.1270380772705254
0.10304446696932511,0.10304446696932511
0.08847691785788209,0.08847691785788209
0.06962479547836757,0.06962479547836757
0.03277746537295285,0.03277746537295285
-0.01778049919029061,-0.01778049919029061
-0.0614831465246197,-0.0614831465246197
-0.06662463444630548,-0.06662463444630548
-0.03491879226257653,-0.03491879226257653
-0.008354438000533355,-0.008354438000533355
-0.027206560380047866,-0.027206560380047866
-0.07776452494329132,-0.07776452494329132
-0.11889642831677752,-0.11889642831677752
-0.11632568435593464,-0.11632568435593464
-0.07433686632883414,-0.07433686632883414
-0.012639011268604835,-0.012639011268604835
0.041346611909095804,0.041346611909095804
0.07305245409282475,0.07305245409282475
0.08162160062896771,0.08162160062896771
0.0833354299361963,0.0833354299361963
0.08762000320426779,0.08762000320426779
0.09104766181872496,0.09104766181872496
0.0833354299361963,0.0833354299361963
0.07390936874643905,0.07390936874643905
0.08847691785788209,0.08847691785788209
0.13132265053859687,0.13132265053859687
0.16302849272232584,0.16302849272232584
0.14331945568919702,0.14331945568919702
0.0841923445898106,0.0841923445898106
0.04048969725548151,0.04048969725548151
0.03277746537295285,0.03277746537295285
0.016496086954281227,0.016496086954281227
-0.04263102414510519,-0.04263102414510519
-0.10175813524449161,-0.10175813524449161
-0.10175813524449161,-0.10175813524449161
-0.03577570691619082,-0.03577570691619082
0.005356196457295379,0.005356196457295379
-0.03920336553064801,-0.03920336553064801
-0.13946238000352063,-0.13946238000352063
-0.2080155522926643,-0.2080155522926643
-0.21315704021435009,-0.21315704021435009
-0.18830651525953548,-0.18830651525953548
-0.17288205149447816,-0.17288205149447816
-0.17116822218724959,-0.17116822218724959
-0.17888045406977823,-0.17888045406977823
-0.19430491783483556,-0.19430491783483556
-0.2242969307113359,-0.2242969307113359
-0.2517181996269934,-0.2517181996269934
-0.23886447982277895,-0.23886447982277895
-0.17373896614809245,-0.17373896614809245
-0.05634165860293393,-0.05634165860293393
0.26414442184881276,0.26414442184881276
1.1030638677372084,1.1030638677372084
2.4998347531285106,2.4998347531285106
3.7654976965168263,3.7654976965168263
3.9377375418932994,3.9377375418932994
2.865737310221815,2.865737310221815
1.461254192947984,1.461254192947984
0.6317608082493457,0.6317608082493457
0.3626896070144568,0.3626896070144568
0.1476040289572685,0.1476040289572685
-0.10775653781979168,-0.10775653781979168
-0.10261504989810591,-0.10261504989810591
0.19473433490605477,0.19473433490605477
0.4226736327674575,0.4226736327674575
0.334411423445185,0.334411423445185
0.0833354299361963,0.0833354299361963
-0.05462782929570533,-0.05462782929570533
-0.0194943284975192,-0.0194943284975192
0.04477427052355299,0.04477427052355299
0.01992374556873841,0.01992374556873841
-0.062340061178234,-0.062340061178234
-0.10689962316617738,-0.10689962316617738
-0.09061824474750577,-0.09061824474750577
-0.0811921835577485,-0.0811921835577485
-0.11032728178063457,-0.11032728178063457
-0.14888844119327788,-0.14888844119327788
-0.1471746118860493,-0.1471746118860493
-0.123181001584849,-0.123181001584849
-0.10175813524449161,-0.10175813524449161
-0.11204111108786316,-0.11204111108786316
-0.15574375842219226,-0.15574375842219226
-0.20030332041013563,-0.20030332041013563
-0.19259108852760698,-0.19259108852760698
-0.14117620931074923,-0.14117620931074923
-0.10861345247340598,-0.10861345247340598
-0.11975334297039182,-0.11975334297039182
-0.11204111108786316,-0.11204111108786316
-0.028920389687276456,-0.028920389687276456
0.11161361350546807,0.11161361350546807
0.26071676323435555,0.26071676323435555
0.4115337422704716,0.4115337422704716
0.5649214652674306,0.5649214652674306
0.6840326021198176,0.6840326021198176
0.7191661029180039,0.7191661029180039
0.6874602607342749,0.6874602607342749
0.6626097357794603,0.6626097357794603
0.6986001512312607,0.6986001512312607
0.7697240674812472,0.7697240674812472
0.8254235199661765,0.8254235199661765
0.861413935417977,0.861413935417977
0.9119718999812204,0.9119718999812204
0.9762404990022926,0.9762404990022926
0.99166496276735,0.99166496276735
0.9196841318637491,0.9196841318637491
0.7988591657041333,0.7988591657041333
0.6977432365776464,0.6977432365776464
0.6411868694391029,0.6411868694391029
0.6086241126017596,0.6086241126017596
0.5854874169541736,0.5854874169541736
0.5614938066529733,0.5614938066529733
0.5075081834752727,0.5075081834752727
0.3866832173156571,0.3866832173156571
0.21272954263195498,0.21272954263195498
0.04905884379162447,0.04905884379162447
-0.044344853452333785,-0.044344853452333785
-0.07605069563606273,-0.07605069563606273
-0.09661664732280584,-0.09661664732280584
-0.1454607825788207,-0.1454607825788207
-0.2063017229854357,-0.2063017229854357
-0.24486288239807902,-0.24486288239807902
-0.2491474556661505,-0.2491474556661505
-0.24143522378362184,-0.24143522378362184
-0.2285815039794074,-0.2285815039794074
-0.19516183248844987,-0.19516183248844987
-0.12832248950653477,-0.12832248950653477
-0.07176612236799125,-0.07176612236799125
-0.0811921835577485,-0.0811921835577485
-0.15917141703664944,-0.15917141703664944
-0.23029533328663598,-0.23029533328663598
-0.23543682120832177,-0.23543682120832177
-0.17973736872339252,-0.17973736872339252
-0.11032728178063457,-0.11032728178063457
-0.055484743949319626,-0.055484743949319626
-0.04177410949149089,-0.04177410949149089
-0.07605069563606273,-0.07605069563606273
-0.11632568435593464,-0.11632568435593464
-0.06576771979269118,-0.06576771979269118
0.05420033171331025,0.05420033171331025
0.1270380772705254,0.1270380772705254
0.08162160062896771,0.08162160062896771
0.002785452496452492,0.002785452496452492
0.002785452496452492,0.002785452496452492
0.07905085666812482,0.07905085666812482
0.1467471143036542,0.1467471143036542
0.1655992366831687,0.1655992366831687
0.18102370044822605,0.18102370044822605
0.23586623827954098,0.23586623827954098
0.3001348373006132,0.3001348373006132
0.3335545087915707,0.3335545087915707
0.4029645957343287,0.4029645957343287
0.6137656005234454,0.6137656005234454
0.9616729498908495,0.9616729498908495
1.4655387662160555,1.4655387662160555
2.3798667016225092,2.3798667016225092
3.8023450266222407,3.8023450266222407
5.02087766406177,5.02087766406177
4.904337271170226,4.904337271170226
3.2753425146494486,3.2753425146494486
1.304438811336568,1.304438811336568
0.1493178582644971,0.1493178582644971
-0.23457990655470748,-0.23457990655470748
-0.4728021802594818,-0.4728021802594818
-0.6493265989040268,-0.6493265989040268
-0.4753729242203247,-0.4753729242203247
-0.08633367147943428,-0.08633367147943428
0.06876788082475328,0.06876788082475328
-0.07519378098244843,-0.07519378098244843
-0.21144321090712148,-0.21144321090712148
-0.19858949110290705,-0.19858949110290705
-0.17630971010893534,-0.17630971010893534
-0.21829852813603584,-0.21829852813603584
-0.2482905410125362,-0.2482905410125362
-0.21744161348242155,-0.21744161348242155
-0.17202513684086387,-0.17202513684086387
-0.15060227050050648,-0.15060227050050648
-0.17545279545532105,-0.17545279545532105
-0.2457197970516933,-0.2457197970516933
-0.32884051845228,-0.32884051845228
-0.3262697744914371,-0.3262697744914371
-0.22344001605772162,-0.22344001605772162
-0.09061824474750577,-0.09061824474750577
-0.018637413843904906,-0.018637413843904906
-0.004069864732461875,-0.004069864732461875
0.016496086954281227,0.016496086954281227
0.07905085666812482,0.07905085666812482
0.15360243153256856,0.15360243153256856
0.19901890817412626,0.19901890817412626
0.2093018840174978,0.2093018840174978
0.2255832624361694,0.2255832624361694
0.2864242028427844,0.2864242028427844
0.3943954491981857,0.3943954491981857
0.5092220127825013,0.5092220127825013
0.5940565634903167,0.5940565634903167
0.6626097357794603,0.6626097357794603
0.7585841769842614,0.7585841769842614
0.8794091431438772,0.8794091431438772
0.9728128403878354,0.9728128403878354
1.0070894265324073,1.0070894265324073
0.9993771946498786,0.9993771946498786
0.9651006085053068,0.9651006085053068
0.884550631065563,0.884550631065563
0.768867152827633,0.768867152827633
0.6797480288517462,0.6797480288517462
0.6454714427071744,0.6454714427071744
0.6094810272553739,0.6094810272553739
0.5023666955535869,0.5023666955535869
0.34983588721024234,0.34983588721024234
0.24015081154761245,0.24015081154761245
0.20416039609581202,0.20416039609581202
0.18102370044822605,0.18102370044822605
0.11504127211992525,0.11504127211992525
0.03277746537295285,0.03277746537295285
0.00021470853560960417,0.00021470853560960417
0.019066830915124115,0.019066830915124115
0.01992374556873841,0.01992374556873841
-0.038346450877033714,-0.038346450877033714
-0.10604270851256309,-0.10604270851256309
-0.13346397742822055,-0.13346397742822055
-0.13603472138906345,-0.13603472138906345
-0.15917141703664944,-0.15917141703664944
-0.19430491783483556,-0.19430491783483556
-0.2242969307113359,-0.2242969307113359
-0.25428894358783627,-0.25428894358783627
-0.2885655297324081,-0.2885655297324081
-0.2851378711179509,-0.2851378711179509
-0.2268676746721788,-0.2268676746721788
-0.16516981961194951,-0.16516981961194951
-0.15831450238303513,-0.15831450238303513
-0.17802353941616395,-0.17802353941616395
-0.1454607825788207,-0.1454607825788207
-0.044344853452333785,-0.044344853452333785
0.05248650240608165,0.05248650240608165
0.07905085666812482,0.07905085666812482
0.06191256359583891,0.06191256359583891
0.07819394201451053,0.07819394201451053
0.1476040289572685,0.1476040289572685
0.2093018840174978,0.2093018840174978
0.2118726279783407,0.2118726279783407
0.17673912718015455,0.17673912718015455
0.1458901996500399,0.1458901996500399
0.13217956519221116,0.13217956519221116
0.09447532043318216,0.09447532043318216
0.029349806758495665,0.029349806758495665
-0.004926779386076171,-0.004926779386076171
0.0224944895295813,0.0224944895295813
0.02763597745126707,0.02763597745126707
-0.08719058613304857,-0.08719058613304857
-0.24657671170530762,-0.24657671170530762
-0.28428095646433665,-0.28428095646433665
-0.2088724669462786,-0.2088724669462786
-0.20287406437097852,-0.20287406437097852
-0.30227616419023684,-0.30227616419023684
-0.32712668914505144,-0.32712668914505144
-0.20116023506374994,-0.20116023506374994
-0.0846198421722057,-0.0846198421722057
0.004499281803681083,0.004499281803681083
0.42353054742107177,0.42353054742107177
1.4535419610654554,1.4535419610654554
2.694354379498956,2.694354379498956
3.2496350750410197,3.2496350750410197
2.633513439092341,2.633513439092341
1.3301462509449968,1.3301462509449968
0.2701428244241128,0.2701428244241128
-0.13432089208183484,-0.13432089208183484
-0.20116023506374994,-0.20116023506374994
-0.29713467626855106,-0.29713467626855106
-0.3356958356811944,-0.3356958356811944
-0.11289802574147745,-0.11289802574147745
0.20330348144219773,0.20330348144219773
0.26842899511688423,0.26842899511688423
0.06191256359583891,0.06191256359583891
-0.13175014812099198,-0.13175014812099198
-0.15231609980773506,-0.15231609980773506
-0.10175813524449161,-0.10175813524449161
-0.08976133009389146,-0.08976133009389146
-0.08547675682581998,-0.08547675682581998
-0.040060280184262304,-0.040060280184262304
0.0036423671500667876,0.0036423671500667876
-0.016923584536676313,-0.016923584536676313
-0.08719058613304857,-0.08719058613304857
-0.10775653781979168,-0.10775653781979168
-0.0194943284975192,-0.0194943284975192
0.1270380772705254,0.1270380772705254
0.17673912718015455,0.17673912718015455
0.05677107567415313,0.05677107567415313
-0.13175014812099198,-0.13175014812099198
-0.22001235744326444,-0.22001235744326444
-0.15831450238303513,-0.15831450238303513
-0.047772512066790965,-0.047772512066790965
-0.0014991207716189877,-0.0014991207716189877
-0.021208157804747794,-0.021208157804747794
-0.03748953622341942,-0.03748953622341942
-0.016923584536676313,-0.016923584536676313
-0.0023560354252332837,-0.0023560354252332837
-0.022921987111976384,-0.022921987111976384
-0.038346450877033714,-0.038346450877033714
0.013925342993438339,0.013925342993438339
0.12018276004161103,0.12018276004161103
0.21615720124641216,0.21615720124641216
0.28471037353555584,0.28471037353555584
0.37125875355059973,0.37125875355059973
0.4835145731740724,0.4835145731740724
0.5597799773457448,0.5597799773457448
0.5709198678427306,0.5709198678427306
0.5794890143788736,0.5794890143788736
0.6326177229029599,0.6326177229029599
0.6788911141981319,0.6788911141981319
0.6540405892433173,0.6540405892433173
0.5914858195294738,0.5914858195294738
0.5674922092282735,0.5674922092282735
0.5717767824963449,0.5717767824963449
0.525503391201173,0.525503391201173
0.40125076642710006,0.40125076642710006
0.26243059254158413,0.26243059254158413
0.1698838099512402,0.1698838099512402
0.11761201608076814,0.11761201608076814
0.0636263929030675,0.0636263929030675
0.004499281803681083,0.004499281803681083
-0.03063421899450505,-0.03063421899450505
-0.04348793879871949,-0.04348793879871949
-0.07862143959690562,-0.07862143959690562
-0.1497453558468922,-0.1497453558468922
-0.20287406437097852,-0.20287406437097852
-0.19087725922037838,-0.19087725922037838
-0.14203312396436352,-0.14203312396436352
-0.11718259900954893,-0.11718259900954893
-0.1266086601993062,-0.1266086601993062
-0.14117620931074923,-0.14117620931074923
-0.15060227050050648,-0.15060227050050648
-0.17973736872339252,-0.17973736872339252
-0.2294384186330217,-0.2294384186330217
-0.2705703220065079,-0.2705703220065079
-0.2697134073528936,-0.2697134073528936
-0.26114426081675063,-0.26114426081675063
-0.2637150047775935,-0.2637150047775935
-0.28428095646433665,-0.28428095646433665
-0.27314106596735077,-0.27314106596735077
-0.2242969307113359,-0.2242969307113359
-0.1857357712986926,-0.1857357712986926
-0.19087725922037838,-0.19087725922037838
-0.19601874714206416,-0.19601874714206416
-0.15831450238303513,-0.15831450238303513
-0.11803951366316323,-0.11803951366316323
-0.1266086601993062,-0.1266086601993062
-0.1617421609974923,-0.1617421609974923
-0.17973736872339252,-0.17973736872339252
-0.1617421609974923,-0.1617421609974923
-0.04691559741317667,-0.04691559741317667
0.24529229946929823,0.24529229946929823
0.6840326021198176,0.6840326021198176
1.266734566577539,1.266734566577539
2.254757162194822,2.254757162194822
3.7929189654324835,3.7929189654324835
5.193117509438243,5.193117509438243
5.254815364498472,5.254815364498472
3.668666340658411,3.668666340658411
1.568368524649771,1.568368524649771
0.25557527531266977,0.25557527531266977
-0.13089323346737766,-0.13089323346737766
-0.23543682120832177,-0.23543682120832177
-0.34597881152456594,-0.34597881152456594
-0.267999578045665,-0.267999578045665
-0.0006422061180046917,-0.0006422061180046917
0.14503328499642562,0.14503328499642562
0.017353001607895522,0.017353001607895522
-0.2088724669462786,-0.2088724669462786
-0.34255115291010874,-0.34255115291010874
-0.3545479580607089,-0.3545479580607089
-0.28599478577156523,-0.28599478577156523
-0.17802353941616395,-0.17802353941616395
-0.08804750078666287,-0.08804750078666287
-0.07776452494329132,-0.07776452494329132
-0.13946238000352063,-0.13946238000352063
-0.2088724669462786,-0.2088724669462786
-0.21744161348242155,-0.21744161348242155
-0.18059428337700684,-0.18059428337700684
-0.15317301446134937,-0.15317301446134937
-0.19087725922037838,-0.19087725922037838
-0.2508612849733791,-0.2508612849733791
-0.2714272366601222,-0.2714272366601222
-0.2500043703197648,-0.2500043703197648
-0.22344001605772162,-0.22344001605772162
-0.2063017229854357,-0.2063017229854357
-0.18402194199146402,-0.18402194199146402
-0.15831450238303513,-0.15831450238303513
-0.15402992911496366,-0.15402992911496366
-0.17288205149447816,-0.17288205149447816
-0.1823081126842354,-0.1823081126842354
-0.13774855069629205,-0.13774855069629205
-0.025492731072819273,-0.025492731072819273
0.1296088212313683,0.1296088212313683
0.2718566537313414,0.2718566537313414
0.3524066311710852,0.3524066311710852
0.36868800958975684,0.36868800958975684
0.3626896070144568,0.3626896070144568
0.3815417293939713,0.3815417293939713
0.44152575514697195,0.44152575514697195
0.531501793776473,0.531501793776473
0.6180501737915169,0.6180501737915169
0.6566113332041602,0.6566113332041602
0.615479429830674,0.615479429830674
0.5075081834752727,0.5075081834752727
0.3986800224662572,0.3986800224662572
0.3549773751319281,0.3549773751319281
0.3764002414722855,0.3764002414722855
0.3926816198909571,0.3926816198909571
0.34212365532771366,0.34212365532771366
0.2487199580837554,0.2487199580837554
0.1878790176771404,0.1878790176771404
0.18188061510184034,0.18188061510184034
0.17159763925846877,0.17159763925846877
0.11675510142715384,0.11675510142715384
0.04991575844523877,0.04991575844523877
0.002785452496452492,0.002785452496452492
-0.05120017068124815,-0.05120017068124815
-0.13517780673544916,-0.13517780673544916
-0.2054448083318214,-0.2054448083318214
-0.22001235744326444,-0.22001235744326444
-0.2105862962535072,-0.2105862962535072
-0.2294384186330217,-0.2294384186330217
-0.26028734616313637,-0.26028734616313637
-0.26285809012397926,-0.26285809012397926
-0.23972139447639323,-0.23972139447639323
-0.23629373586193606,-0.23629373586193606
-0.26285809012397926,-0.26285809012397926
-0.3014192495366226,-0.3014192495366226
-0.3339820063739658,-0.3339820063739658
-0.3536910434070946,-0.3536910434070946
-0.33998040894926584,-0.33998040894926584
-0.2722841513137365,-0.2722841513137365
-0.17459588080170677,-0.17459588080170677
-0.11204111108786316,-0.11204111108786316
-0.11975334297039182,-0.11975334297039182
-0.1480315265396636,-0.1480315265396636
-0.123181001584849,-0.123181001584849
-0.049486341374019555,-0.049486341374019555
-0.01349592592221913,-0.01349592592221913
-0.05291399998847674,-0.05291399998847674
-0.09318898870834864,-0.09318898870834864
-0.05462782929570533,-0.05462782929570533
0.02849289210488137,0.02849289210488137
0.04905884379162447,0.04905884379162447
-0.026349645726433567,-0.026349645726433567
-0.11803951366316323,-0.11803951366316323
-0.1428900386179778,-0.1428900386179778
-0.10604270851256309,-0.10604270851256309
-0.07262303702160555,-0.07262303702160555
-0.07776452494329132,-0.07776452494329132
-0.09575973266919154,-0.09575973266919154
-0.09147515940112005,-0.09147515940112005
-0.07176612236799125,-0.07176612236799125
-0.062340061178234,-0.062340061178234
-0.07605069563606273,-0.07605069563606273
-0.1034719645517202,-0.1034719645517202
-0.13774855069629205,-0.13774855069629205
-0.16516981961194951,-0.16516981961194951
-0.15660067307580655,-0.15660067307580655
-0.10518579385894879,-0.10518579385894879
-0.04348793879871949,-0.04348793879871949
-0.03149113364811935,-0.03149113364811935
-0.06662463444630548,-0.06662463444630548
-0.123181001584849,-0.123181001584849
-0.17288205149447816,-0.17288205149447816
-0.20972938159989288,-0.20972938159989288
-0.23543682120832177,-0.23543682120832177
-0.28342404181072234,-0.28342404181072234
-0.3725431657866091,-0.3725431657866091
-0.4410963380757528,-0.4410963380757528
-0.4145319838137096,-0.4145319838137096
-0.3588325313287804,-0.3588325313287804
-0.406819751931181,-0.406819751931181
-0.5276447180907967,-0.5276447180907967
-0.537070779280554,-0.537070779280554
-0.3956798614341951,-0.3956798614341951
-0.2311522479402503,-0.2311522479402503
0.03020672141210996,0.03020672141210996
0.7440166278728184,0.7440166278728184
2.005394997993062,2.005394997993062
3.242779757812105,3.242779757812105
3.672093999272868,3.672093999272868
3.0945335227368322,3.0945335227368322
2.029388608294262,2.029388608294262
1.0893532332793796,1.0893532332793796
0.4483810723758863,0.4483810723758863
-0.04348793879871949,-0.04348793879871949
-0.4290995329251526,-0.4290995329251526
-0.5499244990847684,-0.5499244990847684
-0.3322681770667372,-0.3322681770667372
-0.007497523346919059,-0.007497523346919059
0.105615210930168,0.105615210930168
-0.053770914642091036,-0.053770914642091036
-0.26285809012397926,-0.26285809012397926
-0.32884051845228,-0.32884051845228
-0.28428095646433665,-0.28428095646433665
-0.2697134073528936,-0.2697134073528936
-0.3202713719161371,-0.3202713719161371
-0.3545479580607089,-0.3545479580607089
-0.32455594518420855,-0.32455594518420855
-0.2774256392354223,-0.2774256392354223
-0.28599478577156523,-0.28599478577156523
-0.32969743310589433,-0.32969743310589433
-0.34854955548540884,-0.34854955548540884
-0.3117022253799941,-0.3117022253799941
-0.27913946854265087,-0.27913946854265087
-0.29456393230770817,-0.29456393230770817
-0.34854955548540884,-0.34854955548540884
-0.38625380024443784,-0.38625380024443784
-0.3716862511329948,-0.3716862511329948
-0.30484690815107973,-0.30484690815107973
-0.22344001605772162,-0.22344001605772162
-0.1668836489191781,-0.1668836489191781
-0.14203312396436352,-0.14203312396436352
-0.123181001584849,-0.123181001584849
-0.08976133009389146,-0.08976133009389146
-0.04691559741317667,-0.04691559741317667
-0.005783694039690467,-0.005783694039690467
0.03277746537295285,0.03277746537295285
0.08076468597535341,0.08076468597535341
0.13475030915305405,0.13475030915305405
0.17331146856569737,0.17331146856569737
0.18959284698436898,0.18959284698436898
0.21958485986086934,0.21958485986086934
0.30099175195422745,0.30099175195422745
0.40467842504155727,0.40467842504155727
0.4552363896048007,0.4552363896048007
0.43467043791805765,0.43467043791805765
0.4021076810807144,0.4021076810807144
0.40125076642710006,0.40125076642710006
0.3969661931590286,0.3969661931590286
0.3515497165174709,0.3515497165174709
0.2924226054180845,0.2924226054180845
0.24614921412291252,0.24614921412291252
0.18102370044822605,0.18102370044822605
0.06962479547836757,0.06962479547836757
-0.03234804830173364,-0.03234804830173364
-0.05120017068124815,-0.05120017068124815
-0.005783694039690467,-0.005783694039690467
0.007926940418138267,0.007926940418138267
-0.052057085334862446,-0.052057085334862446
-0.13346397742822055,-0.13346397742822055
-0.17202513684086387,-0.17202513684086387
-0.17716662476254966,-0.17716662476254966
-0.20458789367820712,-0.20458789367820712
-0.26200117547036494,-0.26200117547036494
-0.2928501030004796,-0.2928501030004796
-0.26200117547036494,-0.26200117547036494
-0.21230012556073577,-0.21230012556073577
-0.2054448083318214,-0.2054448083318214
-0.23886447982277895,-0.23886447982277895
-0.27999638319626513,-0.27999638319626513
-0.32112828656975134,-0.32112828656975134
-0.375113909747452,-0.375113909747452
-0.4196734717353954,-0.4196734717353954
-0.4188165570817811,-0.4188165570817811
-0.375113909747452,-0.375113909747452
-0.32712668914505144,-0.32712668914505144
-0.29713467626855106,-0.29713467626855106
-0.28171021250349376,-0.28171021250349376
-0.267999578045665,-0.267999578045665
-0.23543682120832177,-0.23543682120832177
-0.18402194199146402,-0.18402194199146402
-0.16088524634387802,-0.16088524634387802
-0.2063017229854357,-0.2063017229854357
-0.25857351685590774,-0.25857351685590774
-0.2088724669462786,-0.2088724669462786
-0.07690761028967703,-0.07690761028967703
-0.023778901765590683,-0.023778901765590683
-0.11546876970232034,-0.11546876970232034
-0.21144321090712148,-0.21144321090712148
-0.17545279545532105,-0.17545279545532105
-0.07862143959690562,-0.07862143959690562
-0.07433686632883414,-0.07433686632883414
-0.1660267342655638,-0.1660267342655638
-0.2320091625938646,-0.2320091625938646
-0.2080155522926643,-0.2080155522926643
-0.123181001584849,-0.123181001584849
-0.03491879226257653,-0.03491879226257653
0.004499281803681083,0.004499281803681083
-0.038346450877033714,-0.038346450877033714
-0.11461185504870605,-0.11461185504870605
-0.11289802574147745,-0.11289802574147745
-0.00921135265414765,-0.00921135265414765
0.07390936874643905,0.07390936874643905
0.029349806758495665,0.029349806758495665
-0.09233207405473436,-0.09233207405473436
-0.15745758772942084,-0.15745758772942084
-0.13346397742822055,-0.13346397742822055
-0.10604270851256309,-0.10604270851256309
-0.14631769723243498,-0.14631769723243498
-0.21829852813603584,-0.21829852813603584
-0.2500043703197648,-0.2500043703197648
-0.23543682120832177,-0.23543682120832177
-0.23372299190109316,-0.23372299190109316
-0.28171021250349376,-0.28171021250349376
-0.34255115291010874,-0.34255115291010874
-0.35968944598239466,-0.35968944598239466
-0.3305543477595086,-0.3305543477595086
-0.2919931883468653,-0.2919931883468653
-0.2671426633920507,-0.2671426633920507
-0.26028734616313637,-0.26028734616313637
-0.282567127157108,-0.282567127157108
-0.33826657964203727,-0.33826657964203727
-0.39996443470226656,-0.39996443470226656
-0.4290995329251526,-0.4290995329251526
-0.412818154506481,-0.412818154506481
-0.366544763211309,-0.366544763211309
-0.314272969340837,-0.314272969340837
-0.27999638319626513,-0.27999638319626513
-0.28685170042517955,-0.28685170042517955
-0.3262697744914371,-0.3262697744914371
-0.36483093390408045,-0.36483093390408045
-0.38368305628359495,-0.38368305628359495
-0.4042490079703381,-0.4042490079703381
-0.4462378259974386,-0.4462378259974386
-0.49593887590706776,-0.49593887590706776
-0.5207894008618823,-0.5207894008618823
-0.5070787664040536,-0.5070787664040536
-0.4436670820365957,-0.4436670820365957
-0.32884051845228,-0.32884051845228
-0.19773257644929274,-0.19773257644929274
-0.123181001584849,-0.123181001584849
-0.14631769723243498,-0.14631769723243498
-0.21487086952157866,-0.21487086952157866
-0.2577166022022935,-0.2577166022022935
-0.23629373586193606,-0.23629373586193606
-0.2063017229854357,-0.2063017229854357
-0.22344001605772162,-0.22344001605772162
-0.267999578045665,-0.267999578045665
-0.2705703220065079,-0.2705703220065079
-0.2277245893257931,-0.2277245893257931
-0.21829852813603584,-0.21829852813603584
-0.26028734616313637,-0.26028734616313637
-0.28685170042517955,-0.28685170042517955
-0.291136273693251,-0.291136273693251
-0.32884051845228,-0.32884051845228
-0.3331250917203515,-0.3331250917203515
-0.17630971010893534,-0.17630971010893534
0.05591416102053884,0.05591416102053884
0.1690268952976259,0.1690268952976259
0.35069280186385665,0.35069280186385665
1.1236298194239516,1.1236298194239516
2.522971448776097,2.522971448776097
3.702086012149368,3.702086012149368
3.7543578060198404,3.7543578060198404
2.7209187337609992,2.7209187337609992
1.4364036679931695,1.4364036679931695
0.5426416842734588,0.5426416842734588
0.013925342993438339,0.013925342993438339
-0.41367506916009533,-0.41367506916009533
-0.7307334909973848,-0.7307334909973848
-0.7273058323829277,-0.7273058323829277
-0.39225220281973794,-0.39225220281973794
-0.03320496295534794,-0.03320496295534794
0.04991575844523877,0.04991575844523877
-0.12832248950653477,-0.12832248950653477
-0.31941445726252277,-0.31941445726252277
-0.36226018994323755,-0.36226018994323755
-0.29970542022939395,-0.29970542022939395
-0.2294384186330217,-0.2294384186330217
-0.17202513684086387,-0.17202513684086387
-0.11718259900954893,-0.11718259900954893
-0.08547675682581998,-0.08547675682581998
-0.08976133009389146,-0.08976133009389146
-0.1034719645517202,-0.1034719645517202
-0.07347995167521984,-0.07347995167521984
-0.025492731072819273,-0.025492731072819273
-0.014352840575833426,-0.014352840575833426
-0.06662463444630548,-0.06662463444630548
-0.13003631881376337,-0.13003631881376337
-0.14888844119327788,-0.14888844119327788
-0.13260706277460627,-0.13260706277460627
-0.11803951366316323,-0.11803951366316323
-0.10175813524449161,-0.10175813524449161
-0.05891240256377681,-0.05891240256377681
-0.0006422061180046917,-0.0006422061180046917
0.03192055071933855,0.03192055071933855
0.036205123987410034,0.036205123987410034
0.05077267309885306,0.05077267309885306
0.09961680835486793,0.09961680835486793
0.15788700480064005,0.15788700480064005
0.1930205055988262,0.1930205055988262
0.22729709174339802,0.22729709174339802
0.3147023864120562,0.3147023864120562
0.44409649910781485,0.44409649910781485
0.5417847696198446,0.5417847696198446
0.5717767824963449,0.5717767824963449
0.5803459290324878,0.5803459290324878
0.5991980514120024,0.5991980514120024
0.5940565634903167,0.5940565634903167
0.5452124282343017,0.5452124282343017
0.51693424466503,0.51693424466503
0.5529246601168304,0.5529246601168304
0.5914858195294738,0.5914858195294738
0.5477831721951446,0.5477831721951446
0.4372411818789005,0.4372411818789005
0.334411423445185,0.334411423445185
0.259002933927127,0.259002933927127
0.17159763925846877,0.17159763925846877
0.0644833075566818,0.0644833075566818
-0.01349592592221913,-0.01349592592221913
-0.02806347503366216,-0.02806347503366216
-0.004926779386076171,-0.004926779386076171
0.001928537842838196,0.001928537842838196
-0.03748953622341942,-0.03748953622341942
-0.11118419643424886,-0.11118419643424886
-0.19259108852760698,-0.19259108852760698
-0.25428894358783627,-0.25428894358783627
-0.27913946854265087,-0.27913946854265087
-0.2517181996269934,-0.2517181996269934
-0.17630971010893534,-0.17630971010893534
-0.09233207405473436,-0.09233207405473436
-0.06319697583184829,-0.06319697583184829
-0.10689962316617738,-0.10689962316617738
-0.15745758772942084,-0.15745758772942084
-0.14117620931074923,-0.14117620931074923
-0.08804750078666287,-0.08804750078666287
-0.09147515940112005,-0.09147515940112005
-0.1660267342655638,-0.1660267342655638
-0.2080155522926643,-0.2080155522926643
-0.16088524634387802,-0.16088524634387802
-0.11118419643424886,-0.11118419643424886
-0.15402992911496366,-0.15402992911496366
-0.23886447982277895,-0.23886447982277895
-0.2500043703197648,-0.2500043703197648
-0.17202513684086387,-0.17202513684086387
-0.09404590336196295,-0.09404590336196295
-0.07347995167521984,-0.07347995167521984
-0.07776452494329132,-0.07776452494329132
-0.05976931721739111,-0.05976931721739111
-0.02206507245836209,-0.02206507245836209
0.0036423671500667876,0.0036423671500667876
-0.0006422061180046917,-0.0006422061180046917
-0.018637413843904906,-0.018637413843904906
-0.024635816419204978,-0.024635816419204978
-0.008354438000533355,-0.008354438000533355
0.013068428339824042,0.013068428339824042
0.01563917230066693,0.01563917230066693
-0.010068267307761947,-0.010068267307761947
-0.047772512066790965,-0.047772512066790965
-0.0614831465246197,-0.0614831465246197
-0.03234804830173364,-0.03234804830173364
0.0010716231892239,0.0010716231892239
-0.012639011268604835,-0.012639011268604835
-0.0846198421722057,-0.0846198421722057
-0.13860546534990634,-0.13860546534990634
-0.13346397742822055,-0.13346397742822055
-0.10775653781979168,-0.10775653781979168
-0.11289802574147745,-0.11289802574147745
-0.13175014812099198,-0.13175014812099198
-0.13260706277460627,-0.13260706277460627
-0.13260706277460627,-0.13260706277460627
-0.14117620931074923,-0.14117620931074923
-0.123181001584849,-0.123181001584849
-0.07862143959690562,-0.07862143959690562
-0.06662463444630548,-0.06662463444630548
-0.09318898870834864,-0.09318898870834864
-0.09833047663003443,-0.09833047663003443
-0.07347995167521984,-0.07347995167521984
0.023351404183195593,0.023351404183195593
0.4775161705987724,0.4775161705987724
1.5666546953425424,1.5666546953425424
2.957427178158545,2.957427178158545
3.7252227077969544,3.7252227077969544
3.2839116611855914,3.2839116611855914
2.055096047902691,2.055096047902691
0.9385362542432636,0.9385362542432636
0.35069280186385665,0.35069280186385665
0.07390936874643905,0.07390936874643905
-0.14888844119327788,-0.14888844119327788
-0.25943043150952205,-0.25943043150952205
-0.14203312396436352,-0.14203312396436352
0.07562319805366764,0.07562319805366764
0.14074871172835413,0.14074871172835413
-0.0194943284975192,-0.0194943284975192
-0.2268676746721788,-0.2268676746721788
-0.30313307884385116,-0.30313307884385116
-0.26457191943120784,-0.26457191943120784
-0.24314905309085044,-0.24314905309085044
-0.28428095646433665,-0.28428095646433665
-0.3365527503348087,-0.3365527503348087
-0.3759708244010663,-0.3759708244010663
-0.4350979355004527,-0.4350979355004527
-0.5027941931359822,-0.5027941931359822
-0.5293585473980253,-0.5293585473980253
-0.4916543026389963,-0.4916543026389963
-0.45480697253358154,-0.45480697253358154
-0.45223622857273865,-0.45223622857273865
-0.46080537510888164,-0.46080537510888164
-0.42481495965708116,-0.42481495965708116
-0.3391234942956516,-0.3391234942956516
-0.2482905410125362,-0.2482905410125362
-0.19944640575652134,-0.19944640575652134
-0.17973736872339252,-0.17973736872339252
-0.13860546534990634,-0.13860546534990634
-0.049486341374019555,-0.049486341374019555
0.061055648942224615,0.061055648942224615
0.15445934618618287,0.15445934618618287
0.2324385796650838,0.2324385796650838
0.32070078898735627,0.32070078898735627
0.42867203534275755,0.42867203534275755
0.5452124282343017,0.5452124282343017
0.6728927116228318,0.6728927116228318
0.8262804346197908,0.8262804346197908
0.9813819869239784,0.9813819869239784
1.073071854860708,1.073071854860708
1.073071854860708,1.073071854860708
1.0276553782191504,1.0276553782191504
1.00366176791795,1.00366176791795
0.9993771946498786,0.9993771946498786
0.9702420964269926,0.9702420964269926
0.8999750948306202,0.8999750948306202
0.823709690658948,0.823709690658948
0.7645825795595615,0.7645825795595615
0.6960294072704178,0.6960294072704178
0.586344331607788,0.586344331607788
0.46209170683371503,0.46209170683371503
0.37982790008674266,0.37982790008674266
0.3524066311710852,0.3524066311710852
0.3164162157192848,0.3164162157192848
0.20158965213496913,0.20158965213496913
0.020780660222352705,0.020780660222352705
-0.13774855069629205,-0.13774855069629205
-0.20972938159989288,-0.20972938159989288
-0.23029533328663598,-0.23029533328663598
-0.2697134073528936,-0.2697134073528936
-0.34340806756372305,-0.34340806756372305
-0.39996443470226656,-0.39996443470226656
-0.42738570361792405,-0.42738570361792405
-0.467660692337796,-0.467660692337796
-0.5473537551239255,-0.5473537551239255
-0.606480866223312,-0.606480866223312
-0.5790595973076544,-0.5790595973076544
-0.48308515610285335,-0.48308515610285335
-0.4145319838137096,-0.4145319838137096
-0.4205303863890097,-0.4205303863890097
-0.45909154580165307,-0.45909154580165307
-0.4668037776841817,-0.4668037776841817
-0.4402394234221385,-0.4402394234221385
-0.4153888984673239,-0.4153888984673239
-0.3965367760878094,-0.3965367760878094
-0.34426498221733737,-0.34426498221733737
-0.24486288239807902,-0.24486288239807902
-0.1454607825788207,-0.1454607825788207
-0.12489483089207759,-0.12489483089207759
-0.1848788566450783,-0.1848788566450783
-0.2551458582414506,-0.2551458582414506
-0.24057830913000755,-0.24057830913000755
-0.17459588080170677,-0.17459588080170677
-0.15060227050050648,-0.15060227050050648
-0.17802353941616395,-0.17802353941616395
-0.17116822218724959,-0.17116822218724959
-0.1240379162384633,-0.1240379162384633
-0.13774855069629205,-0.13774855069629205
-0.20458789367820712,-0.20458789367820712
-0.20201714971736423,-0.20201714971736423
-0.14374695327159212,-0.14374695327159212
-0.19259108852760698,-0.19259108852760698
-0.3039899934974654,-0.3039899934974654
-0.21144321090712148,-0.21144321090712148
0.12446733330968252,0.12446733330968252
0.43124277930360044,0.43124277930360044
0.7234506761860753,0.7234506761860753
1.5109552428576132,1.5109552428576132
3.021695777179617,3.021695777179617
4.513584189122106,4.513584189122106
4.8709175996792675,4.8709175996792675
3.7954897093933266,3.7954897093933266
2.073948170282206,2.073948170282206
0.6737496262764461,0.6737496262764461
-0.1009012205908773,-0.1009012205908773
-0.519932486208268,-0.519932486208268
-0.7924313460576141,-0.7924313460576141
-0.8301355908166431,-0.8301355908166431
-0.5901994878046403,-0.5901994878046403
-0.3356958356811944,-0.3356958356811944
-0.3579756166751661,-0.3579756166751661
-0.6004824636480118,-0.6004824636480118
-0.763296247834728,-0.763296247834728
-0.7204505151540133,-0.7204505151540133
-0.6313313911781265,-0.6313313911781265
-0.6518973428648697,-0.6518973428648697
-0.7307334909973848,-0.7307334909973848
-0.7324473203046135,-0.7324473203046135
-0.6364728790998123,-0.6364728790998123
-0.528501632744411,-0.528501632744411
-0.47965749748839615,-0.47965749748839615
-0.4565208018408102,-0.4565208018408102
-0.4196734717353954,-0.4196734717353954
-0.35968944598239466,-0.35968944598239466
-0.3177006279552942,-0.3177006279552942
-0.2885655297324081,-0.2885655297324081
-0.2517181996269934,-0.2517181996269934
-0.2105862962535072,-0.2105862962535072
-0.1874496006059212,-0.1874496006059212
-0.17116822218724959,-0.17116822218724959
-0.123181001584849,-0.123181001584849
-0.03748953622341942,-0.03748953622341942
0.05162958775246736,0.05162958775246736
0.12275350400245391,0.12275350400245391
0.19644816421328337,0.19644816421328337
0.28813803215001305,0.28813803215001305
0.3755433268186712,0.3755433268186712
0.4158183155385431,0.4158183155385431
0.4132475715777002,0.4132475715777002
0.4192459741530003,0.4192459741530003
0.4723746826770866,0.4723746826770866
0.537500196351773,0.537500196351773
0.5640645506138162,0.5640645506138162
0.5614938066529733,0.5614938066529733
0.5974842221047738,0.5974842221047738
0.6960294072704178,0.6960294072704178
0.7894331045143761,0.7894331045143761
0.7740086407493187,0.7740086407493187
0.6326177229029599,0.6326177229029599
0.4483810723758863,0.4483810723758863
0.31213164245121333,0.31213164245121333
0.23586623827954098,0.23586623827954098
0.17416838321931166,0.17416838321931166
0.08762000320426779,0.08762000320426779
-0.023778901765590683,-0.023778901765590683
-0.14203312396436352,-0.14203312396436352
-0.2474336263589219,-0.2474336263589219
-0.31855754260890845,-0.31855754260890845
-0.34854955548540884,-0.34854955548540884
-0.36226018994323755,-0.36226018994323755
-0.39739369074142367,-0.39739369074142367
-0.45737771649442444,-0.45737771649442444
-0.5019372784823678,-0.5019372784823678
-0.4890835586781534,-0.4890835586781534
-0.4290995329251526,-0.4290995329251526
-0.36568784855769476,-0.36568784855769476
-0.3202713719161371,-0.3202713719161371
-0.27828255388903655,-0.27828255388903655
-0.24057830913000755,-0.24057830913000755
-0.23715065051555037,-0.23715065051555037
-0.2851378711179509,-0.2851378711179509
-0.3279836037986657,-0.3279836037986657
-0.28428095646433665,-0.28428095646433665
-0.1480315265396636,-0.1480315265396636
-0.0194943284975192,-0.0194943284975192
-0.005783694039690467,-0.005783694039690467
-0.09233207405473436,-0.09233207405473436
-0.17630971010893534,-0.17630971010893534
-0.2088724669462786,-0.2088724669462786
-0.24143522378362184,-0.24143522378362184
-0.3065607374583083,-0.3065607374583083
-0.3511202994462517,-0.3511202994462517
-0.3348389210275801,-0.3348389210275801
-0.31598679864806556,-0.31598679864806556
-0.3562617873679375,-0.3562617873679375
-0.39225220281973794,-0.39225220281973794
-0.36997242182576623,-0.36997242182576623
-0.31598679864806556,-0.31598679864806556
-0.2937070176540939,-0.2937070176540939
-0.2988485055757797,-0.2988485055757797
-0.3356958356811944,-0.3356958356811944
-0.435954850154067,-0.435954850154067
-0.5559229016600685,-0.5559229016600685
-0.5859149145365689,-0.5859149145365689
-0.5362138646269397,-0.5362138646269397
-0.5722042800787401,-0.5722042800787401
-0.7718653943708711,-0.7718653943708711
-0.9929493750033594,-0.9929493750033594
-1.0709286084822602,-1.0709286084822602
-1.0272259611479313,-1.0272259611479313
-0.8978318484521726,-0.8978318484521726
-0.4496654846118958,-0.4496654846118958
0.6891740900415034,0.6891740900415034
2.431281580839367,2.431281580839367
3.9437359444685995,3.9437359444685995
4.2813603179926325,4.2813603179926325
3.3764584437759355,3.3764584437759355
2.083374231471963,2.083374231471963
1.1690462960655092,1.1690462960655092
0.6189070884451312,0.6189070884451312
0.10218755231571082,0.10218755231571082
-0.32884051845228,-0.32884051845228
-0.3965367760878094,-0.3965367760878094
-0.1668836489191781,-0.1668836489191781
-0.012639011268604835,-0.012639011268604835
-0.09747356197642013,-0.09747356197642013
-0.24657671170530762,-0.24657671170530762
-0.2979915909221654,-0.2979915909221654
-0.30227616419023684,-0.30227616419023684
-0.3691155071721519,-0.3691155071721519
-0.47880058283478183,-0.47880058283478183
-0.5362138646269397,-0.5362138646269397
-0.5010803638287535,-0.5010803638287535
-0.43252719153960983,-0.43252719153960983
-0.4153888984673239,-0.4153888984673239
-0.45480697253358154,-0.45480697253358154
-0.4916543026389963,-0.4916543026389963
-0.4685176069914103,-0.4685176069914103
-0.42824261827153837,-0.42824261827153837
-0.4188165570817811,-0.4188165570817811
-0.44452399669021003,-0.44452399669021003
-0.46166228976249596,-0.46166228976249596
-0.4565208018408102,-0.4565208018408102
-0.45480697253358154,-0.45480697253358154
-0.47794366818116757,-0.47794366818116757
-0.5010803638287535,-0.5010803638287535
-0.4839420707564676,-0.4839420707564676
-0.4119612398528667,-0.4119612398528667
-0.3125591400336084,-0.3125591400336084
-0.21744161348242155,-0.21744161348242155
-0.14631769723243498,-0.14631769723243498
-0.1034719645517202,-0.1034719645517202
-0.07433686632883414,-0.07433686632883414
-0.023778901765590683,-0.023778901765590683
0.07048171013198187,0.07048171013198187
0.19216359094521188,0.19216359094521188
0.3027055812614561,0.3027055812614561
0.3789709854331284,0.3789709854331284
0.43895501118612906,0.43895501118612906
0.5092220127825013,0.5092220127825013
0.5940565634903167,0.5940565634903167
0.655754418550546,0.655754418550546
0.6480421866680173,0.6480421866680173
0.5649214652674306,0.5649214652674306
0.4740885119843152,0.4740885119843152
0.4483810723758863,0.4483810723758863
0.47837308525238664,0.47837308525238664
0.4749454266379295,0.4749454266379295
0.3781140707795141,0.3781140707795141
0.23758006758676956,0.23758006758676956
0.16131466341509723,0.16131466341509723
0.18702210302352612,0.18702210302352612
0.2487199580837554,0.2487199580837554
0.24700612877652683,0.24700612877652683
0.15531626083979716,0.15531626083979716
0.025065233490424187,0.025065233490424187
-0.06833846375353407,-0.06833846375353407
-0.09747356197642013,-0.09747356197642013
-0.1034719645517202,-0.1034719645517202
-0.13774855069629205,-0.13774855069629205
-0.2088724669462786,-0.2088724669462786
-0.28342404181072234,-0.28342404181072234
-0.34083732360288016,-0.34083732360288016
-0.38968145885889505,-0.38968145885889505
-0.4428101673829814,-0.4428101673829814
-0.4882266440245391,-0.4882266440245391
-0.5190755715546538,-0.5190755715546538
-0.5379276939341683,-0.5379276939341683
-0.5379276939341683,-0.5379276939341683
-0.49593887590706776,-0.49593887590706776
-0.42395804500346684,-0.42395804500346684
-0.37854156836190916,-0.37854156836190916
-0.4179596424281668,-0.4179596424281668
-0.5010803638287535,-0.5010803638287535
-0.5550659870064542,-0.5550659870064542
-0.5207894008618823,-0.5207894008618823
-0.45309314322635297,-0.45309314322635297
-0.4342410208468384,-0.4342410208468384
-0.45909154580165307,-0.45909154580165307
-0.4342410208468384,-0.4342410208468384
-0.34083732360288016,-0.34083732360288016
-0.267999578045665,-0.267999578045665
-0.24057830913000755,-0.24057830913000755
-0.18145119803062112,-0.18145119803062112
-0.10175813524449161,-0.10175813524449161
-0.10004430593726302,-0.10004430593726302
-0.0811921835577485,-0.0811921835577485
0.17588221252654027,0.17588221252654027
0.6146225151770597,0.6146225151770597
0.9985202799962642,0.9985202799962642
1.5606562927672425,1.5606562927672425
2.89658623775193,2.89658623775193
4.862348453143125,4.862348453143125
6.1922799955525125,6.1922799955525125
5.798099254889936,5.798099254889936
4.045708788248701,4.045708788248701
2.2213374907038643,2.2213374907038643
1.0850686600113082,1.0850686600113082
0.4835145731740724,0.4835145731740724
0.09276149112595355,0.09276149112595355
-0.07776452494329132,-0.07776452494329132
0.0430604412163244,0.0430604412163244
0.26842899511688423,0.26842899511688423
0.3027055812614561,0.3027055812614561
0.08076468597535341,0.08076468597535341
-0.19173417387399266,-0.19173417387399266
-0.30056233488300826,-0.30056233488300826
-0.2517181996269934,-0.2517181996269934
-0.20030332041013563,-0.20030332041013563
-0.22601076001856452,-0.22601076001856452
-0.28171021250349376,-0.28171021250349376
-0.314272969340837,-0.314272969340837
-0.3356958356811944,-0.3356958356811944
-0.3476926408317945,-0.3476926408317945
-0.3476926408317945,-0.3476926408317945
-0.3314112624131229,-0.3314112624131229
-0.3365527503348087,-0.3365527503348087
-0.34083732360288016,-0.34083732360288016
-0.3262697744914371,-0.3262697744914371
-0.29456393230770817,-0.29456393230770817
-0.27999638319626513,-0.27999638319626513
-0.2902793590396367,-0.2902793590396367
-0.30056233488300826,-0.30056233488300826
-0.2714272366601222,-0.2714272366601222
-0.19858949110290705,-0.19858949110290705
-0.09918739128364872,-0.09918739128364872
0.008783855071752562,0.008783855071752562
0.12875190657775398,0.12875190657775398
0.25985984858074124,0.25985984858074124
0.38239864404758556,0.38239864404758556
0.4835145731740724,0.4835145731740724
0.5837735876469451,0.5837735876469451
0.7080262124210179,0.7080262124210179
0.8459894716529196,0.8459894716529196
0.9531038033547066,0.9531038033547066
1.0019479386107215,1.0019479386107215
1.012230914454093,1.012230914454093
1.0233708049510788,1.0233708049510788
1.0533628178275791,1.0533628178275791
1.075642598821551,1.075642598821551
1.0516489885203506,1.0516489885203506
0.974526669695064,0.974526669695064
0.8914059482944773,0.8914059482944773
0.8434187276920767,0.8434187276920767
0.8117128855083477,0.8117128855083477
0.7328767373758326,0.7328767373758326
0.5880581609150165,0.5880581609150165
0.43895501118612906,0.43895501118612906
0.34726514324939944,0.34726514324939944
0.3078470691831418,0.3078470691831418
0.265001336502427,0.265001336502427
0.19559124955966906,0.19559124955966906
0.11161361350546807,0.11161361350546807
0.03363438002656714,0.03363438002656714
-0.03663262156980512,-0.03663262156980512
-0.09747356197642013,-0.09747356197642013
-0.15317301446134937,-0.15317301446134937
-0.19773257644929274,-0.19773257644929274
-0.21487086952157866,-0.21487086952157866
-0.18145119803062112,-0.18145119803062112
-0.12061025762400612,-0.12061025762400612
-0.08376292751859139,-0.08376292751859139
-0.1009012205908773,-0.1009012205908773
-0.12746557485292048,-0.12746557485292048
-0.1266086601993062,-0.1266086601993062
-0.10261504989810591,-0.10261504989810591
-0.11204111108786316,-0.11204111108786316
-0.13774855069629205,-0.13774855069629205
-0.15060227050050648,-0.15060227050050648
-0.1240379162384633,-0.1240379162384633
-0.04348793879871949,-0.04348793879871949
0.10047372300848223,0.10047372300848223
0.21530028659279787,0.21530028659279787
0.1930205055988262,0.1930205055988262
0.12275350400245391,0.12275350400245391
0.19816199352051195,0.19816199352051195
0.3532635458246995,0.3532635458246995
0.3369821674060279,0.3369821674060279
0.2110157133247264,0.2110157133247264
0.334411423445185,0.334411423445185
0.7320198227222182,0.7320198227222182
1.049935159213122,1.049935159213122
1.3892733620443831,1.3892733620443831
2.4415645566827386,2.4415645566827386
4.303640098986604,4.303640098986604
5.79295776696825,5.79295776696825
5.634428556049605,5.634428556049605
3.9840109331884714,3.9840109331884714
2.170779526140621,2.170779526140621
1.1407681124962374,1.1407681124962374
0.7397320546047469,0.7397320546047469
0.40896299830962873,0.40896299830962873
0.01992374556873841,0.01992374556873841
-0.16774056357279238,-0.16774056357279238
-0.05462782929570533,-0.05462782929570533
0.11332744281269666,0.11332744281269666
0.08676308855065348,0.08676308855065348
-0.07262303702160555,-0.07262303702160555
-0.15574375842219226,-0.15574375842219226
-0.1266086601993062,-0.1266086601993062
-0.12146717227762041,-0.12146717227762041
-0.17973736872339252,-0.17973736872339252
-0.2105862962535072,-0.2105862962535072
-0.16774056357279238,-0.16774056357279238
-0.12832248950653477,-0.12832248950653477
-0.1403192946571349,-0.1403192946571349
-0.18402194199146402,-0.18402194199146402
-0.2037309790245928,-0.2037309790245928
-0.2088724669462786,-0.2088724669462786
-0.19687566179567845,-0.19687566179567845
-0.1823081126842354,-0.1823081126842354
-0.15745758772942084,-0.15745758772942084
-0.11461185504870605,-0.11461185504870605
-0.055484743949319626,-0.055484743949319626
-0.011782096614990538,-0.011782096614990538
-0.010068267307761947,-0.010068267307761947
-0.046058682759562375,-0.046058682759562375
-0.07433686632883414,-0.07433686632883414
-0.04177410949149089,-0.04177410949149089
0.07476628340005334,0.07476628340005334
0.24614921412291252,0.24614921412291252
0.4166752301921574,0.4166752301921574
0.5554954040776733,0.5554954040776733
0.6574682478577745,0.6574682478577745
0.7080262124210179,0.7080262124210179
0.6977432365776464,0.6977432365776464
0.6643235650866889,0.6643235650866889
0.6788911141981319,0.6788911141981319
0.7397320546047469,0.7397320546047469
0.7620118355987187,0.7620118355987187
0.7071692977674037,0.7071692977674037
0.6394730401318743,0.6394730401318743
0.624048576366817,0.624048576366817
0.6257624056740455,0.6257624056740455
0.5786320997252593,0.5786320997252593
0.4946544636710583,0.4946544636710583
0.42952894999637187,0.42952894999637187
0.38496938800842845,0.38496938800842845
0.3215577036409706,0.3215577036409706
0.24186464085484105,0.24186464085484105
0.1913066762915976,0.1913066762915976
0.1835944444090689,0.1835944444090689
0.16645615133678301,0.16645615133678301
0.09618914974041075,0.09618914974041075
0.001928537842838196,0.001928537842838196
-0.050343256027633856,-0.050343256027633856
-0.05805548791016252,-0.05805548791016252
-0.07347995167521984,-0.07347995167521984
-0.12061025762400612,-0.12061025762400612
-0.14631769723243498,-0.14631769723243498
-0.11975334297039182,-0.11975334297039182
-0.08376292751859139,-0.08376292751859139
-0.09233207405473436,-0.09233207405473436
-0.10861345247340598,-0.10861345247340598
-0.06748154909991977,-0.06748154909991977
0.0224944895295813,0.0224944895295813
0.06619713686391039,0.06619713686391039
0.016496086954281227,0.016496086954281227
-0.0606262318710054,-0.0606262318710054
-0.06319697583184829,-0.06319697583184829
0.009640769725366859,0.009640769725366859
0.07648011270728194,0.07648011270728194
0.09618914974041075,0.09618914974041075
0.1278949919241397,0.1278949919241397
0.20330348144219773,0.20330348144219773
0.26414442184881276,0.26414442184881276
0.24357847016206963,0.24357847016206963
0.20244656678858344,0.20244656678858344
0.21615720124641216,0.21615720124641216
0.27956888561387006,0.27956888561387006
0.34726514324939944,0.34726514324939944
0.40981991296324305,0.40981991296324305
0.43895501118612906,0.43895501118612906
0.3781140707795141,0.3781140707795141
0.25814601927351266,0.25814601927351266
0.19473433490605477,0.19473433490605477
0.19473433490605477,0.19473433490605477
0.15274551687895427,0.15274551687895427
0.08247851528258202,0.08247851528258202
0.14503328499642562,0.14503328499642562
0.3549773751319281,0.3549773751319281
0.5126496713969585,0.5126496713969585
0.5949134781439309,0.5949134781439309
0.99166496276735,0.99166496276735
2.035387010869562,2.035387010869562
3.3541786627819636,3.3541786627819636
3.988295506456543,3.988295506456543
3.337897284363292,3.337897284363292
1.8434381284599601,1.8434381284599601
0.5306448791228587,0.5306448791228587
-0.06405389048546259,-0.06405389048546259
-0.2294384186330217,-0.2294384186330217
-0.3956798614341951,-0.3956798614341951
-0.5130771689793537,-0.5130771689793537
-0.34255115291010874,-0.34255115291010874
-0.008354438000533355,-0.008354438000533355
0.11332744281269666,0.11332744281269666
-0.06405389048546259,-0.06405389048546259
-0.2637150047775935,-0.2637150047775935
-0.27571180992819366,-0.27571180992819366
-0.19773257644929274,-0.19773257644929274
-0.20287406437097852,-0.20287406437097852
-0.2851378711179509,-0.2851378711179509
-0.30484690815107973,-0.30484690815107973
-0.22172618675049302,-0.22172618675049302
-0.1257517455456919,-0.1257517455456919
-0.09833047663003443,-0.09833047663003443
-0.08033526890413421,-0.08033526890413421
-0.0032129500788475795,-0.0032129500788475795
0.1047582962765537,0.1047582962765537
0.13303647984582548,0.13303647984582548
0.06876788082475328,0.06876788082475328
-0.005783694039690467,-0.005783694039690467
-0.023778901765590683,-0.023778901765590683
0.005356196457295379,0.005356196457295379
0.05420033171331025,0.05420033171331025
0.10818595489101089,0.10818595489101089
0.15703009014702576,0.15703009014702576
0.19473433490605477,0.19473433490605477
0.24529229946929823,0.24529229946929823
0.3292699355234992,0.3292699355234992
0.43467043791805765,0.43467043791805765
0.5152204153578014,0.5152204153578014
0.5443555135806875,0.5443555135806875
0.5417847696198446,0.5417847696198446
0.5589230626921304,0.5589230626921304
0.6257624056740455,0.6257624056740455
0.7148815296499323,0.7148815296499323
0.76029800629149,0.76029800629149
0.7268783348005324,0.7268783348005324
0.6497560159752458,0.6497560159752458
0.5906289048758594,0.5906289048758594
0.5683491238818877,0.5683491238818877
0.5554954040776733,0.5554954040776733
0.5289310498156301,0.5289310498156301
0.5040805248608156,0.5040805248608156
0.49808212228551546,0.49808212228551546
0.48522840248130106,0.48522840248130106
0.42610129138191466,0.42610129138191466
0.3301268501771135,0.3301268501771135
0.24786304343014112,0.24786304343014112
0.21444337193918359,0.21444337193918359
0.19901890817412626,0.19901890817412626
0.15188860222533998,0.15188860222533998
0.06962479547836757,0.06962479547836757
0.004499281803681083,0.004499281803681083
-0.021208157804747794,-0.021208157804747794
-0.044344853452333785,-0.044344853452333785
-0.11118419643424886,-0.11118419643424886
-0.20201714971736423,-0.20201714971736423
-0.2551458582414506,-0.2551458582414506
-0.23286607724747888,-0.23286607724747888
-0.15660067307580655,-0.15660067307580655
-0.06833846375353407,-0.06833846375353407
-0.00921135265414765,-0.00921135265414765
0.007070025764523972,0.007070025764523972
0.002785452496452492,0.002785452496452492
0.01135459903259545,0.01135459903259545
0.020780660222352705,0.020780660222352705
-0.0032129500788475795,-0.0032129500788475795
-0.046058682759562375,-0.046058682759562375
-0.04263102414510519,-0.04263102414510519
0.019066830915124115,0.019066830915124115
0.061055648942224615,0.061055648942224615
0.02763597745126707,0.02763597745126707
-0.020351243151133496,-0.020351243151133496
0.007070025764523972,0.007070025764523972
0.10133063766209652,0.10133063766209652
0.1647423220295544,0.1647423220295544
0.1476040289572685,0.1476040289572685
0.10304446696932511,0.10304446696932511
0.11247052815908237,0.11247052815908237
0.17074072460485448,0.17074072460485448
0.19816199352051195,0.19816199352051195
0.14246254103558273,0.14246254103558273
0.04905884379162447,0.04905884379162447
-0.03149113364811935,-0.03149113364811935
-0.08376292751859139,-0.08376292751859139
-0.07776452494329132,-0.07776452494329132
0.018209916261509817,0.018209916261509817
0.12189658934883962,0.12189658934883962
0.08933383251149637,0.08933383251149637
-0.047772512066790965,-0.047772512066790965
-0.0829060128649771,-0.0829060128649771
0.029349806758495665,0.029349806758495665
0.09875989370125363,0.09875989370125363
0.047345014484395875,0.047345014484395875
0.039632782601867214,0.039632782601867214
0.1261811626169111,0.1261811626169111
0.11932584538799673,0.11932584538799673
0.05334341705969595,0.05334341705969595
0.4021076810807144,0.4021076810807144
1.4398313266076266,1.4398313266076266
2.6146613167128265,2.6146613167128265
2.9677101540019164,2.9677101540019164
2.173350270101464,2.173350270101464
0.8759814845294199,0.8759814845294199
-0.03320496295534794,-0.03320496295534794
-0.2688564926992793,-0.2688564926992793
-0.17973736872339252,-0.17973736872339252
-0.12746557485292048,-0.12746557485292048
-0.09747356197642013,-0.09747356197642013
0.05591416102053884,0.05591416102053884
0.2538614460054412,0.2538614460054412
0.2778550563066415,0.2778550563066415
0.11418435746631096,0.11418435746631096
-0.03663262156980512,-0.03663262156980512
-0.0409171948378766,-0.0409171948378766
0.024208318836809888,0.024208318836809888
0.025065233490424187,0.025065233490424187
-0.07347995167521984,-0.07347995167521984
-0.2088724669462786,-0.2088724669462786
-0.3014192495366226,-0.3014192495366226
-0.3074176521119226,-0.3074176521119226
-0.25600277289506485,-0.25600277289506485
-0.21315704021435009,-0.21315704021435009
-0.2320091625938646,-0.2320091625938646
-0.28171021250349376,-0.28171021250349376
-0.32284211587698,-0.32284211587698
-0.32969743310589433,-0.32969743310589433
-0.30484690815107973,-0.30484690815107973
-0.26542883408482215,-0.26542883408482215
-0.23286607724747888,-0.23286607724747888
-0.2088724669462786,-0.2088724669462786
-0.1848788566450783,-0.1848788566450783
-0.13432089208183484,-0.13432089208183484
-0.04520176810594808,-0.04520176810594808
0.06534022221029609,0.06534022221029609
0.14503328499642562,0.14503328499642562
0.17673912718015455,0.17673912718015455
0.22644017708978373,0.22644017708978373
0.36354652166807105,0.36354652166807105
0.5289310498156301,0.5289310498156301
0.5931996488367023,0.5931996488367023
0.5469262575415303,0.5469262575415303
0.537500196351773,0.537500196351773
0.6497560159752458,0.6497560159752458
0.76029800629149,0.76029800629149
0.7097400417282466,0.7097400417282466
0.548640086848759,0.548640086848759
0.4920837197102154,0.4920837197102154
0.63861612547826,0.63861612547826
0.8399910690776196,0.8399910690776196
0.8914059482944773,0.8914059482944773
0.774865555402933,0.774865555402933
0.6506129306288602,0.6506129306288602
0.6214778324059741,0.6214778324059741
0.6163363444842883,0.6163363444842883
0.5280741351620158,0.5280741351620158
0.36526035097529963,0.36526035097529963
0.20158965213496913,0.20158965213496913
0.06962479547836757,0.06962479547836757
-0.018637413843904906,-0.018637413843904906
-0.027206560380047866,-0.027206560380047866
0.02849289210488137,0.02849289210488137
0.04477427052355299,0.04477427052355299
-0.055484743949319626,-0.055484743949319626
-0.19516183248844987,-0.19516183248844987
-0.23972139447639323,-0.23972139447639323
-0.17973736872339252,-0.17973736872339252
-0.14117620931074923,-0.14117620931074923
-0.20116023506374994,-0.20116023506374994
-0.29713467626855106,-0.29713467626855106
-0.3151298839944513,-0.3151298839944513
-0.23715065051555037,-0.23715065051555037
-0.1471746118860493,-0.1471746118860493
-0.12489483089207759,-0.12489483089207759
-0.15317301446134937,-0.15317301446134937
-0.17373896614809245,-0.17373896614809245
-0.1668836489191781,-0.1668836489191781
-0.16945439288002098,-0.16945439288002098
-0.18402194199146402,-0.18402194199146402
-0.16774056357279238,-0.16774056357279238
-0.09404590336196295,-0.09404590336196295
-0.011782096614990538,-0.011782096614990538
0.004499281803681083,0.004499281803681083
-0.052057085334862446,-0.052057085334862446
-0.10861345247340598,-0.10861345247340598
-0.09918739128364872,-0.09918739128364872
-0.020351243151133496,-0.020351243151133496
0.07648011270728194,0.07648011270728194
0.15531626083979716,0.15531626083979716
0.21530028659279787,0.21530028659279787
0.28471037353555584,0.28471037353555584
0.3369821674060279,0.3369821674060279
0.34469439928855655,0.34469439928855655
0.3592619483999996,0.3592619483999996
0.4458103284150434,0.4458103284150434
0.525503391201173,0.525503391201173
0.4500949016831149,0.4500949016831149
0.2898518614572416,0.2898518614572416
0.26328750719519844,0.26328750719519844
0.34469439928855655,0.34469439928855655
0.26928590977049854,0.26928590977049854
0.043917355869938696,0.043917355869938696
0.023351404183195593,0.023351404183195593
0.3147023864120562,0.3147023864120562
0.5640645506138162,0.5640645506138162
0.6523267599360887,0.6523267599360887
1.1004931237763655,1.1004931237763655
2.3027443827972225,2.3027443827972225
3.6446727303572106,3.6446727303572106
3.959160408233657,3.959160408233657
2.8331745533844717,2.8331745533844717
1.0799271720896224,1.0799271720896224
-0.17888045406977823,-0.17888045406977823
-0.6056239515696976,-0.6056239515696976
-0.6407574523678837,-0.6407574523678837
-0.6690356359371555,-0.6690356359371555
-0.5970548050335547,-0.5970548050335547
-0.2954208469613225,-0.2954208469613225
-0.015209755229447721,-0.015209755229447721
-0.0606262318710054,-0.0606262318710054
-0.314272969340837,-0.314272969340837
-0.4479516553046672,-0.4479516553046672
-0.398250605395038,-0.398250605395038
-0.34597881152456594,-0.34597881152456594
-0.3528341287534803,-0.3528341287534803
-0.33998040894926584,-0.33998040894926584
-0.30827456676553694,-0.30827456676553694
-0.3262697744914371,-0.3262697744914371
-0.34597881152456594,-0.34597881152456594
-0.28085329784987945,-0.28085329784987945
-0.1428900386179778,-0.1428900386179778
-0.03491879226257653,-0.03491879226257653
0.021637574875967,0.021637574875967
0.039632782601867214,0.039632782601867214
0.03020672141210996,0.03020672141210996
0.024208318836809888,0.024208318836809888
0.09447532043318216,0.09447532043318216
0.2718566537313414,0.2718566537313414
0.4732315973307009,0.4732315973307009
0.586344331607788,0.586344331607788
0.592342734183088,0.592342734183088
0.5709198678427306,0.5709198678427306
0.5966273074511595,0.5966273074511595
0.6626097357794603,0.6626097357794603
0.7217368468788466,0.7217368468788466
0.768867152827633,0.768867152827633
0.8254235199661765,0.8254235199661765
0.867412337993277,0.867412337993277
0.8365634104631624,0.8365634104631624
0.7628687502523329,0.7628687502523329
0.7560134330234185,0.7560134330234185
0.8434187276920767,0.8434187276920767
0.9016889241378488,0.9016889241378488
0.821138946698105,0.821138946698105
0.6591820771650031,0.6591820771650031
0.5417847696198446,0.5417847696198446
0.4946544636710583,0.4946544636710583
0.4646624507945579,0.4646624507945579
0.42610129138191466,0.42610129138191466
0.3738294975114426,0.3738294975114426
0.27956888561387006,0.27956888561387006
0.14246254103558273,0.14246254103558273
0.041346611909095804,0.041346611909095804
0.045631185177167286,0.045631185177167286
0.11332744281269666,0.11332744281269666
0.13132265053859687,0.13132265053859687
0.05334341705969595,0.05334341705969595
-0.06405389048546259,-0.06405389048546259
-0.13346397742822055,-0.13346397742822055
-0.13089323346737766,-0.13089323346737766
-0.07862143959690562,-0.07862143959690562
-0.012639011268604835,-0.012639011268604835
0.0430604412163244,0.0430604412163244
0.05420033171331025,0.05420033171331025
0.005356196457295379,0.005356196457295379
-0.06662463444630548,-0.06662463444630548
-0.07433686632883414,-0.07433686632883414
0.013925342993438339,0.013925342993438339
0.12446733330968252,0.12446733330968252
0.15274551687895427,0.15274551687895427
0.08247851528258202,0.08247851528258202
-0.012639011268604835,-0.012639011268604835
-0.052057085334862446,-0.052057085334862446
-0.014352840575833426,-0.014352840575833426
0.07305245409282475,0.07305245409282475
0.15274551687895427,0.15274551687895427
0.18273752975545463,0.18273752975545463
0.17588221252654027,0.17588221252654027
0.17502529787292598,0.17502529787292598
0.1861651883699118,0.1861651883699118
0.1698838099512402,0.1698838099512402
0.11932584538799673,0.11932584538799673
0.09276149112595355,0.09276149112595355
0.13303647984582548,0.13303647984582548
0.19816199352051195,0.19816199352051195
0.20587422540304062,0.20587422540304062
0.13903488242112555,0.13903488242112555
0.05334341705969595,0.05334341705969595
0.0010716231892239,0.0010716231892239
-0.014352840575833426,-0.014352840575833426
-0.015209755229447721,-0.015209755229447721
-0.0194943284975192,-0.0194943284975192
-0.02206507245836209,-0.02206507245836209
-0.018637413843904906,-0.018637413843904906
0.002785452496452492,0.002785452496452492
0.018209916261509817,0.018209916261509817
0.007926940418138267,0.007926940418138267
-0.03149113364811935,-0.03149113364811935
-0.06748154909991977,-0.06748154909991977
-0.05719857325654822,-0.05719857325654822
0.029349806758495665,0.029349806758495665
0.1698838099512402,0.1698838099512402
0.2864242028427844,0.2864242028427844
0.30099175195422745,0.30099175195422745
0.2093018840174978,0.2093018840174978
0.06876788082475328,0.06876788082475328
-0.047772512066790965,-0.047772512066790965
-0.09318898870834864,-0.09318898870834864
-0.08804750078666287,-0.08804750078666287
-0.09833047663003443,-0.09833047663003443
-0.03406187760896223,-0.03406187760896223
0.45695021891202925,0.45695021891202925
1.5812222444539854,1.5812222444539854
2.8477421024959146,2.8477421024959146
3.318188247330163,3.318188247330163
2.616375146020055,2.616375146020055
1.3841318741226973,1.3841318741226973
0.48779914644214395,0.48779914644214395
0.11589818677353955,0.11589818677353955
-0.07605069563606273,-0.07605069563606273
-0.23972139447639323,-0.23972139447639323
-0.20030332041013563,-0.20030332041013563
0.08676308855065348,0.08676308855065348
0.348978972556628,0.348978972556628
0.3352683380987993,0.3352683380987993
0.10304446696932511,0.10304446696932511
-0.10175813524449161,-0.10175813524449161
-0.1454607825788207,-0.1454607825788207
-0.09918739128364872,-0.09918739128364872
-0.08890441544027716,-0.08890441544027716
-0.13774855069629205,-0.13774855069629205
-0.18830651525953548,-0.18830651525953548
-0.19858949110290705,-0.19858949110290705
-0.15488684376857795,-0.15488684376857795
-0.04691559741317667,-0.04691559741317667
0.07648011270728194,0.07648011270728194
0.1278949919241397,0.1278949919241397
0.06276947824945321,0.06276947824945321
-0.012639011268604835,-0.012639011268604835
0.002785452496452492,0.002785452496452492
0.08076468597535341,0.08076468597535341
0.1278949919241397,0.1278949919241397
0.14503328499642562,0.14503328499642562
0.20501731074942633,0.20501731074942633
0.32498536225542773,0.32498536225542773
0.42353054742107177,0.42353054742107177
0.42781512068914324,0.42781512068914324
0.3549773751319281,0.3549773751319281
0.29070877611085594,0.29070877611085594
0.2924226054180845,0.2924226054180845
0.34812205790301376,0.34812205790301376
0.41496140088492883,0.41496140088492883
0.48094382921322953,0.48094382921322953
0.5640645506138162,0.5640645506138162
0.6634666504330746,0.6634666504330746
0.7320198227222182,0.7320198227222182
0.7277352494541468,0.7277352494541468
0.6754634555836747,0.6754634555836747
0.647185272014403,0.647185272014403
0.6754634555836747,0.6754634555836747
0.7131677003427037,0.7131677003427037
0.6968863219240321,0.6968863219240321
0.6180501737915169,0.6180501737915169
0.5220757325867158,0.5220757325867158
0.4509518163367292,0.4509518163367292
0.3969661931590286,0.3969661931590286
0.34212365532771366,0.34212365532771366
0.28213962957471295,0.28213962957471295
0.23415240897231238,0.23415240897231238
0.19559124955966906,0.19559124955966906
0.1510316875717257,0.1510316875717257
0.09961680835486793,0.09961680835486793
0.055057246366924543,0.055057246366924543
0.014782257647052634,0.014782257647052634
-0.04520176810594808,-0.04520176810594808
-0.11975334297039182,-0.11975334297039182
-0.1497453558468922,-0.1497453558468922
-0.09147515940112005,-0.09147515940112005
0.0224944895295813,0.0224944895295813
0.11589818677353955,0.11589818677353955
0.1484609436108828,0.1484609436108828
0.13217956519221116,0.13217956519221116
0.10304446696932511,0.10304446696932511
0.09961680835486793,0.09961680835486793
0.1484609436108828,0.1484609436108828
0.22386943312894084,0.22386943312894084
0.26842899511688423,0.26842899511688423
0.2572891046198984,0.2572891046198984
0.2298678357042409,0.2298678357042409
0.22386943312894084,0.22386943312894084
0.21958485986086934,0.21958485986086934
0.17502529787292598,0.17502529787292598
0.09533223508679645,0.09533223508679645
0.03277746537295285,0.03277746537295285
0.009640769725366859,0.009640769725366859
-0.008354438000533355,-0.008354438000533355
-0.05462782929570533,-0.05462782929570533
-0.11632568435593464,-0.11632568435593464
-0.14203312396436352,-0.14203312396436352
-0.12489483089207759,-0.12489483089207759
-0.08976133009389146,-0.08976133009389146
-0.09404590336196295,-0.09404590336196295
-0.13946238000352063,-0.13946238000352063
-0.1634559903047209,-0.1634559903047209
-0.10775653781979168,-0.10775653781979168
-0.03149113364811935,-0.03149113364811935
-0.024635816419204978,-0.024635816419204978
-0.03748953622341942,-0.03748953622341942
0.04820192913801018,0.04820192913801018
0.16217157806871152,0.16217157806871152
0.11675510142715384,0.11675510142715384
-0.04520176810594808,-0.04520176810594808
-0.046058682759562375,-0.046058682759562375
0.1861651883699118,0.1861651883699118
0.4158183155385431,0.4158183155385431
0.6086241126017596,0.6086241126017596
1.188755333098638,1.188755333098638
2.4132863731134666,2.4132863731134666
3.6909461216523822,3.6909461216523822
3.9720141280378716,3.9720141280378716
2.8811617739868725,2.8811617739868725
1.2024659675564666,1.2024659675564666
0.04991575844523877,0.04991575844523877
-0.24057830913000755,-0.24057830913000755
-0.18316502733784973,-0.18316502733784973
-0.23372299190109316,-0.23372299190109316
-0.24314905309085044,-0.24314905309085044
0.06019873428861032,0.06019873428861032
0.470660853369858,0.470660853369858
0.5443555135806875,0.5443555135806875
0.2307247503578552,0.2307247503578552
-0.10175813524449161,-0.10175813524449161
-0.18830651525953548,-0.18830651525953548
-0.11889642831677752,-0.11889642831677752
-0.08804750078666287,-0.08804750078666287
-0.1471746118860493,-0.1471746118860493
-0.23543682120832177,-0.23543682120832177
-0.3099883960727655,-0.3099883960727655
-0.36397401925046613,-0.36397401925046613
-0.4008213493558809,-0.4008213493558809
-0.40767666658479523,-0.40767666658479523
-0.4153888984673239,-0.4153888984673239
-0.4333841061932241,-0.4333841061932241
-0.4376686794612956,-0.4376686794612956
-0.36825859251853765,-0.36825859251853765
-0.24657671170530762,-0.24657671170530762
-0.18402194199146402,-0.18402194199146402
-0.22001235744326444,-0.22001235744326444
-0.2482905410125362,-0.2482905410125362
-0.19430491783483556,-0.19430491783483556
-0.1257517455456919,-0.1257517455456919
-0.11889642831677752,-0.11889642831677752
-0.10518579385894879,-0.10518579385894879
0.01135459903259545,0.01135459903259545
0.1878790176771404,0.1878790176771404
0.30699015452952755,0.30699015452952755
0.36097577770722816,0.36097577770722816
0.42952894999637187,0.42952894999637187
0.5537815747704447,0.5537815747704447
0.6926017486559607,0.6926017486559607
0.8048575682794334,0.8048575682794334
0.8802660577974915,0.8802660577974915
0.9145426439420633,0.9145426439420633
0.9059734974059204,0.9059734974059204
0.8691261673005056,0.8691261673005056
0.8262804346197908,0.8262804346197908
0.7894331045143761,0.7894331045143761
0.7714378967884759,0.7714378967884759
0.774865555402933,0.774865555402933
0.768867152827633,0.768867152827633
0.7088831270746323,0.7088831270746323
0.6060533686409167,0.6060533686409167
0.531501793776473,0.531501793776473
0.5160773300114156,0.5160773300114156
0.5049374395144298,0.5049374395144298
0.42610129138191466,0.42610129138191466
0.2778550563066415,0.2778550563066415
0.1047582962765537,0.1047582962765537
-0.05291399998847674,-0.05291399998847674
-0.15574375842219226,-0.15574375842219226
-0.16774056357279238,-0.16774056357279238
-0.12746557485292048,-0.12746557485292048
-0.14117620931074923,-0.14117620931074923
-0.2637150047775935,-0.2637150047775935
-0.40767666658479523,-0.40767666658479523
-0.4505223992655101,-0.4505223992655101
-0.36825859251853765,-0.36825859251853765
-0.253432028934222,-0.253432028934222
-0.18402194199146402,-0.18402194199146402
-0.2063017229854357,-0.2063017229854357
-0.2739979806209651,-0.2739979806209651
-0.31598679864806556,-0.31598679864806556
-0.26542883408482215,-0.26542883408482215
-0.14117620931074923,-0.14117620931074923
-0.023778901765590683,-0.023778901765590683
0.016496086954281227,0.016496086954281227
0.002785452496452492,0.002785452496452492
0.026779062797652776,0.026779062797652776
0.10218755231571082,0.10218755231571082
0.09447532043318216,0.09447532043318216
-0.08547675682581998,-0.08547675682581998
-0.2637150047775935,-0.2637150047775935
-0.19516183248844987,-0.19516183248844987
0.06276947824945321,0.06276947824945321
0.2787119709602558,0.2787119709602558
0.6274762349812741,0.6274762349812741
1.6686275391226437,1.6686275391226437
3.476717458248808,3.476717458248808
5.110853702691271,5.110853702691271
5.393635538383989,5.393635538383989
4.124544936381216,4.124544936381216
2.234191210508079,2.234191210508079
0.7928607631288332,0.7928607631288332
0.13303647984582548,0.13303647984582548
-0.07862143959690562,-0.07862143959690562
-0.2105862962535072,-0.2105862962535072
-0.3262697744914371,-0.3262697744914371
-0.34597881152456594,-0.34597881152456594
-0.3065607374583083,-0.3065607374583083
-0.32969743310589433,-0.32969743310589433
-0.4376686794612956,-0.4376686794612956
-0.5396415232413969,-0.5396415232413969
-0.5850579998829546,-0.5850579998829546
-0.621048415334755,-0.621048415334755
-0.6767478678196842,-0.6767478678196842
-0.6801755264341414,-0.6801755264341414
-0.5696335361178972,-0.5696335361178972
-0.42138730104262395,-0.42138730104262395
-0.3588325313287804,-0.3588325313287804
-0.3879676295516664,-0.3879676295516664
-0.38625380024443784,-0.38625380024443784
-0.32369903053059423,-0.32369903053059423
-0.28942244438602244,-0.28942244438602244
-0.3536910434070946,-0.3536910434070946
-0.4093904958920238,-0.4093904958920238
-0.33826657964203727,-0.33826657964203727
-0.20116023506374994,-0.20116023506374994
-0.1497453558468922,-0.1497453558468922
-0.20201714971736423,-0.20201714971736423
-0.21658469882880726,-0.21658469882880726
-0.1009012205908773,-0.1009012205908773
0.07648011270728194,0.07648011270728194
0.18702210302352612,0.18702210302352612
0.1913066762915976,0.1913066762915976
0.15360243153256856,0.15360243153256856
0.13817796776751123,0.13817796776751123
0.13389339449943977,0.13389339449943977
0.10133063766209652,0.10133063766209652
0.05334341705969595,0.05334341705969595
0.05934181963499602,0.05934181963499602
0.14074871172835413,0.14074871172835413
0.21787103055364077,0.21787103055364077
0.1930205055988262,0.1930205055988262
0.08162160062896771,0.08162160062896771
-0.004926779386076171,-0.004926779386076171
0.0010716231892239,0.0010716231892239
0.047345014484395875,0.047345014484395875
0.05334341705969595,0.05334341705969595
0.013068428339824042,0.013068428339824042
-0.020351243151133496,-0.020351243151133496
-0.02806347503366216,-0.02806347503366216
-0.03063421899450505,-0.03063421899450505
-0.040060280184262304,-0.040060280184262304
-0.03577570691619082,-0.03577570691619082
-0.015209755229447721,-0.015209755229447721
-0.01778049919029061,-0.01778049919029061
-0.06833846375353407,-0.06833846375353407
-0.13346397742822055,-0.13346397742822055
-0.15574375842219226,-0.15574375842219226
-0.14374695327159212,-0.14374695327159212
-0.15660067307580655,-0.15660067307580655
-0.20458789367820712,-0.20458789367820712
-0.22172618675049302,-0.22172618675049302
-0.17630971010893534,-0.17630971010893534
-0.13175014812099198,-0.13175014812099198
-0.15831450238303513,-0.15831450238303513
-0.21401395486796437,-0.21401395486796437
-0.20458789367820712,-0.20458789367820712
-0.11375494039509175,-0.11375494039509175
-0.02806347503366216,-0.02806347503366216
-0.014352840575833426,-0.014352840575833426
-0.05634165860293393,-0.05634165860293393
-0.08804750078666287,-0.08804750078666287
-0.07690761028967703,-0.07690761028967703
-0.04348793879871949,-0.04348793879871949
-0.01778049919029061,-0.01778049919029061
-0.011782096614990538,-0.011782096614990538
-0.023778901765590683,-0.023778901765590683
-0.05634165860293393,-0.05634165860293393
-0.10261504989810591,-0.10261504989810591
-0.13003631881376337,-0.13003631881376337
-0.11546876970232034,-0.11546876970232034
-0.06491080513907689,-0.06491080513907689
-0.05891240256377681,-0.05891240256377681
-0.14117620931074923,-0.14117620931074923
-0.2705703220065079,-0.2705703220065079
-0.34083732360288016,-0.34083732360288016
-0.30056233488300826,-0.30056233488300826
-0.20201714971736423,-0.20201714971736423
-0.13946238000352063,-0.13946238000352063
-0.1668836489191781,-0.1668836489191781
-0.26285809012397926,-0.26285809012397926
-0.3691155071721519,-0.3691155071721519
-0.43252719153960983,-0.43252719153960983
-0.4402394234221385,-0.4402394234221385
-0.412818154506481,-0.412818154506481
-0.3768277390546806,-0.3768277390546806
-0.28685170042517955,-0.28685170042517955
0.061055648942224615,0.061055648942224615
0.9265394490926634,0.9265394490926634
2.2590417354628936,2.2590417354628936
3.441583957450622,3.441583957450622
3.686661548384311,3.686661548384311
2.8237484921947145,2.8237484921947145
1.4981015230533987,1.4981015230533987
0.4758023412915438,0.4758023412915438
-0.0614831465246197,-0.0614831465246197
-0.36483093390408045,-0.36483093390408045
-0.5670627921570544,-0.5670627921570544
-0.5636351335425972,-0.5636351335425972
-0.34597881152456594,-0.34597881152456594
-0.12146717227762041,-0.12146717227762041
-0.08633367147943428,-0.08633367147943428
-0.2268676746721788,-0.2268676746721788
-0.3931091174733522,-0.3931091174733522
-0.4728021802594818,-0.4728021802594818
-0.4710883509522532,-0.4710883509522532
-0.4599484604552673,-0.4599484604552673
-0.48051441214201046,-0.48051441214201046
-0.5053649370968251,-0.5053649370968251
-0.4890835586781534,-0.4890835586781534
-0.4368117648076813,-0.4368117648076813
-0.38625380024443784,-0.38625380024443784
-0.3793984830155235,-0.3793984830155235
-0.3939660321269665,-0.3939660321269665
-0.3931091174733522,-0.3931091174733522
-0.34854955548540884,-0.34854955548540884
-0.31598679864806556,-0.31598679864806556
-0.35968944598239466,-0.35968944598239466
-0.4436670820365957,-0.4436670820365957
-0.4488085699582815,-0.4488085699582815
-0.34854955548540884,-0.34854955548540884
-0.24400596774446473,-0.24400596774446473
-0.20458789367820712,-0.20458789367820712
-0.1660267342655638,-0.1660267342655638
-0.06919537840714836,-0.06919537840714836
0.02849289210488137,0.02849289210488137
0.0636263929030675,0.0636263929030675
0.09447532043318216,0.09447532043318216
0.19901890817412626,0.19901890817412626
0.3369821674060279,0.3369821674060279
0.4158183155385431,0.4158183155385431
0.4380980965325148,0.4380980965325148
0.4689470240626294,0.4689470240626294
0.5229326472403301,0.5229326472403301
0.5606368919993591,0.5606368919993591
0.5657783799210448,0.5657783799210448
0.5623507213065877,0.5623507213065877
0.5580661480385162,0.5580661480385162
0.5452124282343017,0.5452124282343017
0.5349294523909301,0.5349294523909301
0.5460693428879161,0.5460693428879161
0.5683491238818877,0.5683491238818877
0.5580661480385162,0.5580661480385162
0.4912268050566011,0.4912268050566011
0.40467842504155727,0.40467842504155727
0.3524066311710852,0.3524066311710852
0.32327153294819916,0.32327153294819916
0.2564321899662841,0.2564321899662841
0.1493178582644971,0.1493178582644971
0.08076468597535341,0.08076468597535341
0.0841923445898106,0.0841923445898106
0.0859061738970392,0.0859061738970392
0.017353001607895522,0.017353001607895522
-0.08033526890413421,-0.08033526890413421
-0.13517780673544916,-0.13517780673544916
-0.15660067307580655,-0.15660067307580655
-0.20030332041013563,-0.20030332041013563
-0.26542883408482215,-0.26542883408482215
-0.3151298839944513,-0.3151298839944513
-0.3545479580607089,-0.3545479580607089
-0.4290995329251526,-0.4290995329251526
-0.5267878034371825,-0.5267878034371825
-0.5816303412684973,-0.5816303412684973
-0.5422122672022397,-0.5422122672022397
-0.4496654846118958,-0.4496654846118958
-0.38453997093720926,-0.38453997093720926
-0.3879676295516664,-0.3879676295516664
-0.42224421569623827,-0.42224421569623827
-0.4256718743106955,-0.4256718743106955
-0.3776846537082949,-0.3776846537082949
-0.3099883960727655,-0.3099883960727655
-0.2482905410125362,-0.2482905410125362
-0.1891634299131498,-0.1891634299131498
-0.1240379162384633,-0.1240379162384633
-0.07090920771437696,-0.07090920771437696
-0.05805548791016252,-0.05805548791016252
-0.0811921835577485,-0.0811921835577485
-0.1009012205908773,-0.1009012205908773
-0.08719058613304857,-0.08719058613304857
-0.04177410949149089,-0.04177410949149089
0.010497684378981156,0.010497684378981156
0.07990777132173912,0.07990777132173912
0.16217157806871152,0.16217157806871152
0.21958485986086934,0.21958485986086934
0.2298678357042409,0.2298678357042409
0.2075880547102692,0.2075880547102692
0.1673130659903973,0.1673130659903973
0.10818595489101089,0.10818595489101089
0.08162160062896771,0.08162160062896771
0.13646413846028266,0.13646413846028266
0.18445135906268323,0.18445135906268323
0.08762000320426779,0.08762000320426779
-0.08376292751859139,-0.08376292751859139
-0.11118419643424886,-0.11118419643424886
0.012211513686209747,0.012211513686209747
0.08762000320426779,0.08762000320426779
0.19387742025244048,0.19387742025244048
0.7911469338216047,0.7911469338216047
2.043099242752091,2.043099242752091
3.2813409172247487,3.2813409172247487
3.527275422812052,3.527275422812052
2.541823571155611,2.541823571155611
1.075642598821551,1.075642598821551
0.05334341705969595,0.05334341705969595
-0.28942244438602244,-0.28942244438602244
-0.3391234942956516,-0.3391234942956516
-0.4256718743106955,-0.4256718743106955
-0.4693745216450246,-0.4693745216450246
-0.32198520122336566,-0.32198520122336566
-0.12832248950653477,-0.12832248950653477
-0.14117620931074923,-0.14117620931074923
-0.3356958356811944,-0.3356958356811944
-0.45309314322635297,-0.45309314322635297
-0.3691155071721519,-0.3691155071721519
-0.21829852813603584,-0.21829852813603584
-0.1497453558468922,-0.1497453558468922
-0.1480315265396636,-0.1480315265396636
-0.11975334297039182,-0.11975334297039182
-0.06833846375353407,-0.06833846375353407
-0.05462782929570533,-0.05462782929570533
-0.08804750078666287,-0.08804750078666287
-0.0811921835577485,-0.0811921835577485
-0.0023560354252332837,-0.0023560354252332837
0.08847691785788209,0.08847691785788209
0.09961680835486793,0.09961680835486793
0.047345014484395875,0.047345014484395875
0.009640769725366859,0.009640769725366859
0.017353001607895522,0.017353001607895522
0.043917355869938696,0.043917355869938696
0.0850492592434249,0.0850492592434249
0.15703009014702576,0.15703009014702576
0.24443538481568394,0.24443538481568394
0.2941364347253131,0.2941364347253131
0.2941364347253131,0.2941364347253131
0.2975640933397703,0.2975640933397703
0.36354652166807105,0.36354652166807105
0.48522840248130106,0.48522840248130106
0.5914858195294738,0.5914858195294738
0.6231916617132027,0.6231916617132027
0.5931996488367023,0.5931996488367023
0.5563523187312875,0.5563523187312875
0.537500196351773,0.537500196351773
0.5135065860505728,0.5135065860505728
0.4586640482192579,0.4586640482192579
0.380684814740357,0.380684814740357
0.32327153294819916,0.32327153294819916
0.3241284476018135,0.3241284476018135
0.38325555870119987,0.38325555870119987
0.4380980965325148,0.4380980965325148
0.418389059499386,0.418389059499386
0.3215577036409706,0.3215577036409706
0.21958485986086934,0.21958485986086934
0.15617317549341145,0.15617317549341145
0.10904286954462518,0.10904286954462518
0.047345014484395875,0.047345014484395875
-0.010068267307761947,-0.010068267307761947
-0.040060280184262304,-0.040060280184262304
-0.05120017068124815,-0.05120017068124815
-0.050343256027633856,-0.050343256027633856
-0.01778049919029061,-0.01778049919029061
0.02849289210488137,0.02849289210488137
0.026779062797652776,0.026779062797652776
-0.04520176810594808,-0.04520176810594808
-0.11461185504870605,-0.11461185504870605
-0.11032728178063457,-0.11032728178063457
-0.05634165860293393,-0.05634165860293393
-0.03406187760896223,-0.03406187760896223
-0.04691559741317667,-0.04691559741317667
-0.03234804830173364,-0.03234804830173364
0.03449129468018144,0.03449129468018144
0.07905085666812482,0.07905085666812482
0.03020672141210996,0.03020672141210996
-0.06919537840714836,-0.06919537840714836
-0.09747356197642013,-0.09747356197642013
-0.018637413843904906,-0.018637413843904906
0.07048171013198187,0.07048171013198187
0.07219553943921046,0.07219553943921046
0.014782257647052634,0.014782257647052634
-0.010925181961376243,-0.010925181961376243
0.012211513686209747,0.012211513686209747
0.020780660222352705,0.020780660222352705
-0.018637413843904906,-0.018637413843904906
-0.06833846375353407,-0.06833846375353407
-0.06662463444630548,-0.06662463444630548
-0.00921135265414765,-0.00921135265414765
0.07905085666812482,0.07905085666812482
0.1467471143036542,0.1467471143036542
0.1724545539120831,0.1724545539120831
0.16302849272232584,0.16302849272232584
0.13903488242112555,0.13903488242112555
0.12361041865606821,0.12361041865606821
0.1253242479632968,0.1253242479632968
0.12446733330968252,0.12446733330968252
0.07990777132173912,0.07990777132173912
-0.014352840575833426,-0.014352840575833426
-0.10261504989810591,-0.10261504989810591
-0.13946238000352063,-0.13946238000352063
-0.10689962316617738,-0.10689962316617738
0.03706203864102433,0.03706203864102433
0.3129885571048276,0.3129885571048276
0.6231916617132027,0.6231916617132027
0.936822424936035,0.936822424936035
1.5263797066226705,1.5263797066226705
2.628371951170655,2.628371951170655
3.7577854646342974,3.7577854646342974
3.8966056385198136,3.8966056385198136
2.674645342465827,2.674645342465827
0.9411069982041065,0.9411069982041065
-0.20715863763905001,-0.20715863763905001
-0.5559229016600685,-0.5559229016600685
-0.574775024039583,-0.574775024039583
-0.5310723767052539,-0.5310723767052539
-0.34255115291010874,-0.34255115291010874
-0.040060280184262304,-0.040060280184262304
0.1458901996500399,0.1458901996500399
0.12189658934883962,0.12189658934883962
0.007926940418138267,0.007926940418138267
-0.08719058613304857,-0.08719058613304857
-0.13260706277460627,-0.13260706277460627
-0.10689962316617738,-0.10689962316617738
-0.027206560380047866,-0.027206560380047866
0.021637574875967,0.021637574875967
-0.016923584536676313,-0.016923584536676313
-0.06833846375353407,-0.06833846375353407
-0.044344853452333785,-0.044344853452333785
0.055057246366924543,0.055057246366924543
0.1484609436108828,0.1484609436108828
0.19987582282774055,0.19987582282774055
0.18959284698436898,0.18959284698436898
0.1253242479632968,0.1253242479632968
0.03363438002656714,0.03363438002656714
-0.03920336553064801,-0.03920336553064801
-0.0811921835577485,-0.0811921835577485
-0.123181001584849,-0.123181001584849
-0.1685974782264067,-0.1685974782264067
-0.1617421609974923,-0.1617421609974923
-0.07176612236799125,-0.07176612236799125
0.04648809983078158,0.04648809983078158
0.11418435746631096,0.11418435746631096
0.13989179707473984,0.13989179707473984
0.19987582282774055,0.19987582282774055
0.3301268501771135,0.3301268501771135
0.4646624507945579,0.4646624507945579
0.5272172205084016,0.5272172205084016
0.5409278549662303,0.5409278549662303
0.5966273074511595,0.5966273074511595
0.7123107856890895,0.7123107856890895
0.8108559708547335,0.8108559708547335
0.8417048983848481,0.8417048983848481
0.8451325569993053,0.8451325569993053
0.8485602156137625,0.8485602156137625
0.7997160803577477,0.7997160803577477
0.676320370237289,0.676320370237289
0.5683491238818877,0.5683491238818877
0.5537815747704447,0.5537815747704447
0.5674922092282735,0.5674922092282735
0.4946544636710583,0.4946544636710583
0.34555131394217087,0.34555131394217087
0.22901092105062662,0.22901092105062662
0.19473433490605477,0.19473433490605477
0.18016678579461173,0.18016678579461173
0.11589818677353955,0.11589818677353955
0.01563917230066693,0.01563917230066693
-0.05120017068124815,-0.05120017068124815
-0.052057085334862446,-0.052057085334862446
-0.016066669883062018,-0.016066669883062018
-0.004069864732461875,-0.004069864732461875
-0.03748953622341942,-0.03748953622341942
-0.1009012205908773,-0.1009012205908773
-0.1634559903047209,-0.1634559903047209
-0.21401395486796437,-0.21401395486796437
-0.2500043703197648,-0.2500043703197648
-0.27314106596735077,-0.27314106596735077
-0.28085329784987945,-0.28085329784987945
-0.2714272366601222,-0.2714272366601222
-0.24229213843723613,-0.24229213843723613
-0.20287406437097852,-0.20287406437097852
-0.17459588080170677,-0.17459588080170677
-0.17545279545532105,-0.17545279545532105
-0.18830651525953548,-0.18830651525953548
-0.17459588080170677,-0.17459588080170677
-0.11289802574147745,-0.11289802574147745
-0.04691559741317667,-0.04691559741317667
-0.027206560380047866,-0.027206560380047866
-0.052057085334862446,-0.052057085334862446
-0.053770914642091036,-0.053770914642091036
-0.010068267307761947,-0.010068267307761947
0.045631185177167286,0.045631185177167286
0.04048969725548151,0.04048969725548151
-0.025492731072819273,-0.025492731072819273
-0.04862942672040526,-0.04862942672040526
0.04820192913801018,0.04820192913801018
0.15788700480064005,0.15788700480064005
0.11161361350546807,0.11161361350546807
-0.028920389687276456,-0.028920389687276456
-0.03663262156980512,-0.03663262156980512
0.08247851528258202,0.08247851528258202
0.09276149112595355,0.09276149112595355
0.012211513686209747,0.012211513686209747
0.1493178582644971,0.1493178582644971
0.5177911593186443,0.5177911593186443
0.7774362993637759,0.7774362993637759
0.989094218806507,0.989094218806507
1.7628881510202161,1.7628881510202161
3.1913648785952473,3.1913648785952473
4.233373097390231,4.233373097390231
3.806629599890312,3.806629599890312
2.150213574453878,2.150213574453878
0.5203619032794872,0.5203619032794872
-0.25428894358783627,-0.25428894358783627
-0.36997242182576623,-0.36997242182576623
-0.35968944598239466,-0.35968944598239466
-0.36825859251853765,-0.36825859251853765
-0.2508612849733791,-0.2508612849733791
-0.026349645726433567,-0.026349645726433567
0.061055648942224615,0.061055648942224615
-0.1034719645517202,-0.1034719645517202
-0.30827456676553694,-0.30827456676553694
-0.2937070176540939,-0.2937070176540939
-0.11289802574147745,-0.11289802574147745
-0.04691559741317667,-0.04691559741317667
-0.20458789367820712,-0.20458789367820712
-0.3956798614341951,-0.3956798614341951
-0.4119612398528667,-0.4119612398528667
-0.2988485055757797,-0.2988485055757797
-0.2320091625938646,-0.2320091625938646
-0.2748548952745794,-0.2748548952745794
-0.3117022253799941,-0.3117022253799941
-0.276568724581808,-0.276568724581808
-0.21744161348242155,-0.21744161348242155
-0.20116023506374994,-0.20116023506374994
-0.1857357712986926,-0.1857357712986926
-0.12061025762400612,-0.12061025762400612
-0.06491080513907689,-0.06491080513907689
-0.10604270851256309,-0.10604270851256309
-0.19944640575652134,-0.19944640575652134
-0.2242969307113359,-0.2242969307113359
-0.14631769723243498,-0.14631769723243498
-0.05891240256377681,-0.05891240256377681
-0.044344853452333785,-0.044344853452333785
-0.09404590336196295,-0.09404590336196295
-0.13689163604267773,-0.13689163604267773
-0.10175813524449161,-0.10175813524449161
0.036205123987410034,0.036205123987410034
0.23158166501146948,0.23158166501146948
0.4003938517734858,0.4003938517734858
0.4920837197102154,0.4920837197102154
0.5195049886258729,0.5195049886258729
0.5152204153578014,0.5152204153578014
0.49808212228551546,0.49808212228551546
0.48180074386684385,0.48180074386684385
0.4800869145596153,0.4800869145596153
0.48694223178852963,0.48694223178852963
0.46809010940901513,0.46809010940901513
0.4029645957343287,0.4029645957343287
0.31213164245121333,0.31213164245121333
0.2332954943186981,0.2332954943186981
0.16045774876148294,0.16045774876148294
0.05762799032776743,0.05762799032776743
-0.07862143959690562,-0.07862143959690562
-0.1823081126842354,-0.1823081126842354
-0.1891634299131498,-0.1891634299131498
-0.13517780673544916,-0.13517780673544916
-0.1266086601993062,-0.1266086601993062
-0.20458789367820712,-0.20458789367820712
-0.291136273693251,-0.291136273693251
-0.30056233488300826,-0.30056233488300826
-0.26028734616313637,-0.26028734616313637
-0.25857351685590774,-0.25857351685590774
-0.3177006279552942,-0.3177006279552942
-0.3759708244010663,-0.3759708244010663
-0.3802553976691378,-0.3802553976691378
-0.3502633847926374,-0.3502633847926374
-0.3331250917203515,-0.3331250917203515
-0.35711870202155177,-0.35711870202155177
-0.40339209331672377,-0.40339209331672377
-0.42824261827153837,-0.42824261827153837
-0.40596283727756666,-0.40596283727756666
-0.366544763211309,-0.366544763211309
-0.3562617873679375,-0.3562617873679375
-0.3802553976691378,-0.3802553976691378
-0.40253517866310945,-0.40253517866310945
-0.4102474105456381,-0.4102474105456381
-0.4350979355004527,-0.4350979355004527
-0.47794366818116757,-0.47794366818116757
-0.4685176069914103,-0.4685176069914103
-0.3476926408317945,-0.3476926408317945
-0.15831450238303513,-0.15831450238303513
-0.004926779386076171,-0.004926779386076171
0.04905884379162447,0.04905884379162447
0.01563917230066693,0.01563917230066693
-0.049486341374019555,-0.049486341374019555
-0.11118419643424886,-0.11118419643424886
-0.14203312396436352,-0.14203312396436352
-0.16259907565110662,-0.16259907565110662
-0.20201714971736423,-0.20201714971736423
-0.23629373586193606,-0.23629373586193606
-0.2080155522926643,-0.2080155522926643
-0.1403192946571349,-0.1403192946571349
-0.1428900386179778,-0.1428900386179778
-0.2285815039794074,-0.2285815039794074
-0.28599478577156523,-0.28599478577156523
-0.28171021250349376,-0.28171021250349376
-0.3125591400336084,-0.3125591400336084
-0.3742569950938377,-0.3742569950938377
-0.3314112624131229,-0.3314112624131229
-0.17202513684086387,-0.17202513684086387
-0.008354438000533355,-0.008354438000533355
0.3138454717584419,0.3138454717584419
1.153621832300452,1.153621832300452
2.392720421426724,2.392720421426724
3.200790939785005,3.200790939785005
2.8897309205230153,2.8897309205230153
1.7354668821045587,1.7354668821045587
0.6171932591379026,0.6171932591379026
0.017353001607895522,0.017353001607895522
-0.23800756516916466,-0.23800756516916466
-0.4350979355004527,-0.4350979355004527
-0.5473537551239255,-0.5473537551239255
-0.4368117648076813,-0.4368117648076813
-0.19858949110290705,-0.19858949110290705
-0.11546876970232034,-0.11546876970232034
-0.32112828656975134,-0.32112828656975134
-0.6467558549431839,-0.6467558549431839
-0.8189957003196573,-0.8189957003196573
-0.7684377357564138,-0.7684377357564138
-0.6467558549431839,-0.6467558549431839
-0.6004824636480118,-0.6004824636480118
-0.6116223541449978,-0.6116223541449978
-0.589342573151026,-0.589342573151026
-0.5130771689793537,-0.5130771689793537
-0.43252719153960983,-0.43252719153960983
-0.3965367760878094,-0.3965367760878094
-0.40339209331672377,-0.40339209331672377
-0.4479516553046672,-0.4479516553046672
-0.5087925957112822,-0.5087925957112822
-0.557636730967297,-0.557636730967297
-0.5550659870064542,-0.5550659870064542
-0.5113633396721251,-0.5113633396721251
-0.4899404733317677,-0.4899404733317677
-0.5310723767052539,-0.5310723767052539
-0.5884856584974117,-0.5884856584974117
-0.5842010852293402,-0.5842010852293402
-0.49936653452152496,-0.49936653452152496
-0.38196922697636637,-0.38196922697636637
-0.28085329784987945,-0.28085329784987945
-0.20458789367820712,-0.20458789367820712
-0.1454607825788207,-0.1454607825788207
-0.0846198421722057,-0.0846198421722057
0.004499281803681083,0.004499281803681083
0.1476040289572685,0.1476040289572685
0.3326975941379564,0.3326975941379564
0.5117927567433442,0.5117927567433442
0.6283331496348884,0.6283331496348884
0.6668943090475318,0.6668943090475318
0.661752821125846,0.661752821125846
0.6548975038969316,0.6548975038969316
0.6497560159752458,0.6497560159752458
0.6197640030987455,0.6197640030987455
0.5332156230837016,0.5332156230837016
0.3952523638518,0.3952523638518
0.24100772620122676,0.24100772620122676
0.11332744281269666,0.11332744281269666
0.01992374556873841,0.01992374556873841
-0.0614831465246197,-0.0614831465246197
-0.15574375842219226,-0.15574375842219226
-0.24143522378362184,-0.24143522378362184
-0.26457191943120784,-0.26457191943120784
-0.20458789367820712,-0.20458789367820712
-0.11803951366316323,-0.11803951366316323
-0.09747356197642013,-0.09747356197642013
-0.17802353941616395,-0.17802353941616395
-0.29970542022939395,-0.29970542022939395
-0.37854156836190916,-0.37854156836190916
-0.406819751931181,-0.406819751931181
-0.43938250876852425,-0.43938250876852425
-0.5070787664040536,-0.5070787664040536
-0.5687766214642829,-0.5687766214642829
-0.5876287438437975,-0.5876287438437975
-0.5867718291901831,-0.5867718291901831
-0.6081946955305405,-0.6081946955305405
-0.6373297937534266,-0.6373297937534266
-0.6287606472172836,-0.6287606472172836
-0.5842010852293402,-0.5842010852293402
-0.5627782188889828,-0.5627782188889828
-0.6056239515696976,-0.6056239515696976
-0.6776047824732985,-0.6776047824732985
-0.7007414781208845,-0.7007414781208845
-0.6321883058317408,-0.6321883058317408
-0.5070787664040536,-0.5070787664040536
-0.40510592262395234,-0.40510592262395234
-0.3725431657866091,-0.3725431657866091
-0.3991075200486523,-0.3991075200486523
-0.4316702768859955,-0.4316702768859955
-0.43252719153960983,-0.43252719153960983
-0.3828261416299807,-0.3828261416299807
-0.3331250917203515,-0.3331250917203515
-0.3365527503348087,-0.3365527503348087
-0.36740167786492334,-0.36740167786492334
-0.366544763211309,-0.366544763211309
-0.3742569950938377,-0.3742569950938377
-0.48479898541008193,-0.48479898541008193
-0.6304744765245123,-0.6304744765245123
-0.6510404282112553,-0.6510404282112553
-0.5679197068106686,-0.5679197068106686
-0.5919133171118689,-0.5919133171118689
-0.7298765763437706,-0.7298765763437706
-0.713595197925099,-0.713595197925099
-0.4196734717353954,-0.4196734717353954
-0.09490281801557723,-0.09490281801557723
0.11161361350546807,0.11161361350546807
0.5477831721951446,0.5477831721951446
1.649775416743129,1.649775416743129
3.114242559769961,3.114242559769961
3.8880364919836703,3.8880364919836703
3.216215403550062,3.216215403550062
1.5572286341527852,1.5572286341527852
0.11418435746631096,0.11418435746631096
-0.4702314362986389,-0.4702314362986389
-0.5979117196871689,-0.5979117196871689
-0.826707932202186,-0.826707932202186
-1.0734993524431031,-1.0734993524431031
-0.9912355456961308,-0.9912355456961308
-0.6913154169311272,-0.6913154169311272
-0.5807734266148831,-0.5807734266148831
-0.7487286987232851,-0.7487286987232851
-0.93125151994313,-0.93125151994313
-1.0040892655003453,-1.0040892655003453
-1.0717855231358746,-1.0717855231358746
-1.1729014522623615,-1.1729014522623615
-1.1866120867201904,-1.1866120867201904
-1.0623594619461174,-1.0623594619461174
-0.9183978001389157,-0.9183978001389157
-0.872981323497358,-0.872981323497358
-0.9064009949883155,-0.9064009949883155
-0.9081148242955441,-0.9081148242955441
-0.8344201640847146,-0.8344201640847146
-0.7393026375335278,-0.7393026375335278
-0.7204505151540133,-0.7204505151540133
-0.7727223090244854,-0.7727223090244854
-0.8044281512082143,-0.8044281512082143
-0.7607255038738852,-0.7607255038738852
-0.6861739290094414,-0.6861739290094414
-0.6621803187082411,-0.6621803187082411
-0.7110244539642561,-0.7110244539642561
-0.7830052848678569,-0.7830052848678569
-0.7967159193256856,-0.7967159193256856
-0.7110244539642561,-0.7110244539642561
-0.557636730967297,-0.557636730967297
-0.40853358123840955,-0.40853358123840955
-0.28428095646433665,-0.28428095646433665
-0.16259907565110662,-0.16259907565110662
-0.03320496295534794,-0.03320496295534794
0.06276947824945321,0.06276947824945321
0.11075669885185377,0.11075669885185377
0.1441763703428113,0.1441763703428113
0.18102370044822605,0.18102370044822605
0.17845295648738316,0.17845295648738316
0.12875190657775398,0.12875190657775398
0.09704606439402504,0.09704606439402504
0.13817796776751123,0.13817796776751123
0.19730507886689766,0.19730507886689766
0.1835944444090689,0.1835944444090689
0.07648011270728194,0.07648011270728194
-0.07433686632883414,-0.07433686632883414
-0.22601076001856452,-0.22601076001856452
-0.3348389210275801,-0.3348389210275801
-0.3742569950938377,-0.3742569950938377
-0.37854156836190916,-0.37854156836190916
-0.4428101673829814,-0.4428101673829814
-0.5944840610727118,-0.5944840610727118
-0.742730296147985,-0.742730296147985
-0.7812914555606283,-0.7812914555606283
-0.7204505151540133,-0.7204505151540133
-0.6578957454401697,-0.6578957454401697
-0.6518973428648697,-0.6518973428648697
-0.6733202092052271,-0.6733202092052271
-0.6767478678196842,-0.6767478678196842
-0.6716063798979984,-0.6716063798979984
-0.68188935574137,-0.68188935574137
-0.6801755264341414,-0.6801755264341414
-0.6321883058317408,-0.6321883058317408
-0.6004824636480118,-0.6004824636480118
-0.6947430755455845,-0.6947430755455845
-0.8849781286479581,-0.8849781286479581
-0.9998046922322738,-0.9998046922322738
-0.9646711914340876,-0.9646711914340876
-0.910685568256387,-0.910685568256387
-0.9458190690545731,-0.9458190690545731
-0.9766679965846877,-0.9766679965846877
-0.8806935553798866,-0.8806935553798866
-0.719593600500399,-0.719593600500399
-0.6321883058317408,-0.6321883058317408
-0.6279037325636694,-0.6279037325636694
-0.621048415334755,-0.621048415334755
-0.6013393783016262,-0.6013393783016262
-0.6013393783016262,-0.6013393783016262
-0.6081946955305405,-0.6081946955305405
-0.5884856584974117,-0.5884856584974117
-0.5739181093859687,-0.5739181093859687
-0.6150500127594549,-0.6150500127594549
-0.6698925505907698,-0.6698925505907698
-0.6836031850485986,-0.6836031850485986
-0.664751062669084,-0.664751062669084
-0.67589095316607,-0.67589095316607
-0.7367318935726849,-0.7367318935726849
-0.7881467727895427,-0.7881467727895427
-0.7812914555606283,-0.7812914555606283
-0.7290196616901563,-0.7290196616901563
-0.7161659418859418,-0.7161659418859418
-0.7924313460576141,-0.7924313460576141
-0.92525311736783,-0.92525311736783
-1.0340812783768456,-1.0340812783768456
-1.0906376455153892,-1.0906376455153892
-1.122343487699118,-1.122343487699118
-1.1446232686930897,-1.1446232686930897
-1.0632163765997316,-1.0632163765997316
