ECG,PPG
0.9135953218105999,0.9135953218105999
1.0514575077870472,1.0514575077870472
0.8832189079513827,0.8832189079513827
1.0358798596541152,1.0358798596541152
1.4930838323556666,1.4930838323556666
1.7688082043085613,1.7688082043085613
1.7064976117768338,1.7064976117768338
1.546047836007635,1.546047836007635
1.4315521222305856,1.4315521222305856
1.2859011121876722,1.2859011121876722
1.0966326873725498,1.0966326873725498
0.9509816773296365,0.9509816773296365
0.8528424940921655,0.8528424940921655
0.7219902497755376,0.7219902497755376
0.5482994730933469,0.5482994730933469
0.38161863807097557,0.38161863807097557
0.2429775696878817,0.2429775696878817
0.12848185591083225,0.12848185591083225
0.05994020412593188,0.05994020412593188
0.047478085619586365,0.047478085619586365
0.05994020412593188,0.05994020412593188
0.07863338188545016,0.07863338188545016
0.12147191425101288,0.12147191425101288
0.17365703549633474,0.17365703549633474
0.1822247419694473,0.1822247419694473
0.11913526703107309,0.11913526703107309
0.05994020412593188,0.05994020412593188
0.08953773557850249,0.08953773557850249
0.21260115582866448,0.21260115582866448
0.34189563533199924,0.34189563533199924
0.3956385213906143,0.3956385213906143
0.3356645760788265,0.3356645760788265
0.1822247419694473,0.1822247419694473
-0.0070436828456752806,-0.0070436828456752806
-0.15347357529523512,-0.15347357529523512
-0.23915064002636058,-0.23915064002636058
-0.30535564459132114,-0.30535564459132114
-0.40505259264208526,-0.40505259264208526
-0.5187694240124882,-0.5187694240124882
-0.6153508424366659,-0.6153508424366659
-0.6714303757152208,-0.6714303757152208
-0.7025856719810846,-0.7025856719810846
-0.701806789574438,-0.701806789574438
-0.6737670229351606,-0.6737670229351606
-0.6410539618560035,-0.6410539618560035
-0.628591843349658,-0.628591843349658
-0.6410539618560035,-0.6410539618560035
-0.6893446710680924,-0.6893446710680924
-0.7929360311520895,-0.7929360311520895
-0.9284615699085971,-0.9284615699085971
-1.0063498105732565,-1.0063498105732565
-0.9666268078342802,-0.9666268078342802
-0.7929360311520895,-0.7929360311520895
-0.45412218426082074,-0.45412218426082074
0.09109550039179568,0.09109550039179568
0.7492511340081683,0.7492511340081683
1.340422880652934,1.340422880652934
1.8093100894541843,1.8093100894541843
2.2244544121968195,2.2244544121968195
2.475254547137023,2.475254547137023
2.2244544121968195,2.2244544121968195
1.3474328223127532,1.3474328223127532
0.21260115582866448,0.21260115582866448
-0.6698726109019275,-0.6698726109019275
-1.128634348416772,-1.128634348416772
-1.2960940658457898,-1.2960940658457898
-1.2812953001195047,-1.2812953001195047
-1.11305670028384,-1.11305670028384
-0.8848441551363877,-0.8848441551363877
-0.7220577321472494,-0.7220577321472494
-0.6410539618560035,-0.6410539618560035
-0.5795222517309225,-0.5795222517309225
-0.5187694240124882,-0.5187694240124882
-0.4837197157133914,-0.4837197157133914
-0.4580165962940537,-0.4580165962940537
-0.4206302407750172,-0.4206302407750172
-0.39726376857561935,-0.39726376857561935
-0.44555447778770824,-0.44555447778770824
-0.5491458378717053,-0.5491458378717053
-0.6402750794493569,-0.6402750794493569
-0.6410539618560035,-0.6410539618560035
-0.5662812508179305,-0.5662812508179305
-0.4580165962940537,-0.4580165962940537
-0.36532958990310893,-0.36532958990310893
-0.27497923073210395,-0.27497923073210395
-0.16593569380158063,-0.16593569380158063
-0.031189037451719723,-0.031189037451719723
0.10823091333802076,0.10823091333802076
0.2429775696878817,0.2429775696878817
0.3753875788178028,0.3753875788178028
0.5171441768274831,0.5171441768274831
0.6674684813102759,0.6674684813102759
0.8224660802329483,0.8224660802329483
0.9603282662093956,0.9603282662093956
1.0662562735133325,1.0662562735133325
1.1488178086178715,1.1488178086178715
1.2492936390752822,1.2492936390752822
1.3817036482052034,1.3817036482052034
1.5234602462148836,1.5234602462148836
1.6262727238922345,1.6262727238922345
1.6761211979176165,1.6761211979176165
1.6776789627309097,1.6776789627309097
1.6449659016517528,1.6449659016517528
1.580318661900085,1.580318661900085
1.4930838323556666,1.4930838323556666
1.3965024139314888,1.3965024139314888
1.3100464667937168,1.3100464667937168
1.2391681677888766,1.2391681677888766
1.1877619289502013,1.1877619289502013
1.1340190428915862,1.1340190428915862
1.0358798596541152,1.0358798596541152
0.8380437283658803,0.8380437283658803
0.5482994730933469,0.5482994730933469
0.2593341002274602,0.2593341002274602
0.12147191425101288,0.12147191425101288
0.20013903732231897,0.20013903732231897
0.4260149352498315,0.4260149352498315
0.6378709498577053,0.6378709498577053
0.73055795624865,0.73055795624865
0.7040759544226659,0.7040759544226659
0.6394287146709985,0.6394287146709985
0.6004845943386687,0.6004845943386687
0.6090523008117813,0.6090523008117813
0.6394287146709985,0.6394287146709985
0.6698051285302157,0.6698051285302157
0.6877194238830874,0.6877194238830874
0.7001815423894329,0.7001815423894329
0.6892771886963805,0.6892771886963805
0.6394287146709985,0.6394287146709985
0.5451839434667605,0.5451839434667605
0.4260149352498315,0.4260149352498315
0.2717962187338057,0.2717962187338057
0.05994020412593188,0.05994020412593188
-0.19709099006744443,-0.19709099006744443
-0.42764018243483654,-0.42764018243483654
-0.5826377813575089,-0.5826377813575089
-0.6714303757152208,-0.6714303757152208
-0.747760851566587,-0.747760851566587
-0.8240913274179533,-0.8240913274179533
-0.9136628041823117,-0.9136628041823117
-1.0063498105732565,-1.0063498105732565
-1.0741125799515103,-1.0741125799515103
-1.0367262244324738,-1.0367262244324738
-0.8677087421901627,-0.8677087421901627
-0.6410539618560035,-0.6410539618560035
-0.48294083330674475,-0.48294083330674475
-0.4580165962940537,-0.4580165962940537
-0.5304526601121871,-0.5304526601121871
-0.6410539618560035,-0.6410539618560035
-0.7812527950523906,-0.7812527950523906
-0.9455969828548222,-0.9455969828548222
-1.0608715790385181,-1.0608715790385181
-0.9759733967140394,-0.9759733967140394
-0.5795222517309225,-0.5795222517309225
0.12147191425101288,0.12147191425101288
1.0086189754214845,1.0086189754214845
1.9199113911980008,1.9199113911980008
2.6528397358524467,2.6528397358524467
2.986201405897189,2.986201405897189
2.763441037596263,2.763441037596263
2.0110406327756523,2.0110406327756523
0.9447506180764637,0.9447506180764637
-0.15347357529523512,-0.15347357529523512
-1.0733336975448637,-1.0733336975448637
-1.7073439765551919,-1.7073439765551919
-2.004877055894191,-2.004877055894191
-1.9519130522422226,-1.9519130522422226
-1.6216669118240663,-1.6216669118240663
-1.1893871761352064,-1.1893871761352064
-0.8529099764638773,-0.8529099764638773
-0.701806789574438,-0.701806789574438
-0.6823347294082731,-0.6823347294082731
-0.6714303757152208,-0.6714303757152208
-0.5935421350505613,-0.5935421350505613
-0.4580165962940537,-0.4580165962940537
-0.32716435197742577,-0.32716435197742577
-0.24460281687288674,-0.24460281687288674
-0.22746740392666165,-0.22746740392666165
-0.24460281687288674,-0.24460281687288674
-0.2734214659188107,-0.2734214659188107
-0.27497923073210395,-0.27497923073210395
-0.25472828815929244,-0.25472828815929244
-0.21422640301366952,-0.21422640301366952
-0.18073445952786596,-0.18073445952786596
-0.15347357529523512,-0.15347357529523512
-0.1254338086559577,-0.1254338086559577
-0.09194186517015412,-0.09194186517015412
-0.06935427537740288,-0.06935427537740288
-0.06156545131093692,-0.06156545131093692
-0.044430038364711835,-0.044430038364711835
0.02956379026671468,0.02956379026671468
0.16976262346310175,0.16976262346310175
0.3348856936721799,0.3348856936721799
0.47041123242868743,0.47041123242868743
0.5786758869525641,0.5786758869525641
0.7032970720160193,0.7032970720160193
0.8832189079513827,0.8832189079513827
1.0872860984927906,1.0872860984927906
1.2492936390752822,1.2492936390752822
1.3318551741798215,1.3318551741798215
1.3707992945121512,1.3707992945121512
1.41909000372424,1.41909000372424
1.4930838323556666,1.4930838323556666
1.553836660074101,1.553836660074101
1.553836660074101,1.553836660074101
1.459591888869863,1.459591888869863
1.3100464667937168,1.3100464667937168
1.2033395770831332,1.2033395770831332
1.2189172252160652,1.2189172252160652
1.2796700529344995,1.2796700529344995
1.2189172252160652,1.2189172252160652
0.9657804430559218,0.9657804430559218
0.6698051285302157,0.6698051285302157
0.5194808240474229,0.5194808240474229
0.5482994730933469,0.5482994730933469
0.6176200072848939,0.6176200072848939
0.6090523008117813,0.6090523008117813
0.5124708823876035,0.5124708823876035
0.3956385213906143,0.3956385213906143
0.30918257425284223,0.30918257425284223
0.2733539835470989,0.2733539835470989
0.2842583372401512,0.2842583372401512
0.3348856936721799,0.3348856936721799
0.39252299176402794,0.39252299176402794
0.4260149352498315,0.4260149352498315
0.4119950519301928,0.4119950519301928
0.3652621075313971,0.3652621075313971
0.3013937501863763,0.3013937501863763
0.2429775696878817,0.2429775696878817
0.21493780304860427,0.21493780304860427
0.2429775696878817,0.2429775696878817
0.28581610205344443,0.28581610205344443
0.2429775696878817,0.2429775696878817
0.0420259087730602,0.0420259087730602
-0.27497923073210395,-0.27497923073210395
-0.6052253711502602,-0.6052253711502602
-0.8544677412771705,-0.8544677412771705
-0.9892143976270314,-0.9892143976270314
-1.0063498105732565,-1.0063498105732565
-0.9775311615273325,-0.9775311615273325
-0.9759733967140394,-0.9759733967140394
-1.0320529299925942,-1.0320529299925942
-1.0678815206983376,-1.0678815206983376
-1.0102442226064896,-1.0102442226064896
-0.8848441551363877,-0.8848441551363877
-0.792157148745443,-0.792157148745443
-0.7929360311520895,-0.7929360311520895
-0.8466789172107047,-0.8466789172107047
-0.8848441551363877,-0.8848441551363877
-0.9121050393690185,-0.9121050393690185
-0.9759733967140394,-0.9759733967140394
-1.0538616373786989,-1.0538616373786989
-1.0063498105732565,-1.0063498105732565
-0.6893446710680924,-0.6893446710680924
-0.06156545131093692,-0.06156545131093692
0.7959840784069641,0.7959840784069641
1.7368740256360509,1.7368740256360509
2.5445750813285697,2.5445750813285697
2.955824992037972,2.955824992037972
2.780576450542488,2.780576450542488
2.0414170466348693,2.0414170466348693
0.9813580911888536,0.9813580911888536
-0.09194186517015412,-0.09194186517015412
-0.9580591013611677,-0.9580591013611677
-1.5250854933998887,-1.5250854933998887
-1.7836744524065582,-1.7836744524065582
-1.7688756866802728,-1.7688756866802728
-1.5601352016989856,-1.5601352016989856
-1.2812953001195047,-1.2812953001195047
-1.0507461077521125,-1.0507461077521125
-0.915220568995605,-0.915220568995605
-0.8326590338910659,-0.8326590338910659
-0.7321832034336552,-0.7321832034336552
-0.5950998998638545,-0.5950998998638545
-0.4580165962940537,-0.4580165962940537
-0.3770128260028079,-0.3770128260028079
-0.36688735471640216,-0.36688735471640216
-0.4105047694886114,-0.4105047694886114
-0.4580165962940537,-0.4580165962940537
-0.47515200924027884,-0.47515200924027884
-0.42764018243483654,-0.42764018243483654
-0.34897305936353046,-0.34897305936353046
-0.27497923073210395,-0.27497923073210395
-0.23837175761971396,-0.23837175761971396
-0.21422640301366952,-0.21422640301366952
-0.1908599308142717,-0.1908599308142717
-0.18384998915445233,-0.18384998915445233
-0.20487981413391038,-0.20487981413391038
-0.21422640301366952,-0.21422640301366952
-0.16204128176834767,-0.16204128176834767
-0.031189037451719723,-0.031189037451719723
0.1487327984836437,0.1487327984836437
0.3348856936721799,0.3348856936721799
0.4618435259555749,0.4618435259555749
0.4867677629682659,0.4867677629682659
0.44470811300934976,0.44470811300934976
0.4563913491090487,0.4563913491090487
0.619177772098187,0.619177772098187
0.9135953218105999,0.9135953218105999
1.2290426965024708,1.2290426965024708
1.4627074184964493,1.4627074184964493
1.5678565433937397,1.5678565433937397
1.553836660074101,1.553836660074101
1.472832889782855,1.472832889782855
1.4011757083713683,1.4011757083713683
1.3754725889520307,1.3754725889520307
1.3707992945121512,1.3707992945121512
1.3264029973332951,1.3264029973332951
1.2189172252160652,1.2189172252160652
1.053794155006987,1.053794155006987
0.8528424940921655,0.8528424940921655
0.6261877137580064,0.6261877137580064
0.3956385213906143,0.3956385213906143
0.18689803640932687,0.18689803640932687
0.02956379026671468,0.02956379026671468
-0.07013315778404947,-0.07013315778404947
-0.12231827902937133,-0.12231827902937133
-0.15113692807529533,-0.15113692807529533
-0.18384998915445233,-0.18384998915445233
-0.25472828815929244,-0.25472828815929244
-0.36688735471640216,-0.36688735471640216
-0.46035324351399354,-0.46035324351399354
-0.42764018243483654,-0.42764018243483654
-0.21344752060702293,-0.21344752060702293
0.12147191425101288,0.12147191425101288
0.41744722877671897,0.41744722877671897
0.5482994730933469,0.5482994730933469
0.4906621750014989,0.4906621750014989
0.3348856936721799,0.3348856936721799
0.18300362437609388,0.18300362437609388
0.09109550039179568,0.09109550039179568
0.03891037914647382,0.03891037914647382
-0.031189037451719723,-0.031189037451719723
-0.1737245178680466,-0.1737245178680466
-0.39726376857561935,-0.39726376857561935
-0.6613049044288151,-0.6613049044288151
-0.8848441551363877,-0.8848441551363877
-1.013359752233076,-1.013359752233076
-1.0367262244324738,-1.0367262244324738
-1.0086864577931964,-1.0086864577931964
-0.9759733967140394,-0.9759733967140394
-0.9751945143073928,-0.9751945143073928
-1.0063498105732565,-1.0063498105732565
-1.0538616373786989,-1.0538616373786989
-1.0982579345575547,-1.0982579345575547
-1.1372020548898845,-1.1372020548898845
-1.1893871761352064,-1.1893871761352064
-1.2836319473394444,-1.2836319473394444
-1.4331773694155905,-1.4331773694155905
-1.6193302646041265,-1.6193302646041265
-1.7688756866802728,-1.7688756866802728
-1.7673179218669797,-1.7673179218669797
-1.4947090795406717,-1.4947090795406717
-0.8965273912360867,-0.8965273912360867
-0.031189037451719723,-0.031189037451719723
0.9291729699435318,0.9291729699435318
1.7672504394952682,1.7672504394952682
2.3046793000814185,2.3046793000814185
2.4378681916179863,2.4378681916179863
2.1372195826524005,2.1372195826524005
1.4627074184964493,1.4627074184964493
0.5888013582389698,0.5888013582389698
-0.24460281687288674,-0.24460281687288674
-0.8614776829369899,-0.8614776829369899
-1.2197635899944235,-1.2197635899944235
-1.3622990704107505,-1.3622990704107505
-1.342048127837939,-1.342048127837939
-1.215090295554544,-1.215090295554544
-1.0678815206983376,-1.0678815206983376
-0.9744156319007462,-0.9744156319007462
-0.9455969828548222,-0.9455969828548222
-0.9354715115684165,-0.9354715115684165
-0.915220568995605,-0.915220568995605
-0.9089895097424322,-0.9089895097424322
-0.9455969828548222,-0.9455969828548222
-0.9931088096602645,-0.9931088096602645
-0.9759733967140394,-0.9759733967140394
-0.8692665070034559,-0.8692665070034559
-0.701806789574438,-0.701806789574438
-0.5288948952988939,-0.5288948952988939
-0.36688735471640216,-0.36688735471640216
-0.27264258351216414,-0.27264258351216414
-0.30535564459132114,-0.30535564459132114
-0.4549010666674674,-0.4549010666674674
-0.5795222517309225,-0.5795222517309225
-0.5639446035979907,-0.5639446035979907
-0.42764018243483654,-0.42764018243483654
-0.2773158779520437,-0.2773158779520437
-0.15347357529523512,-0.15347357529523512
-0.027294625418486748,-0.027294625418486748
0.12147191425101288,0.12147191425101288
0.2686806891072193,0.2686806891072193
0.3956385213906143,0.3956385213906143
0.49689323425467163,0.49689323425467163
0.5786758869525641,0.5786758869525641
0.6573430100238702,0.6573430100238702
0.7609343701078674,0.7609343701078674
0.8824400255447361,0.8824400255447361
0.9743481495290344,0.9743481495290344
1.0179655643012437,1.0179655643012437
1.0358798596541152,1.0358798596541152
1.019523329114537,1.019523329114537
0.9439717356698171,0.9439717356698171
0.8645257301918644,0.8645257301918644
0.9135953218105999,0.9135953218105999
1.1005270994057827,1.1005270994057827
1.2492936390752822,1.2492936390752822
1.1971085178299605,1.1971085178299605
0.9743481495290344,0.9743481495290344
0.7001815423894329,0.7001815423894329
0.4563913491090487,0.4563913491090487
0.3247602223857742,0.3247602223857742
0.3956385213906143,0.3956385213906143
0.5817914165791505,0.5817914165791505
0.6090523008117813,0.6090523008117813
0.3185291631326014,0.3185291631326014
-0.09194186517015412,-0.09194186517015412
-0.3076922918112609,-0.3076922918112609
-0.24460281687288674,-0.24460281687288674
-0.07169092259734265,-0.07169092259734265
0.05994020412593188,0.05994020412593188
0.14172285682382435,0.14172285682382435
0.21260115582866448,0.21260115582866448
0.26400739466733975,0.26400739466733975
0.2733539835470989,0.2733539835470989
0.24609309931446807,0.24609309931446807
0.21260115582866448,0.21260115582866448
0.1767725651229211,0.1767725651229211
0.12147191425101288,0.12147191425101288
0.02800602545342149,0.02800602545342149
-0.09194186517015412,-0.09194186517015412
-0.24226616965294695,-0.24226616965294695
-0.42764018243483654,-0.42764018243483654
-0.6161297248433125,-0.6161297248433125
-0.7321832034336552,-0.7321832034336552
-0.7610018524795792,-0.7610018524795792
-0.7929360311520895,-0.7929360311520895
-0.9432603356348823,-0.9432603356348823
-1.1893871761352064,-1.1893871761352064
-1.412926426842779,-1.412926426842779
-1.4947090795406717,-1.4947090795406717
-1.4238307805358315,-1.4238307805358315
-1.2812953001195047,-1.2812953001195047
-1.1917238233551462,-1.1917238233551462
-1.2197635899944235,-1.2197635899944235
-1.2875263593726773,-1.2875263593726773
-1.2501400038536408,-1.2501400038536408
-1.084238051237916,-1.084238051237916
-0.9455969828548222,-0.9455969828548222
-0.9923299272536179,-0.9923299272536179
-1.1893871761352064,-1.1893871761352064
-1.3443847750578788,-1.3443847750578788
-1.2812953001195047,-1.2812953001195047
-0.9284615699085971,-0.9284615699085971
-0.30535564459132114,-0.30535564459132114
0.49689323425467163,0.49689323425467163
1.3100464667937168,1.3100464667937168
1.9206902736046474,1.9206902736046474
2.133325170619168,2.133325170619168
1.8412442681266947,1.8412442681266947
1.0966326873725498,1.0966326873725498
0.12848185591083225,0.12848185591083225
-0.7625596172928724,-0.7625596172928724
-1.378655600950329,-1.378655600950329
-1.7073439765551919,-1.7073439765551919
-1.822618572738888,-1.822618572738888
-1.7688756866802728,-1.7688756866802728
-1.574933967425271,-1.574933967425271
-1.342048127837939,-1.342048127837939
-1.2291101788741827,-1.2291101788741827
-1.3116717139787217,-1.3116717139787217
-1.4791314314077397,-1.4791314314077397
-1.5250854933998887,-1.5250854933998887
-1.3560680111575776,-1.3560680111575776
-1.0678815206983376,-1.0678815206983376
-0.8201969153847204,-0.8201969153847204
-0.6714303757152208,-0.6714303757152208
-0.5873110757973885,-0.5873110757973885
-0.5187694240124882,-0.5187694240124882
-0.4665843027671663,-0.4665843027671663
-0.42764018243483654,-0.42764018243483654
-0.4073892398620251,-0.4073892398620251
-0.39726376857561935,-0.39726376857561935
-0.3925904741357398,-0.3925904741357398
-0.36688735471640216,-0.36688735471640216
-0.3108078214378473,-0.3108078214378473
-0.24460281687288674,-0.24460281687288674
-0.18307110674780575,-0.18307110674780575
-0.09194186517015412,-0.09194186517015412
0.06617126337910464,0.06617126337910464
0.2733539835470989,0.2733539835470989
0.4392559361628236,0.4392559361628236
0.4867677629682659,0.4867677629682659
0.42913046487641787,0.42913046487641787
0.3652621075313971,0.3652621075313971
0.38239752047762215,0.38239752047762215
0.4563913491090487,0.4563913491090487
0.45950687873563506,0.45950687873563506
0.3348856936721799,0.3348856936721799
0.21649556786189747,0.21649556786189747
0.3348856936721799,0.3348856936721799
0.73055795624865,0.73055795624865
1.1877619289502013,1.1877619289502013
1.446350887956871,1.446350887956871
1.4627074184964493,1.4627074184964493
1.3746937065453841,1.3746937065453841
1.3100464667937168,1.3100464667937168
1.2718812288680337,1.2718812288680337
1.2189172252160652,1.2189172252160652
1.127009101231767,1.127009101231767
1.0055034457948981,1.0055034457948981
0.8582946709386917,0.8582946709386917
0.7001815423894329,0.7001815423894329
0.5490783554999935,0.5490783554999935
0.4260149352498315,0.4260149352498315
0.3325490464522401,0.3325490464522401
0.2733539835470989,0.2733539835470989
0.2593341002274602,0.2593341002274602
0.3037303974063161,0.3037303974063161
0.3800608732576824,0.3800608732576824
0.4260149352498315,0.4260149352498315
0.38940746213744154,0.38940746213744154
0.2733539835470989,0.2733539835470989
0.1167986198111333,0.1167986198111333
-0.031189037451719723,-0.031189037451719723
-0.11998163180943154,-0.11998163180943154
-0.09194186517015412,-0.09194186517015412
0.05370914487275912,0.05370914487275912
0.2429775696878817,0.2429775696878817
0.35903104827822435,0.35903104827822435
0.3348856936721799,0.3348856936721799
0.18144585956280068,0.18144585956280068
-0.031189037451719723,-0.031189037451719723
-0.23759287521306738,-0.23759287521306738
-0.39726376857561935,-0.39726376857561935
-0.5140961295726085,-0.5140961295726085
-0.6106775479967863,-0.6106775479967863
-0.7088167312342573,-0.7088167312342573
-0.7929360311520895,-0.7929360311520895
-0.8544677412771705,-0.8544677412771705
-0.8848441551363877,-0.8848441551363877
-0.907431744929139,-0.907431744929139
-0.9455969828548222,-0.9455969828548222
-1.0234852235194816,-1.0234852235194816
-1.128634348416772,-1.128634348416772
-1.201849294641552,-1.201849294641552
-1.1893871761352064,-1.1893871761352064
-1.1146144650971332,-1.1146144650971332
-1.0678815206983376,-1.0678815206983376
-1.0943635225243218,-1.0943635225243218
-1.128634348416772,-1.128634348416772
-1.0655448734783979,-1.0655448734783979
-0.8544677412771705,-0.8544677412771705
-0.5102017175393756,-0.5102017175393756
-0.031189037451719723,-0.031189037451719723
0.5958112998987892,0.5958112998987892
1.3100464667937168,1.3100464667937168
1.9113436847248881,1.9113436847248881
2.133325170619168,2.133325170619168
1.8093100894541843,1.8093100894541843
1.0055034457948981,1.0055034457948981
-0.000812623592502521,-0.000812623592502521
-0.8848441551363877,-0.8848441551363877
-1.457322724021635,-1.457322724021635
-1.7073439765551919,-1.7073439765551919
-1.7112383885884248,-1.7112383885884248
-1.555461907259106,-1.555461907259106
-1.3311437741448866,-1.3311437741448866
-1.128634348416772,-1.128634348416772
-0.9806466911539189,-0.9806466911539189
-0.8544677412771705,-0.8544677412771705
-0.7298465562137154,-0.7298465562137154
-0.6410539618560035,-0.6410539618560035
-0.6145719600300193,-0.6145719600300193
-0.6106775479967863,-0.6106775479967863
-0.5896477230173283,-0.5896477230173283
-0.5795222517309225,-0.5795222517309225
-0.6550738451756423,-0.6550738451756423
-0.7929360311520895,-0.7929360311520895
-0.8934118616095003,-0.8934118616095003
-0.8544677412771705,-0.8544677412771705
-0.722836614553896,-0.722836614553896
-0.6106775479967863,-0.6106775479967863
-0.5857533109840953,-0.5857533109840953
-0.5795222517309225,-0.5795222517309225
-0.4798253036801584,-0.4798253036801584
-0.24460281687288674,-0.24460281687288674
0.058382439312638694,0.058382439312638694
0.3348856936721799,0.3348856936721799
0.5350584721803547,0.5350584721803547
0.6698051285302157,0.6698051285302157
0.7578188404812809,0.7578188404812809
0.8224660802329483,0.8224660802329483
0.8925654968311418,0.8925654968311418
1.0055034457948981,1.0055034457948981
1.1581643974976308,1.1581643974976308
1.3100464667937168,1.3100464667937168
1.4066278852178944,1.4066278852178944
1.4315521222305856,1.4315521222305856
1.3918291194916093,1.3918291194916093
1.3100464667937168,1.3100464667937168
1.2181383428094186,1.2181383428094186
1.1573855150909842,1.1573855150909842
1.1301246308583532,1.1301246308583532
1.0966326873725498,1.0966326873725498
1.0164077994879503,1.0164077994879503
0.9135953218105999,0.9135953218105999
0.8333704339260006,0.8333704339260006
0.7920896663737311,0.7920896663737311
0.7617132525145139,0.7617132525145139
0.73055795624865,0.73055795624865
0.7142014257090716,0.7142014257090716
0.73055795624865,0.73055795624865
0.7406834275350559,0.7406834275350559
0.6698051285302157,0.6698051285302157
0.4727478796486272,0.4727478796486272
0.21260115582866448,0.21260115582866448
0.03267931989330106,0.03267931989330106
0.05994020412593188,0.05994020412593188
0.29360492611991035,0.29360492611991035
0.6090523008117813,0.6090523008117813
0.8419381403991132,0.8419381403991132
0.9135953218105999,0.9135953218105999
0.8559580237187518,0.8559580237187518
0.7609343701078674,0.7609343701078674
0.6799305998166214,0.6799305998166214
0.6090523008117813,0.6090523008117813
0.5241541184873024,0.5241541184873024
0.4260149352498315,0.4260149352498315
0.3138558686927218,0.3138558686927218
0.1822247419694473,0.1822247419694473
0.036573731926534035,0.036573731926534035
-0.09194186517015412,-0.09194186517015412
-0.19709099006744443,-0.19709099006744443
-0.30535564459132114,-0.30535564459132114
-0.45256441944752757,-0.45256441944752757
-0.6106775479967863,-0.6106775479967863
-0.7407509099067677,-0.7407509099067677
-0.8240913274179533,-0.8240913274179533
-0.8988640384560265,-0.8988640384560265
-0.9759733967140394,-0.9759733967140394
-1.0266007531460681,-1.0266007531460681
-1.0063498105732565,-1.0063498105732565
-0.944039218041529,-0.944039218041529
-0.915220568995605,-0.915220568995605
-0.9697423374608666,-0.9697423374608666
-1.0678815206983376,-1.0678815206983376
-1.1309709956367118,-1.1309709956367118
-1.128634348416772,-1.128634348416772
-1.0982579345575547,-1.0982579345575547
-1.0678815206983376,-1.0678815206983376
-0.9923299272536179,-0.9923299272536179
-0.7625596172928724,-0.7625596172928724
-0.2819891723919233,-0.2819891723919233
0.4563913491090487,0.4563913491090487
1.3318551741798215,1.3318551741798215
2.133325170619168,2.133325170619168
2.6357043229062214,2.6357043229062214
2.6816583848983706,2.6816583848983706
2.226791059416759,2.226791059416759
1.3707992945121512,1.3707992945121512
0.3348856936721799,0.3348856936721799
-0.6106775479967863,-0.6106775479967863
-1.251697768666934,-1.251697768666934
-1.5250854933998887,-1.5250854933998887
-1.5172966693334229,-1.5172966693334229
-1.372424541697156,-1.372424541697156
-1.1854927641019735,-1.1854927641019735
-1.0063498105732565,-1.0063498105732565
-0.9121050393690185,-0.9121050393690185
-0.9759733967140394,-0.9759733967140394
-1.1520008206161698,-1.1520008206161698
-1.2501400038536408,-1.2501400038536408
-1.132528760450005,-1.132528760450005
-0.8544677412771705,-0.8544677412771705
-0.5982154294904408,-0.5982154294904408
-0.4580165962940537,-0.4580165962940537
-0.4019370630154989,-0.4019370630154989
-0.33573205845053833,-0.33573205845053833
-0.22902516873995482,-0.22902516873995482
-0.09194186517015412,-0.09194186517015412
0.0015240236274372638,0.0015240236274372638
-0.000812623592502521,-0.000812623592502521
-0.09427851239009391,-0.09427851239009391
-0.18384998915445233,-0.18384998915445233
-0.1869655187810387,-0.1869655187810387
-0.09194186517015412,-0.09194186517015412
0.04592032080629317,0.04592032080629317
0.1822247419694473,0.1822247419694473
0.29672045574649675,0.29672045574649675
0.3956385213906143,0.3956385213906143
0.49221993981479206,0.49221993981479206
0.6090523008117813,0.6090523008117813
0.7453567219749354,0.7453567219749354
0.8832189079513827,0.8832189079513827
1.0016090337616652,1.0016090337616652
1.0966326873725498,1.0966326873725498
1.159722162310924,1.159722162310924
1.1573855150909842,1.1573855150909842
1.0444475661272279,1.0444475661272279
0.8528424940921655,0.8528424940921655
0.7219902497755376,0.7219902497755376
0.8224660802329483,0.8224660802329483
1.169068751190683,1.169068751190683
1.5842130739333182,1.5842130739333182
1.8178777959272967,1.8178777959272967
1.7672504394952682,1.7672504394952682
1.5257968934348236,1.5257968934348236
1.2796700529344995,1.2796700529344995
1.1394712197381125,1.1394712197381125
1.0966326873725498,1.0966326873725498
1.0569096846335735,1.0569096846335735
0.9439717356698171,0.9439717356698171
0.753924428448048,0.753924428448048
0.5482994730933469,0.5482994730933469
0.38161863807097557,0.38161863807097557
0.2733539835470989,0.2733539835470989
0.2079278613887849,0.2079278613887849
0.1822247419694473,0.1822247419694473
0.1939079780691462,0.1939079780691462
0.2429775696878817,0.2429775696878817
0.3138558686927218,0.3138558686927218
0.3956385213906143,0.3956385213906143
0.46729570280210103,0.46729570280210103
0.5171441768274831,0.5171441768274831
0.5428472962468207,0.5428472962468207
0.5482994730933469,0.5482994730933469
0.500008763881258,0.500008763881258
0.3652621075313971,0.3652621075313971
0.14405950404376414,0.14405950404376414
-0.09194186517015412,-0.09194186517015412
-0.2773158779520437,-0.2773158779520437
-0.39726376857561935,-0.39726376857561935
-0.48605636293333115,-0.48605636293333115
-0.5491458378717053,-0.5491458378717053
-0.567060133224577,-0.567060133224577
-0.5187694240124882,-0.5187694240124882
-0.4549010666674674,-0.4549010666674674
-0.42764018243483654,-0.42764018243483654
-0.47125759720704585,-0.47125759720704585
-0.5491458378717053,-0.5491458378717053
-0.6309284905695978,-0.6309284905695978
-0.701806789574438,-0.701806789574438
-0.7617807348862258,-0.7617807348862258
-0.7929360311520895,-0.7929360311520895
-0.7929360311520895,-0.7929360311520895
-0.7929360311520895,-0.7929360311520895
-0.8326590338910659,-0.8326590338910659
-0.915220568995605,-0.915220568995605
-1.0180330466729555,-1.0180330466729555
-1.0982579345575547,-1.0982579345575547
-1.0935846401176752,-1.0935846401176752
-0.915220568995605,-0.915220568995605
-0.4930663045931505,-0.4930663045931505
0.1822247419694473,0.1822247419694473
1.0366587420607618,1.0366587420607618
1.9199113911980008,1.9199113911980008
2.6006546146071248,2.6006546146071248
2.8343193366011032,2.8343193366011032
2.4853800184234287,2.4853800184234287
1.6449659016517528,1.6449659016517528
0.6036001239652551,0.6036001239652551
-0.33573205845053833,-0.33573205845053833
-1.0336106948058874,-1.0336106948058874
-1.4947090795406717,-1.4947090795406717
-1.716690565434951,-1.716690565434951
-1.6465911488367575,-1.6465911488367575
-1.3171238908252478,-1.3171238908252478
-0.915220568995605,-0.915220568995605
-0.636380667416124,-0.636380667416124
-0.5187694240124882,-0.5187694240124882
-0.4883930101532709,-0.4883930101532709
-0.4883930101532709,-0.4883930101532709
-0.5078650703194358,-0.5078650703194358
-0.5187694240124882,-0.5187694240124882
-0.5047495406928494,-0.5047495406928494
-0.4883930101532709,-0.4883930101532709
-0.5109805999460222,-0.5109805999460222
-0.5491458378717053,-0.5491458378717053
-0.578743369324276,-0.578743369324276
-0.5795222517309225,-0.5795222517309225
-0.5678390156312236,-0.5678390156312236
-0.5187694240124882,-0.5187694240124882
-0.4549010666674674,-0.4549010666674674
-0.42764018243483654,-0.42764018243483654
-0.4642476555472265,-0.4642476555472265
-0.4883930101532709,-0.4883930101532709
-0.3957060037623261,-0.3957060037623261
-0.15347357529523512,-0.15347357529523512
0.16820485864980858,0.16820485864980858
0.4563913491090487,0.4563913491090487
0.6004845943386687,0.6004845943386687
0.5786758869525641,0.5786758869525641
0.500008763881258,0.500008763881258
0.5482994730933469,0.5482994730933469
0.7858586071205583,0.7858586071205583
1.0966326873725498,1.0966326873725498
1.3225085853000622,1.3225085853000622
1.4315521222305856,1.4315521222305856
1.4845161258825539,1.4845161258825539
1.5234602462148836,1.5234602462148836
1.544490071194342,1.544490071194342
1.553836660074101,1.553836660074101
1.5608466017339202,1.5608466017339202
1.553836660074101,1.553836660074101
1.5071037156753053,1.5071037156753053
1.4315521222305856,1.4315521222305856
1.3466539399061066,1.3466539399061066
1.2492936390752822,1.2492936390752822
1.115325865132068,1.115325865132068
0.9439717356698171,0.9439717356698171
0.7476933691948752,0.7476933691948752
0.5482994730933469,0.5482994730933469
0.348126694585172,0.348126694585172
0.15184832811023008,0.15184832811023008
-0.04520892077135843,-0.04520892077135843
-0.21422640301366952,-0.21422640301366952
-0.292114643678329,-0.292114643678329
-0.21422640301366952,-0.21422640301366952
-3.3741185855926014e-05,-3.3741185855926014e-05
0.2429775696878817,0.2429775696878817
0.3987540510172007,0.3987540510172007
0.4563913491090487,0.4563913491090487
0.4859888805616193,0.4859888805616193
0.5482994730933469,0.5482994730933469
0.6036001239652551,0.6036001239652551
0.5786758869525641,0.5786758869525641
0.4571702315156953,0.4571702315156953
0.3348856936721799,0.3348856936721799
0.31151922147278205,0.31151922147278205
0.3956385213906143,0.3956385213906143
0.47430564446192036,0.47430564446192036
0.4260149352498315,0.4260149352498315
0.21493780304860427,0.21493780304860427
-0.09194186517015412,-0.09194186517015412
-0.4073892398620251,-0.4073892398620251
-0.6714303757152208,-0.6714303757152208
-0.8825075079164479,-0.8825075079164479
-1.0367262244324738,-1.0367262244324738
-1.1356442900765913,-1.1356442900765913
-1.159010762275989,-1.159010762275989
-1.120845524350306,-1.120845524350306
-1.0367262244324738,-1.0367262244324738
-0.9331348643484766,-0.9331348643484766
-0.8240913274179533,-0.8240913274179533
-0.7407509099067677,-0.7407509099067677
-0.7321832034336552,-0.7321832034336552
-0.8349956811110056,-0.8349956811110056
-1.0367262244324738,-1.0367262244324738
-1.2711698288330988,-1.2711698288330988
-1.4331773694155905,-1.4331773694155905
-1.420715250909245,-1.420715250909245
-1.159010762275989,-1.159010762275989
-0.6340440201961842,-0.6340440201961842
0.12147191425101288,0.12147191425101288
1.0319854476208823,1.0319854476208823
1.9806642189164352,1.9806642189164352
2.7797975681358413,2.7797975681358413
3.1996151853183563,3.1996151853183563
3.0757728826615476,3.0757728826615476
2.407491777758769,2.407491777758769
1.373135941732091,1.373135941732091
0.2429775696878817,0.2429775696878817
-0.7337409682469483,-0.7337409682469483
-1.4028009555563734,-1.4028009555563734
-1.729931566347943,-1.729931566347943
-1.7688756866802728,-1.7688756866802728
-1.6076470285044278,-1.6076470285044278
-1.342048127837939,-1.342048127837939
-1.0819014040179762,-1.0819014040179762
-0.915220568995605,-0.915220568995605
-0.8599199181236967,-0.8599199181236967
-0.8544677412771705,-0.8544677412771705
-0.8412267403641784,-0.8412267403641784
-0.8240913274179533,-0.8240913274179533
-0.8349956811110056,-0.8349956811110056
-0.8544677412771705,-0.8544677412771705
-0.817081385758134,-0.817081385758134
-0.6714303757152208,-0.6714303757152208
-0.4642476555472265,-0.4642476555472265
-0.27497923073210395,-0.27497923073210395
-0.17839781230792617,-0.17839781230792617
-0.15347357529523512,-0.15347357529523512
-0.15269469288858853,-0.15269469288858853
-0.12231827902937133,-0.12231827902937133
-0.05066109761788459,-0.05066109761788459
0.05994020412593188,0.05994020412593188
0.18689803640932687,0.18689803640932687
0.3037303974063161,0.3037303974063161
0.39252299176402794,0.39252299176402794
0.4563913491090487,0.4563913491090487
0.503903175914491,0.503903175914491
0.5482994730933469,0.5482994730933469
0.5973690647120824,0.5973690647120824
0.6698051285302157,0.6698051285302157
0.7632710173278071,0.7632710173278071
0.8528424940921655,0.8528424940921655
0.9026909681175476,0.9026909681175476
0.9135953218105999,0.9135953218105999
0.922941910690359,0.922941910690359
0.9743481495290344,0.9743481495290344
1.0717084503598586,1.0717084503598586
1.1877619289502013,1.1877619289502013
1.2983632306940178,1.2983632306940178
1.4011757083713683,1.4011757083713683
1.4798428314426744,1.4798428314426744
1.4930838323556666,1.4930838323556666
1.4074067676245412,1.4074067676245412
1.2492936390752822,1.2492936390752822
1.0701506855465654,1.0701506855465654
0.9135953218105999,0.9135953218105999
0.7819641950873254,0.7819641950873254
0.6698051285302157,0.6698051285302157
0.5599827091930458,0.5599827091930458
0.4563913491090487,0.4563913491090487
0.38862857973079495,0.38862857973079495
0.3956385213906143,0.3956385213906143
0.4532758194824623,0.4532758194824623
0.4867677629682659,0.4867677629682659
0.4439292306027032,0.4439292306027032
0.3652621075313971,0.3652621075313971
0.3130769862860752,0.3130769862860752
0.3037303974063161,0.3037303974063161
0.2990571029664365,0.2990571029664365
0.2733539835470989,0.2733539835470989
0.22973656877488957,0.22973656877488957
0.1822247419694473,0.1822247419694473
0.1323762679440652,0.1323762679440652
0.09109550039179568,0.09109550039179568
0.05916132171928529,0.05916132171928529
0.02956379026671468,0.02956379026671468
-0.02573686060519356,-0.02573686060519356
-0.12231827902937133,-0.12231827902937133
-0.25472828815929244,-0.25472828815929244
-0.39726376857561935,-0.39726376857561935
-0.5304526601121871,-0.5304526601121871
-0.6410539618560035,-0.6410539618560035
-0.730625438620362,-0.730625438620362
-0.7929360311520895,-0.7929360311520895
-0.8427845051774716,-0.8427845051774716
-0.8848441551363877,-0.8848441551363877
-0.9448181004481756,-0.9448181004481756
-1.0063498105732565,-1.0063498105732565
-1.0351684596191806,-1.0351684596191806
-1.0063498105732565,-1.0063498105732565
-0.9549435717345813,-0.9549435717345813
-0.9455969828548222,-0.9455969828548222
-1.0110231050131362,-1.0110231050131362
-1.128634348416772,-1.128634348416772
-1.2579288279201066,-1.2579288279201066
-1.372424541697156,-1.372424541697156
-1.4487550175485224,-1.4487550175485224
-1.4028009555563734,-1.4028009555563734
-1.1005945817774945,-1.1005945817774945
-0.4883930101532709,-0.4883930101532709
0.2920471613066172,0.2920471613066172
1.0358798596541152,1.0358798596541152
1.6979299053037211,1.6979299053037211
2.3155836537744707,2.3155836537744707
2.694120503404716,2.694120503404716
2.4378681916179863,2.4378681916179863
1.4572552416499231,1.4572552416499231
0.21260115582866448,0.21260115582866448
-0.7220577321472494,-0.7220577321472494
-1.1893871761352064,-1.1893871761352064
-1.3716456592905095,-1.3716456592905095
-1.4028009555563734,-1.4028009555563734
-1.2890841241859705,-1.2890841241859705
-1.0982579345575547,-1.0982579345575547
-0.9619535133944006,-0.9619535133944006
-0.915220568995605,-0.915220568995605
-0.8934118616095003,-0.8934118616095003
-0.8544677412771705,-0.8544677412771705
-0.8100714440983147,-0.8100714440983147
-0.7625596172928724,-0.7625596172928724
-0.7142689080807835,-0.7142689080807835
-0.701806789574438,-0.701806789574438
-0.7750217357992178,-0.7750217357992178
-0.915220568995605,-0.915220568995605
-1.0507461077521125,-1.0507461077521125
-1.0678815206983376,-1.0678815206983376
-0.9058739801158459,-0.9058739801158459
-0.6106775479967863,-0.6106775479967863
-0.39726376857561935,-0.39726376857561935
-0.4580165962940537,-0.4580165962940537
-0.7532130284131132,-0.7532130284131132
-0.9759733967140394,-0.9759733967140394
-0.8529099764638773,-0.8529099764638773
-0.39726376857561935,-0.39726376857561935
0.12770297350418564,0.12770297350418564
0.4867677629682659,0.4867677629682659
0.6363131850444121,0.6363131850444121
0.6698051285302157,0.6698051285302157
0.6775939525966816,0.6775939525966816
0.7001815423894329,0.7001815423894329
0.7469144867882286,0.7469144867882286
0.8224660802329483,0.8224660802329483
0.9167108514371863,0.9167108514371863
1.0055034457948981,1.0055034457948981
1.0724873327665052,1.0724873327665052
1.127009101231767,1.127009101231767
1.176857575257149,1.176857575257149
1.2189172252160652,1.2189172252160652
1.247735874261989,1.247735874261989
1.2796700529344995,1.2796700529344995
1.31160423160701,1.31160423160701
1.3100464667937168,1.3100464667937168
1.2204749900293583,1.2204749900293583
1.0358798596541152,1.0358798596541152
0.8084461969133095,0.8084461969133095
0.6090523008117813,0.6090523008117813
0.4501602898558759,0.4501602898558759
0.3037303974063161,0.3037303974063161
0.13860732719723798,0.13860732719723798
-0.06156545131093692,-0.06156545131093692
-0.328722116790719,-0.328722116790719
-0.6410539618560035,-0.6410539618560035
-0.8357745635176522,-0.8357745635176522
-0.701806789574438,-0.701806789574438
-0.2477183464994731,-0.2477183464994731
0.2429775696878817,0.2429775696878817
0.49689323425467163,0.49689323425467163
0.5171441768274831,0.5171441768274831
0.47430564446192036,0.47430564446192036
0.4563913491090487,0.4563913491090487
0.41822611118336556,0.41822611118336556
0.3348856936721799,0.3348856936721799
0.2453142169078215,0.2453142169078215
0.1822247419694473,0.1822247419694473
0.1175775022177799,0.1175775022177799
0.02956379026671468,0.02956379026671468
-0.07558533463057564,-0.07558533463057564
-0.18384998915445233,-0.18384998915445233
-0.31236558625114047,-0.31236558625114047
-0.4883930101532709,-0.4883930101532709
-0.7111533784541971,-0.7111533784541971
-0.9455969828548222,-0.9455969828548222
-1.1769250576288608,-1.1769250576288608
-1.4028009555563734,-1.4028009555563734
-1.6021948516579014,-1.6021948516579014
-1.6769675626959746,-1.6769675626959746
-1.5562407896657526,-1.5562407896657526
-1.2812953001195047,-1.2812953001195047
-1.0172541642663089,-1.0172541642663089
-0.915220568995605,-0.915220568995605
-1.0001187513200838,-1.0001187513200838
-1.159010762275989,-1.159010762275989
-1.2415722973805283,-1.2415722973805283
-1.1893871761352064,-1.1893871761352064
-1.0943635225243218,-1.0943635225243218
-1.0982579345575547,-1.0982579345575547
-1.2213213548077169,-1.2213213548077169
-1.3116717139787217,-1.3116717139787217
-1.1761461752222142,-1.1761461752222142
-0.7321832034336552,-0.7321832034336552
-0.02417909579190037,-0.02417909579190037
0.8224660802329483,0.8224660802329483
1.6200416646390616,1.6200416646390616
2.133325170619168,2.133325170619168
2.155912760411919,2.155912760411919
1.6449659016517528,1.6449659016517528
0.7780697830540924,0.7780697830540924
-0.15347357529523512,-0.15347357529523512
-0.903537332895906,-0.903537332895906
-1.372424541697156,-1.372424541697156
-1.5733762026119777,-1.5733762026119777
-1.5858383211183231,-1.5858383211183231
-1.5422209063461139,-1.5422209063461139
-1.555461907259106,-1.555461907259106
-1.6115414405376607,-1.6115414405376607
-1.6162147349775402,-1.6162147349775402
-1.5694817905787446,-1.5694817905787446
-1.5858383211183231,-1.5858383211183231
-1.6847563867624407,-1.6847563867624407
-1.6769675626959746,-1.6769675626959746
-1.4012431907430802,-1.4012431907430802
-0.9455969828548222,-0.9455969828548222
-0.5507036026849985,-0.5507036026849985
-0.33573205845053833,-0.33573205845053833
-0.2796525251719835,-0.2796525251719835
-0.30535564459132114,-0.30535564459132114
-0.3692240019363419,-0.3692240019363419
-0.39726376857561935,-0.39726376857561935
-0.3629929426831692,-0.3629929426831692
-0.30535564459132114,-0.30535564459132114
-0.2819891723919233,-0.2819891723919233
-0.27497923073210395,-0.27497923073210395
-0.22824628633330823,-0.22824628633330823
-0.12231827902937133,-0.12231827902937133
0.0023029060340838585,0.0023029060340838585
0.12147191425101288,0.12147191425101288
0.2437564520945283,0.2437564520945283
0.3956385213906143,0.3956385213906143
0.569329298072805,0.569329298072805
0.73055795624865,0.73055795624865
0.8489480820589326,0.8489480820589326
0.9135953218105999,0.9135953218105999
0.909700909777367,0.909700909777367
0.8224660802329483,0.8224660802329483
0.6752573053767419,0.6752573053767419
0.5482994730933469,0.5482994730933469
0.4976721166613182,0.4976721166613182
0.5171441768274831,0.5171441768274831
0.5646560036329253,0.5646560036329253
0.6394287146709985,0.6394287146709985
0.7624921349211605,0.7624921349211605
0.9439717356698171,0.9439717356698171
1.1612799271242171,1.1612799271242171
1.3707992945121512,1.3707992945121512
1.4814005962559675,1.4814005962559675
1.4011757083713683,1.4011757083713683
1.1363556901115262,1.1363556901115262
0.8224660802329483,0.8224660802329483
0.5888013582389698,0.5888013582389698
0.4563913491090487,0.4563913491090487
0.3629254603114573,0.3629254603114573
0.2733539835470989,0.2733539835470989
0.18767691881597345,0.18767691881597345
0.12147191425101288,0.12147191425101288
0.08875885317185589,0.08875885317185589
0.12147191425101288,0.12147191425101288
0.2079278613887849,0.2079278613887849
0.3037303974063161,0.3037303974063161
0.38862857973079495,0.38862857973079495
0.4867677629682659,0.4867677629682659
0.5732237101060379,0.5732237101060379
0.5482994730933469,0.5482994730933469
0.3457900473652322,0.3457900473652322
0.05994020412593188,0.05994020412593188
-0.140232574382243,-0.140232574382243
-0.18384998915445233,-0.18384998915445233
-0.17528228268133977,-0.17528228268133977
-0.27497923073210395,-0.27497923073210395
-0.5475880730584122,-0.5475880730584122
-0.8848441551363877,-0.8848441551363877
-1.0857958160512093,-1.0857958160512093
-1.0063498105732565,-1.0063498105732565
-0.6994701423544981,-0.6994701423544981
-0.36688735471640216,-0.36688735471640216
-0.2204574622668423,-0.2204574622668423
-0.30535564459132114,-0.30535564459132114
-0.517211659199195,-0.517211659199195
-0.701806789574438,-0.701806789574438
-0.7859260894922702,-0.7859260894922702
-0.7929360311520895,-0.7929360311520895
-0.792157148745443,-0.792157148745443
-0.8240913274179533,-0.8240913274179533
-0.8739398014433354,-0.8739398014433354
-0.915220568995605,-0.915220568995605
-0.961174630987754,-0.961174630987754
-1.0367262244324738,-1.0367262244324738
-1.1146144650971332,-1.1146144650971332
-1.0982579345575547,-1.0982579345575547
-0.907431744929139,-0.907431744929139
-0.5187694240124882,-0.5187694240124882
0.054488027279405715,0.054488027279405715
0.7609343701078674,0.7609343701078674
1.4331098870438788,1.4331098870438788
1.7976268533544852,1.7976268533544852
1.6659957266312109,1.6659957266312109
1.0966326873725498,1.0966326873725498
0.32398133997912754,0.32398133997912754
-0.4580165962940537,-0.4580165962940537
-1.2034070594548452,-1.2034070594548452
-1.8903813421171416,-1.8903813421171416
-2.3904238471842554,-2.3904238471842554
-2.5002462665214256,-2.5002462665214256
-2.1450758890905783,-2.1450758890905783
-1.4947090795406717,-1.4947090795406717
-0.8645932125635762,-0.8645932125635762
-0.4883930101532709,-0.4883930101532709
-0.3855805324759204,-0.3855805324759204
-0.42764018243483654,-0.42764018243483654
-0.4876141277466243,-0.4876141277466243
-0.5187694240124882,-0.5187694240124882
-0.5281160128922473,-0.5281160128922473
-0.5187694240124882,-0.5187694240124882
-0.4876141277466243,-0.4876141277466243
-0.42764018243483654,-0.42764018243483654
-0.3567618834299964,-0.3567618834299964
-0.27497923073210395,-0.27497923073210395
-0.1893021660009785,-0.1893021660009785
-0.09194186517015412,-0.09194186517015412
-0.01639027172543442,-0.01639027172543442
-0.000812623592502521,-0.000812623592502521
-0.07636421703722222,-0.07636421703722222
-0.21422640301366952,-0.21422640301366952
-0.3365109408571849,-0.3365109408571849
-0.36688735471640216,-0.36688735471640216
-0.2952301733049154,-0.2952301733049154
-0.18384998915445233,-0.18384998915445233
-0.09817292442332688,-0.09817292442332688
-0.031189037451719723,-0.031189037451719723
0.07707561707215697,0.07707561707215697
0.2733539835470989,0.2733539835470989
0.524933000893949,0.524933000893949
0.7609343701078674,0.7609343701078674
0.9439717356698171,0.9439717356698171
1.0966326873725498,1.0966326873725498
1.2446203446354027,1.2446203446354027
1.3707992945121512,1.3707992945121512
1.4338887694505253,1.4338887694505253
1.4315521222305856,1.4315521222305856
1.3988390611514285,1.3988390611514285
1.3707992945121512,1.3707992945121512
1.34587505749946,1.34587505749946
1.3100464667937168,1.3100464667937168
1.2609768751749812,1.2609768751749812
1.2189172252160652,1.2189172252160652
1.1799731048837354,1.1799731048837354
1.127009101231767,1.127009101231767
1.0358798596541152,1.0358798596541152
0.9135953218105999,0.9135953218105999
0.7702809589876265,0.7702809589876265
0.6090523008117813,0.6090523008117813
0.41900499359001214,0.41900499359001214
0.21260115582866448,0.21260115582866448
0.010870612507196403,0.010870612507196403
-0.15347357529523512,-0.15347357529523512
-0.2484972289061197,-0.2484972289061197
-0.24460281687288674,-0.24460281687288674
-0.1581468697351147,-0.1581468697351147
-0.031189037451719723,-0.031189037451719723
0.10044208927155482,0.10044208927155482
0.2429775696878817,0.2429775696878817
0.3839552852909154,0.3839552852909154
0.4867677629682659,0.4867677629682659
0.5319429425537684,0.5319429425537684
0.5482994730933469,0.5482994730933469
0.5521938851265799,0.5521938851265799
0.5171441768274831,0.5171441768274831
0.41511058155677916,0.41511058155677916
0.2733539835470989,0.2733539835470989
0.12614520869089246,0.12614520869089246
-0.031189037451719723,-0.031189037451719723
-0.21578416782696272,-0.21578416782696272
-0.39726376857561935,-0.39726376857561935
-0.5359048369587133,-0.5359048369587133
-0.6106775479967863,-0.6106775479967863
-0.6418328442626502,-0.6418328442626502
-0.6410539618560035,-0.6410539618560035
-0.6465061387025297,-0.6465061387025297
-0.701806789574438,-0.701806789574438
-0.834216798704359,-0.834216798704359
-1.0063498105732565,-1.0063498105732565
-1.1465486437696437,-1.1465486437696437
-1.2197635899944235,-1.2197635899944235
-1.2696120640198056,-1.2696120640198056
-1.342048127837939,-1.342048127837939
-1.4004643083364336,-1.4004643083364336
-1.372424541697156,-1.372424541697156
-1.289863006592617,-1.289863006592617
-1.2501400038536408,-1.2501400038536408
-1.211195883521311,-1.211195883521311
-0.9455969828548222,-0.9455969828548222
-0.30457676218467455,-0.30457676218467455
0.6090523008117813,0.6090523008117813
1.574866485053559,1.574866485053559
2.407491777758769,2.407491777758769
2.87170569212014,2.87170569212014
2.6816583848983706,2.6816583848983706
1.7859436172547865,1.7859436172547865
0.5482994730933469,0.5482994730933469
-0.5327893073321268,-0.5327893073321268
-1.2197635899944235,-1.2197635899944235
-1.5531252600391663,-1.5531252600391663
-1.6162147349775402,-1.6162147349775402
-1.4619960184615146,-1.4619960184615146
-1.1893871761352064,-1.1893871761352064
-0.9424814532282357,-0.9424814532282357
-0.7929360311520895,-0.7929360311520895
-0.7259521441804824,-0.7259521441804824
-0.701806789574438,-0.701806789574438
-0.7088167312342573,-0.7088167312342573
-0.7321832034336552,-0.7321832034336552
-0.747760851566587,-0.747760851566587
-0.7321832034336552,-0.7321832034336552
-0.7072589664209641,-0.7072589664209641
-0.701806789574438,-0.701806789574438
-0.7314043210270086,-0.7314043210270086
-0.7625596172928724,-0.7625596172928724
-0.8046192672517885,-0.8046192672517885
-0.8544677412771705,-0.8544677412771705
-0.8614776829369899,-0.8614776829369899
-0.701806789574438,-0.701806789574438
-0.34975194177017704,-0.34975194177017704
0.05994020412593188,0.05994020412593188
0.3489055769918186,0.3489055769918186
0.4563913491090487,0.4563913491090487
0.42913046487641787,0.42913046487641787
0.3348856936721799,0.3348856936721799
0.24842974653440786,0.24842974653440786
0.2733539835470989,0.2733539835470989
0.4563913491090487,0.4563913491090487
0.73055795624865,0.73055795624865
0.9790214439689139,0.9790214439689139
1.1573855150909842,1.1573855150909842
1.2890166418142586,1.2890166418142586
1.4011757083713683,1.4011757083713683
1.4845161258825539,1.4845161258825539
1.5234602462148836,1.5234602462148836
1.5063248332686587,1.5063248332686587
1.4315521222305856,1.4315521222305856
1.3131619964203032,1.3131619964203032
1.1877619289502013,1.1877619289502013
1.0911805105260235,1.0911805105260235
1.0358798596541152,1.0358798596541152
0.996156856915139,0.996156856915139
0.9439717356698171,0.9439717356698171
0.8551791413121053,0.8551791413121053
0.73055795624865,0.73055795624865
0.5755603573259778,0.5755603573259778
0.4260149352498315,0.4260149352498315
0.3473478121785254,0.3473478121785254
0.3956385213906143,0.3956385213906143
0.5233752360806558,0.5233752360806558
0.6090523008117813,0.6090523008117813
0.5716659452927447,0.5716659452927447
0.4563913491090487,0.4563913491090487
0.33722234089211967,0.33722234089211967
0.2429775696878817,0.2429775696878817
0.1783303299362143,0.1783303299362143
0.1822247419694473,0.1822247419694473
0.2686806891072193,0.2686806891072193
0.3956385213906143,0.3956385213906143
0.5093553527610172,0.5093553527610172
0.6090523008117813,0.6090523008117813
0.6814883646299146,0.6814883646299146
0.6698051285302157,0.6698051285302157
0.532721824960415,0.532721824960415
0.3348856936721799,0.3348856936721799
0.16976262346310175,0.16976262346310175
0.05994020412593188,0.05994020412593188
-0.06078656890429033,-0.06078656890429033
-0.24460281687288674,-0.24460281687288674
-0.48216195090009817,-0.48216195090009817
-0.7321832034336552,-0.7321832034336552
-0.9853199855937985,-0.9853199855937985
-1.2197635899944235,-1.2197635899944235
-1.3802133657636222,-1.3802133657636222
-1.372424541697156,-1.372424541697156
-1.2041859418614917,-1.2041859418614917
-0.9759733967140394,-0.9759733967140394
-0.8108503265049612,-0.8108503265049612
-0.7321832034336552,-0.7321832034336552
-0.7041434367943777,-0.7041434367943777
-0.701806789574438,-0.701806789574438
-0.7158266728940766,-0.7158266728940766
-0.7321832034336552,-0.7321832034336552
-0.7547707932264064,-0.7547707932264064
-0.8240913274179533,-0.8240913274179533
-0.9533858069212882,-0.9533858069212882
-1.0678815206983376,-1.0678815206983376
-1.043736166092293,-1.043736166092293
-0.7929360311520895,-0.7929360311520895
-0.28744134923844944,-0.28744134923844944
0.4563913491090487,0.4563913491090487
1.340422880652934,1.340422880652934
2.163701584478385,2.163701584478385
2.682437267305017,2.682437267305017
2.7120347987575877,2.7120347987575877
2.1901835863043693,2.1901835863043693
1.2189172252160652,1.2189172252160652
0.073181205038924,0.073181205038924
-0.915220568995605,-0.915220568995605
-1.5616929665122787,-1.5616929665122787
-1.8903813421171416,-1.8903813421171416
-1.9963093494210786,-1.9963093494210786
-1.920757755976359,-1.920757755976359
-1.7190272126548907,-1.7190272126548907
-1.4947090795406717,-1.4947090795406717
-1.3116717139787217,-1.3116717139787217
-1.128634348416772,-1.128634348416772
-0.9214516282487777,-0.9214516282487777
-0.7625596172928724,-0.7625596172928724
-0.7158266728940766,-0.7158266728940766
-0.701806789574438,-0.701806789574438
-0.6052253711502602,-0.6052253711502602
-0.42764018243483654,-0.42764018243483654
-0.28744134923844944,-0.28744134923844944
-0.24460281687288674,-0.24460281687288674
-0.27497923073210395,-0.27497923073210395
-0.30535564459132114,-0.30535564459132114
-0.3108078214378473,-0.3108078214378473
-0.27497923073210395,-0.27497923073210395
-0.2165630502336093,-0.2165630502336093
-0.15347357529523512,-0.15347357529523512
-0.0958362772033871,-0.0958362772033871
-0.031189037451719723,-0.031189037451719723
0.04358367358635339,0.04358367358635339
0.12147191425101288,0.12147191425101288
0.1954657428824394,0.1954657428824394
0.2733539835470989,0.2733539835470989
0.34423228255193905,0.34423228255193905
0.3956385213906143,0.3956385213906143
0.44548699541599635,0.44548699541599635
0.5482994730933469,0.5482994730933469
0.7149803081157182,0.7149803081157182
0.8832189079513827,0.8832189079513827
0.9688959726825082,0.9688959726825082
0.9743481495290344,0.9743481495290344
0.9868102680353799,0.9868102680353799
1.0966326873725498,1.0966326873725498
1.3022576427272508,1.3022576427272508
1.5234602462148836,1.5234602462148836
1.6613224321913311,1.6613224321913311
1.6761211979176165,1.6761211979176165
1.590444133186491,1.590444133186491
1.4627074184964493,1.4627074184964493
1.324845232520002,1.324845232520002
1.1877619289502013,1.1877619289502013
1.0491208605671074,1.0491208605671074
0.9135953218105999,0.9135953218105999
0.7710598413942731,0.7710598413942731
0.6090523008117813,0.6090523008117813
0.42913046487641787,0.42913046487641787
0.2733539835470989,0.2733539835470989
0.17209927068304154,0.17209927068304154
0.12147191425101288,0.12147191425101288
0.09343214761173546,0.09343214761173546
0.09109550039179568,0.09109550039179568
0.12926073831747883,0.12926073831747883
0.21260115582866448,0.21260115582866448
0.2982782205597899,0.2982782205597899
0.3348856936721799,0.3348856936721799
0.29438380852655693,0.29438380852655693
0.21260115582866448,0.21260115582866448
0.14483838645041072,0.14483838645041072
0.12147191425101288,0.12147191425101288
0.09265326520508887,0.09265326520508887
-0.000812623592502521,-0.000812623592502521
-0.14880028085535554,-0.14880028085535554
-0.24460281687288674,-0.24460281687288674
-0.2041009317272638,-0.2041009317272638
-0.06156545131093692,-0.06156545131093692
0.05059361524617274,0.05059361524617274
0.02956379026671468,0.02956379026671468
-0.1277704558758975,-0.1277704558758975
-0.33573205845053833,-0.33573205845053833
-0.5211060712324279,-0.5211060712324279
-0.6410539618560035,-0.6410539618560035
-0.7173844377073698,-0.7173844377073698
-0.7625596172928724,-0.7625596172928724
-0.7898205015255032,-0.7898205015255032
-0.7929360311520895,-0.7929360311520895
-0.78826273671221,-0.78826273671221
-0.7929360311520895,-0.7929360311520895
-0.8194180329780738,-0.8194180329780738
-0.8544677412771705,-0.8544677412771705
-0.8918540967962071,-0.8918540967962071
-0.9455969828548222,-0.9455969828548222
-1.0445150484989396,-1.0445150484989396
-1.1893871761352064,-1.1893871761352064
-1.3272493621116537,-1.3272493621116537
-1.342048127837939,-1.342048127837939
-1.0896902280844423,-1.0896902280844423
-0.4580165962940537,-0.4580165962940537
0.5412895314335275,0.5412895314335275
1.7064976117768338,1.7064976117768338
2.665301854358792,2.665301854358792
3.04773311602227,3.04773311602227
2.7011304450645355,2.7011304450645355
1.7976268533544852,1.7976268533544852
0.7110858960824852,0.7110858960824852
-0.21422640301366952,-0.21422640301366952
-0.8201969153847204,-0.8201969153847204
-1.128634348416772,-1.128634348416772
-1.2337834733140622,-1.2337834733140622
-1.2197635899944235,-1.2197635899944235
-1.1504430558028766,-1.1504430558028766
-1.0678815206983376,-1.0678815206983376
-0.9907721624403246,-0.9907721624403246
-0.915220568995605,-0.915220568995605
-0.8451211523974114,-0.8451211523974114
-0.7929360311520895,-0.7929360311520895
-0.7641173821061655,-0.7641173821061655
-0.7321832034336552,-0.7321832034336552
-0.6846713766282129,-0.6846713766282129
-0.6410539618560035,-0.6410539618560035
-0.6340440201961842,-0.6340440201961842
-0.6410539618560035,-0.6410539618560035
-0.620803019283192,-0.620803019283192
-0.5491458378717053,-0.5491458378717053
-0.49773959903303006,-0.49773959903303006
-0.5187694240124882,-0.5187694240124882
-0.5873110757973885,-0.5873110757973885
-0.5795222517309225,-0.5795222517309225
-0.4284190648414831,-0.4284190648414831
-0.18384998915445233,-0.18384998915445233
0.036573731926534035,0.036573731926534035
0.1822247419694473,0.1822247419694473
0.27958504280027163,0.27958504280027163
0.3652621075313971,0.3652621075313971
0.42913046487641787,0.42913046487641787
0.4563913491090487,0.4563913491090487
0.46651682039545445,0.46651682039545445
0.5171441768274831,0.5171441768274831
0.6487753035507576,0.6487753035507576
0.8528424940921655,0.8528424940921655
1.0802761568329713,1.0802761568329713
1.2796700529344995,1.2796700529344995
1.4175322389109468,1.4175322389109468
1.4930838323556666,1.4930838323556666
1.5203447165882973,1.5203447165882973
1.5234602462148836,1.5234602462148836
1.497757126795546,1.497757126795546
1.4315521222305856,1.4315521222305856
1.3217297028934156,1.3217297028934156
1.1877619289502013,1.1877619289502013
1.0389953892807018,1.0389953892807018
0.8832189079513827,0.8832189079513827
0.7609343701078674,0.7609343701078674
0.73055795624865,0.73055795624865
0.7632710173278071,0.7632710173278071
0.73055795624865,0.73055795624865
0.5280485305205355,0.5280485305205355
0.21260115582866448,0.21260115582866448
-0.05299774483782438,-0.05299774483782438
-0.15347357529523512,-0.15347357529523512
-0.11375057255625878,-0.11375057255625878
-0.031189037451719723,-0.031189037451719723
0.022553848606895327,0.022553848606895327
0.05994020412593188,0.05994020412593188
0.12614520869089246,0.12614520869089246
0.2429775696878817,0.2429775696878817
0.3637043427181039,0.3637043427181039
0.4260149352498315,0.4260149352498315
0.40420622786372684,0.40420622786372684
0.3348856936721799,0.3348856936721799
0.2554396881942272,0.2554396881942272
0.1822247419694473,0.1822247419694473
0.10589426611808098,0.10589426611808098
0.02956379026671468,0.02956379026671468
-0.04910333280459141,-0.04910333280459141
-0.15347357529523512,-0.15347357529523512
-0.3139233510644337,-0.3139233510644337
-0.5187694240124882,-0.5187694240124882
-0.7025856719810846,-0.7025856719810846
-0.7929360311520895,-0.7929360311520895
-0.8147447385381942,-0.8147447385381942
-0.8544677412771705,-0.8544677412771705
-0.9938876920669111,-0.9938876920669111
-1.1893871761352064,-1.1893871761352064
-1.3365959509914127,-1.3365959509914127
-1.342048127837939,-1.342048127837939
-1.2236580020276566,-1.2236580020276566
-1.0678815206983376,-1.0678815206983376
-0.9580591013611677,-0.9580591013611677
-0.915220568995605,-0.915220568995605
-0.9183360986221913,-0.9183360986221913
-0.9455969828548222,-0.9455969828548222
-0.9946665744735577,-0.9946665744735577
-1.0678815206983376,-1.0678815206983376
-1.1558952326494027,-1.1558952326494027
-1.1893871761352064,-1.1893871761352064
-1.0195908114862486,-1.0195908114862486
-0.5187694240124882,-0.5187694240124882
0.2764695131736853,0.2764695131736853
1.1877619289502013,1.1877619289502013
2.069456813274147,2.069456813274147
2.8343193366011032,2.8343193366011032
3.288407779676068,3.288407779676068
3.1388623575999217,3.1388623575999217
2.309352594521298,2.309352594521298
1.127009101231767,1.127009101231767
0.05293026246611253,0.05293026246611253
-0.701806789574438,-0.701806789574438
-1.1722517631889813,-1.1722517631889813
-1.4028009555563734,-1.4028009555563734
-1.388002189830088,-1.388002189830088
-1.1893871761352064,-1.1893871761352064
-0.9751945143073928,-0.9751945143073928
-0.915220568995605,-0.915220568995605
-1.0857958160512093,-1.0857958160512093
-1.4028009555563734,-1.4028009555563734
-1.6208880294174197,-1.6208880294174197
-1.4947090795406717,-1.4947090795406717
-1.0406206364657067,-1.0406206364657067
-0.5491458378717053,-0.5491458378717053
-0.28899911405174267,-0.28899911405174267
-0.24460281687288674,-0.24460281687288674
-0.25317052334599927,-0.25317052334599927
-0.21422640301366952,-0.21422640301366952
-0.1737245178680466,-0.1737245178680466
-0.15347357529523512,-0.15347357529523512
-0.14490586882212259,-0.14490586882212259
-0.12231827902937133,-0.12231827902937133
-0.0973940420166803,-0.0973940420166803
-0.06156545131093692,-0.06156545131093692
-0.009380330065615065,-0.009380330065615065
0.05994020412593188,0.05994020412593188
0.1471750336703505,0.1471750336703505
0.2733539835470989,0.2733539835470989
0.43769817134953043,0.43769817134953043
0.6090523008117813,0.6090523008117813
0.7500300164148149,0.7500300164148149
0.8528424940921655,0.8528424940921655
0.901912085710901,0.901912085710901
0.8832189079513827,0.8832189079513827
0.8302549042994143,0.8302549042994143
0.8224660802329483,0.8224660802329483
0.8808822607314429,0.8808822607314429
0.9439717356698171,0.9439717356698171
0.9579916189894558,0.9579916189894558
0.9743481495290344,0.9743481495290344
1.082612804052911,1.082612804052911
1.2796700529344995,1.2796700529344995
1.4494664175834573,1.4494664175834573
1.4930838323556666,1.4930838323556666
1.4136378268777139,1.4136378268777139
1.3100464667937168,1.3100464667937168
1.2547458159218086,1.2547458159218086
1.2492936390752822,1.2492936390752822
1.2321582261290573,1.2321582261290573
1.1573855150909842,1.1573855150909842
1.0125133874547174,1.0125133874547174
0.8224660802329483,0.8224660802329483
0.6222933017247734,0.6222933017247734
0.4563913491090487,0.4563913491090487
0.3356645760788265,0.3356645760788265
0.2429775696878817,0.2429775696878817
0.14483838645041072,0.14483838645041072
0.02956379026671468,0.02956379026671468
-0.09895180682997348,-0.09895180682997348
-0.21422640301366952,-0.21422640301366952
-0.2703059362922244,-0.2703059362922244
-0.21422640301366952,-0.21422640301366952
-0.05767103927770395,-0.05767103927770395
0.12147191425101288,0.12147191425101288
0.22973656877488957,0.22973656877488957
0.2429775696878817,0.2429775696878817
0.1915713308492064,0.1915713308492064
0.12147191425101288,0.12147191425101288
0.062276851345871666,0.062276851345871666
0.02956379026671468,0.02956379026671468
0.008533965287256619,0.008533965287256619
-0.031189037451719723,-0.031189037451719723
-0.111413925336319,-0.111413925336319
-0.21422640301366952,-0.21422640301366952
-0.3240488223508394,-0.3240488223508394
-0.42764018243483654,-0.42764018243483654
-0.5327893073321268,-0.5327893073321268
-0.6106775479967863,-0.6106775479967863
-0.6535160803623491,-0.6535160803623491
-0.6714303757152208,-0.6714303757152208
-0.7111533784541971,-0.7111533784541971
-0.7929360311520895,-0.7929360311520895
-0.9027584504892594,-0.9027584504892594
-1.0063498105732565,-1.0063498105732565
-1.101373464184141,-1.101373464184141
-1.2197635899944235,-1.2197635899944235
-1.4004643083364336,-1.4004643083364336
-1.6162147349775402,-1.6162147349775402
-1.7673179218669797,-1.7673179218669797
-1.7384992728210555,-1.7384992728210555
-1.493930197134025,-1.493930197134025
-1.0678815206983376,-1.0678815206983376
-0.4798253036801584,-0.4798253036801584
0.3037303974063161,0.3037303974063161
1.2734389936813268,1.2734389936813268
2.2548308260560366,2.2548308260560366
2.9293429902119876,2.9293429902119876
3.017356702163053,3.017356702163053
2.465907958257264,2.465907958257264
1.4930838323556666,1.4930838323556666
0.4431503481960566,0.4431503481960566
-0.39726376857561935,-0.39726376857561935
-0.9097683921490788,-0.9097683921490788
-1.128634348416772,-1.128634348416772
-1.1527797030228164,-1.1527797030228164
-1.0678815206983376,-1.0678815206983376
-0.93235598194183,-0.93235598194183
-0.7929360311520895,-0.7929360311520895
-0.7033645543877312,-0.7033645543877312
-0.701806789574438,-0.701806789574438
-0.7812527950523906,-0.7812527950523906
-0.8848441551363877,-0.8848441551363877
-0.9533858069212882,-0.9533858069212882
-0.9759733967140394,-0.9759733967140394
-0.997782104100144,-0.997782104100144
-1.0367262244324738,-1.0367262244324738
-1.0523038725654057,-1.0523038725654057
-0.9455969828548222,-0.9455969828548222
-0.7088167312342573,-0.7088167312342573
-0.42764018243483654,-0.42764018243483654
-0.25784381778587884,-0.25784381778587884
-0.24460281687288674,-0.24460281687288674
-0.3076922918112609,-0.3076922918112609
-0.30535564459132114,-0.30535564459132114
-0.1760611650879864,-0.1760611650879864
0.02956379026671468,0.02956379026671468
0.21649556786189747,0.21649556786189747
0.3348856936721799,0.3348856936721799
0.40031181583049386,0.40031181583049386
0.4563913491090487,0.4563913491090487
0.5140286472008967,0.5140286472008967
0.5786758869525641,0.5786758869525641
0.6713628933435088,0.6713628933435088
0.8224660802329483,0.8224660802329483
1.0070612106081913,1.0070612106081913
1.1573855150909842,1.1573855150909842
1.232937108535704,1.232937108535704
1.2492936390752822,1.2492936390752822
1.211128401149599,1.211128401149599
1.0966326873725498,1.0966326873725498
0.9198263810637727,0.9198263810637727
0.7609343701078674,0.7609343701078674
0.6705840109368623,0.6705840109368623
0.6090523008117813,0.6090523008117813
0.5194808240474229,0.5194808240474229
0.4563913491090487,0.4563913491090487
0.5280485305205355,0.5280485305205355
0.7609343701078674,0.7609343701078674
1.0327643300275289,1.0327643300275289
1.1877619289502013,1.1877619289502013
1.153491103057751,1.153491103057751
0.9743481495290344,0.9743481495290344
0.7406834275350559,0.7406834275350559
0.5171441768274831,0.5171441768274831
0.3286546344190071,0.3286546344190071
0.1822247419694473,0.1822247419694473
0.08174891151203655,0.08174891151203655
0.02956379026671468,0.02956379026671468
0.020996083793602138,0.020996083793602138
0.05994020412593188,0.05994020412593188
0.14094397441717776,0.14094397441717776
0.2429775696878817,0.2429775696878817
0.3169713983193082,0.3169713983193082
0.3348856936721799,0.3348856936721799
0.3052881622196093,0.3052881622196093
0.2733539835470989,0.2733539835470989
0.25310304097428743,0.25310304097428743
0.21260115582866448,0.21260115582866448
0.101999854084848,0.101999854084848
-0.09194186517015412,-0.09194186517015412
-0.35286747139676344,-0.35286747139676344
-0.6410539618560035,-0.6410539618560035
-0.9089895097424322,-0.9089895097424322
-1.128634348416772,-1.128634348416772
-1.3373748333980593,-1.3373748333980593
-1.555461907259106,-1.555461907259106
-1.687871916389027,-1.687871916389027
-1.555461907259106,-1.555461907259106
-1.157452997462696,-1.157452997462696
-0.7321832034336552,-0.7321832034336552
-0.5507036026849985,-0.5507036026849985
-0.6410539618560035,-0.6410539618560035
-0.8264279746378931,-0.8264279746378931
-0.9455969828548222,-0.9455969828548222
-0.961174630987754,-0.961174630987754
-0.915220568995605,-0.915220568995605
-0.8653720949702228,-0.8653720949702228
-0.8848441551363877,-0.8848441551363877
-1.0258218707394213,-1.0258218707394213
-1.2501400038536408,-1.2501400038536408
-1.412926426842779,-1.412926426842779
-1.342048127837939,-1.342048127837939
-0.9572802189545211,-0.9572802189545211
-0.30535564459132114,-0.30535564459132114
0.4898832925948523,0.4898832925948523
1.2796700529344995,1.2796700529344995
1.894208271778663,1.894208271778663
2.133325170619168,2.133325170619168
1.848254209786514,1.848254209786514
1.0662562735133325,1.0662562735133325
0.028784907860068085,0.028784907860068085
-0.9455969828548222,-0.9455969828548222
-1.6567166201231631,-1.6567166201231631
-2.0734187076790915,-2.0734187076790915
-2.2346473658549364,-2.2346473658549364
-2.164547949256743,-2.164547949256743
-1.9098534022833065,-1.9098534022833065
-1.5858383211183231,-1.5858383211183231
-1.3140083611986615,-1.3140083611986615
-1.128634348416772,-1.128634348416772
-0.9868777504070917,-0.9868777504070917
-0.8544677412771705,-0.8544677412771705
-0.7337409682469483,-0.7337409682469483
-0.6410539618560035,-0.6410539618560035
-0.5803011341375691,-0.5803011341375691
-0.5491458378717053,-0.5491458378717053
-0.5397992489919462,-0.5397992489919462
-0.5187694240124882,-0.5187694240124882
-0.4883930101532709,-0.4883930101532709
-0.4580165962940537,-0.4580165962940537
-0.4486700074142946,-0.4486700074142946
-0.42764018243483654,-0.42764018243483654
-0.3777917084094545,-0.3777917084094545
-0.30535564459132114,-0.30535564459132114
-0.23058293355324802,-0.23058293355324802
-0.15347357529523512,-0.15347357529523512
-0.07246980500398925,-0.07246980500398925
-0.000812623592502521,-0.000812623592502521
0.055266909686052315,0.055266909686052315
0.09109550039179568,0.09109550039179568
0.06928679300569102,0.06928679300569102
-0.031189037451719723,-0.031189037451719723
-0.13789592716230323,-0.13789592716230323
-0.09194186517015412,-0.09194186517015412
0.16664709383651538,0.16664709383651538
0.5171441768274831,0.5171441768274831
0.7819641950873254,0.7819641950873254
0.9135953218105999,0.9135953218105999
0.996156856915139,0.996156856915139
1.0966326873725498,1.0966326873725498
1.1877619289502013,1.1877619289502013
1.2189172252160652,1.2189172252160652
1.1916563409834342,1.1916563409834342
1.1573855150909842,1.1573855150909842
1.1410289845514057,1.1410289845514057
1.127009101231767,1.127009101231767
1.0888438633060837,1.0888438633060837
1.0358798596541152,1.0358798596541152
0.9782425615622673,0.9782425615622673
0.9135953218105999,0.9135953218105999
0.8271393746728278,0.8271393746728278
0.73055795624865,0.73055795624865
0.6331976554178257,0.6331976554178257
0.5171441768274831,0.5171441768274831
0.35279998902505155,0.35279998902505155
0.15184832811023008,0.15184832811023008
-0.031189037451719723,-0.031189037451719723
-0.15347357529523512,-0.15347357529523512
-0.2313618159598946,-0.2313618159598946
-0.30535564459132114,-0.30535564459132114
-0.38324388525598063,-0.38324388525598063
-0.39726376857561935,-0.39726376857561935
-0.2765369955453971,-0.2765369955453971
-0.031189037451719723,-0.031189037451719723
0.21805333267519064,0.21805333267519064
0.3348856936721799,0.3348856936721799
0.2725751011404523,0.2725751011404523
0.12147191425101288,0.12147191425101288
0.017101671760369162,0.017101671760369162
0.02956379026671468,0.02956379026671468
0.09343214761173546,0.09343214761173546
0.09109550039179568,0.09109550039179568
-0.031189037451719723,-0.031189037451719723
-0.21422640301366952,-0.21422640301366952
-0.3871382972892136,-0.3871382972892136
-0.5187694240124882,-0.5187694240124882
-0.6161297248433125,-0.6161297248433125
-0.6714303757152208,-0.6714303757152208
-0.7150477904874301,-0.7150477904874301
-0.7929360311520895,-0.7929360311520895
-0.9167783338088982,-0.9167783338088982
-1.0063498105732565,-1.0063498105732565
-1.0008976337267304,-1.0008976337267304
-0.9455969828548222,-0.9455969828548222
-0.9487125124814085,-0.9487125124814085
-1.0678815206983376,-1.0678815206983376
-1.2641598871732795,-1.2641598871732795
-1.4635537832748078,-1.4635537832748078
-1.6037526164711946,-1.6037526164711946
-1.6465911488367575,-1.6465911488367575
-1.5889538507449095,-1.5889538507449095
-1.4331773694155905,-1.4331773694155905
-1.1410964669231174,-1.1410964669231174
-0.6410539618560035,-0.6410539618560035
0.073181205038924,0.073181205038924
0.8832189079513827,0.8832189079513827
1.5927807804064307,1.5927807804064307
2.0110406327756523,2.0110406327756523
1.992347455016134,1.992347455016134
1.4930838323556666,1.4930838323556666
0.6464386563308179,0.6464386563308179
-0.27497923073210395,-0.27497923073210395
-1.0320529299925942,-1.0320529299925942
-1.5250854933998887,-1.5250854933998887
-1.7307104487545897,-1.7307104487545897
-1.6465911488367575,-1.6465911488367575
-1.357625775970871,-1.357625775970871
-1.0678815206983376,-1.0678815206983376
-0.9619535133944006,-0.9619535133944006
-1.0367262244324738,-1.0367262244324738
-1.141875349329764,-1.141875349329764
-1.159010762275989,-1.159010762275989
-1.1029312289974342,-1.1029312289974342
-1.0367262244324738,-1.0367262244324738
-0.9705212198675132,-0.9705212198675132
-0.8544677412771705,-0.8544677412771705
-0.6854502590348595,-0.6854502590348595
-0.5187694240124882,-0.5187694240124882
-0.42374577040160355,-0.42374577040160355
-0.39726376857561935,-0.39726376857561935
-0.42686130002818995,-0.42686130002818995
-0.4883930101532709,-0.4883930101532709
-0.5475880730584122,-0.5475880730584122
-0.5187694240124882,-0.5187694240124882
-0.36688735471640216,-0.36688735471640216
-0.15347357529523512,-0.15347357529523512
0.01865943657366235,0.01865943657366235
0.12147191425101288,0.12147191425101288
0.2079278613887849,0.2079278613887849
0.3348856936721799,0.3348856936721799
0.4914410574081455,0.4914410574081455
0.6394287146709985,0.6394287146709985
0.7437989571616422,0.7437989571616422
0.7920896663737311,0.7920896663737311
0.7733964886142128,0.7733964886142128
0.7001815423894329,0.7001815423894329
0.634755420231119,0.634755420231119
0.6698051285302157,0.6698051285302157
0.844274787619053,0.844274787619053
1.0966326873725498,1.0966326873725498
1.3162775260468895,1.3162775260468895
1.4315521222305856,1.4315521222305856
1.4222055333508263,1.4222055333508263
1.3100464667937168,1.3100464667937168
1.1449233965846386,1.1449233965846386
1.0055034457948981,1.0055034457948981
0.9392984412299376,0.9392984412299376
0.9439717356698171,0.9439717356698171
0.9735692671223877,0.9735692671223877
1.0055034457948981,1.0055034457948981
1.0218599763344767,1.0218599763344767
1.0055034457948981,1.0055034457948981
0.9182686162504795,0.9182686162504795
0.7609343701078674,0.7609343701078674
0.5786758869525641,0.5786758869525641
0.4260149352498315,0.4260149352498315
0.3013937501863763,0.3013937501863763
0.1822247419694473,0.1822247419694473
0.09576879483167525,0.09576879483167525
0.12147191425101288,0.12147191425101288
0.2616707474474,0.2616707474474
0.3956385213906143,0.3956385213906143
0.376945343631096,0.376945343631096
0.21260115582866448,0.21260115582866448
0.04514143839964658,0.04514143839964658
0.02956379026671468,0.02956379026671468
0.19624462528908598,0.19624462528908598
0.4563913491090487,0.4563913491090487
0.65967965724381,0.65967965724381
0.7001815423894329,0.7001815423894329
0.5669926508528652,0.5669926508528652
0.3348856936721799,0.3348856936721799
0.06772902819239783,0.06772902819239783
-0.21422640301366952,-0.21422640301366952
-0.5086439527260824,-0.5086439527260824
-0.7625596172928724,-0.7625596172928724
-0.911326156962372,-0.911326156962372
-0.915220568995605,-0.915220568995605
-0.8217546801980136,-0.8217546801980136
-0.701806789574438,-0.701806789574438
-0.6340440201961842,-0.6340440201961842
-0.6410539618560035,-0.6410539618560035
-0.7072589664209641,-0.7072589664209641
-0.7929360311520895,-0.7929360311520895
-0.874718683849982,-0.874718683849982
-0.9455969828548222,-0.9455969828548222
-1.0055709281666099,-1.0055709281666099
-1.0367262244324738,-1.0367262244324738
-1.0071286929799033,-1.0071286929799033
-0.915220568995605,-0.915220568995605
-0.8349956811110056,-0.8349956811110056
-0.8240913274179533,-0.8240913274179533
-0.8046192672517885,-0.8046192672517885
-0.5795222517309225,-0.5795222517309225
-0.02651574301184015,-0.02651574301184015
0.7920896663737311,0.7920896663737311
1.6994876701170143,1.6994876701170143
2.498621019336421,2.498621019336421
2.957382756851265,2.957382756851265
2.8343193366011032,2.8343193366011032
2.0741301077140264,2.0741301077140264
0.9439717356698171,0.9439717356698171
-0.13088598550248387,-0.13088598550248387
-0.8848441551363877,-0.8848441551363877
-1.338153715804706,-1.338153715804706
-1.6162147349775402,-1.6162147349775402
-1.7447303320742285,-1.7447303320742285
-1.6465911488367575,-1.6465911488367575
-1.3217971852651276,-1.3217971852651276
-0.915220568995605,-0.915220568995605
-0.6106775479967863,-0.6106775479967863
-0.4883930101532709,-0.4883930101532709
-0.53434707214542,-0.53434707214542
-0.701806789574438,-0.701806789574438
-0.9222305106554243,-0.9222305106554243
-1.0678815206983376,-1.0678815206983376
-1.0273796355527147,-1.0273796355527147
-0.7929360311520895,-0.7929360311520895
-0.4922874221865039,-0.4922874221865039
-0.24460281687288674,-0.24460281687288674
-0.10440398367649964,-0.10440398367649964
-0.031189037451719723,-0.031189037451719723
0.005418435660670238,0.005418435660670238
0.02956379026671468,0.02956379026671468
0.04046814395976701,0.04046814395976701
0.05994020412593188,0.05994020412593188
0.10745203093137418,0.10745203093137418
0.1822247419694473,0.1822247419694473
0.26011298263410676,0.26011298263410676
0.3348856936721799,0.3348856936721799
0.42212052321659854,0.42212052321659854
0.5482994730933469,0.5482994730933469
0.7087492488625454,0.7087492488625454
0.8832189079513827,0.8832189079513827
1.0257543883677096,1.0257543883677096
1.0966326873725498,1.0966326873725498
1.077160627206385,1.077160627206385
0.9743481495290344,0.9743481495290344
0.8022151376601369,0.8022151376601369
0.6090523008117813,0.6090523008117813
0.4992298814746114,0.4992298814746114
0.5786758869525641,0.5786758869525641
0.8216871978263017,0.8216871978263017
1.0966326873725498,1.0966326873725498
1.303815407540544,1.303815407540544
1.4627074184964493,1.4627074184964493
1.578760897086792,1.578760897086792
1.5842130739333182,1.5842130739333182
1.4315521222305856,1.4315521222305856
1.2189172252160652,1.2189172252160652
1.0794972744263247,1.0794972744263247
1.0358798596541152,1.0358798596541152
0.9907046800686128,0.9907046800686128
0.8832189079513827,0.8832189079513827
0.721211367368891,0.721211367368891
0.5482994730933469,0.5482994730933469
0.38862857973079495,0.38862857973079495
0.2733539835470989,0.2733539835470989
0.21649556786189747,0.21649556786189747
0.21260115582866448,0.21260115582866448
0.23363098080812256,0.23363098080812256
0.2733539835470989,0.2733539835470989
0.33878010570541284,0.33878010570541284
0.4260149352498315,0.4260149352498315
0.48520999815497273,0.48520999815497273
0.4563913491090487,0.4563913491090487
0.3208658103525412,0.3208658103525412
0.15184832811023008,0.15184832811023008
0.047478085619586365,0.047478085619586365
0.05994020412593188,0.05994020412593188
0.13704956238394478,0.13704956238394478
0.1822247419694473,0.1822247419694473
0.12380856147095266,0.12380856147095266
-0.031189037451719723,-0.031189037451719723
-0.22980405114660143,-0.22980405114660143
-0.39726376857561935,-0.39726376857561935
-0.47125759720704585,-0.47125759720704585
-0.42764018243483654,-0.42764018243483654
-0.33806870567047814,-0.33806870567047814
-0.30535564459132114,-0.30535564459132114
-0.3871382972892136,-0.3871382972892136
-0.5187694240124882,-0.5187694240124882
-0.6301496081629512,-0.6301496081629512
-0.701806789574438,-0.701806789574438
-0.7586652052596394,-0.7586652052596394
-0.7929360311520895,-0.7929360311520895
-0.7976093255919692,-0.7976093255919692
-0.7929360311520895,-0.7929360311520895
-0.8108503265049612,-0.8108503265049612
-0.8544677412771705,-0.8544677412771705
-0.936250393975063,-0.936250393975063
-1.0678815206983376,-1.0678815206983376
-1.18627164650862,-1.18627164650862
-1.128634348416772,-1.128634348416772
-0.7625596172928724,-0.7625596172928724
-0.09194186517015412,-0.09194186517015412
0.7617132525145139,0.7617132525145139
1.6449659016517528,1.6449659016517528
2.369326539833086,2.369326539833086
2.7120347987575877,2.7120347987575877
2.5243241387557585,2.5243241387557585
1.8583796810729196,1.8583796810729196
0.9540972069562228,0.9540972069562228
0.09109550039179568,0.09109550039179568
-0.5491458378717053,-0.5491458378717053
-0.915220568995605,-0.915220568995605
-1.051524990158759,-1.051524990158759
-1.0367262244324738,-1.0367262244324738
-0.9510491597013483,-0.9510491597013483
-0.8544677412771705,-0.8544677412771705
-0.7890416191188566,-0.7890416191188566
-0.7625596172928724,-0.7625596172928724
-0.7547707932264064,-0.7547707932264064
-0.7321832034336552,-0.7321832034336552
-0.6823347294082731,-0.6823347294082731
-0.6106775479967863,-0.6106775479967863
-0.5327893073321268,-0.5327893073321268
-0.4580165962940537,-0.4580165962940537
-0.4066103574553785,-0.4066103574553785
-0.39726376857561935,-0.39726376857561935
-0.4634687731405799,-0.4634687731405799
-0.5795222517309225,-0.5795222517309225
-0.6792191997816867,-0.6792191997816867
-0.6714303757152208,-0.6714303757152208
-0.5701756628511634,-0.5701756628511634
-0.4580165962940537,-0.4580165962940537
-0.39648488616897276,-0.39648488616897276
-0.33573205845053833,-0.33573205845053833
-0.19631210766079785,-0.19631210766079785
0.02956379026671468,0.02956379026671468
0.2546608057875806,0.2546608057875806
0.3956385213906143,0.3956385213906143
0.4408137009761168,0.4408137009761168
0.4563913491090487,0.4563913491090487
0.5264907657072423,0.5264907657072423
0.7001815423894329,0.7001815423894329
0.9408562060432307,0.9408562060432307
1.1573855150909842,1.1573855150909842
1.278891170527853,1.278891170527853
1.3100464667937168,1.3100464667937168
1.3045942899471905,1.3045942899471905
1.3100464667937168,1.3100464667937168
1.3357495862130544,1.3357495862130544
1.3707992945121512,1.3707992945121512
1.390271354678316,1.390271354678316
1.3707992945121512,1.3707992945121512
1.3069309371671303,1.3069309371671303
1.2189172252160652,1.2189172252160652
1.1168836299453613,1.1168836299453613
1.0055034457948981,1.0055034457948981
0.8808822607314429,0.8808822607314429
0.7609343701078674,0.7609343701078674
0.6464386563308179,0.6464386563308179
0.5171441768274831,0.5171441768274831
0.34033787051870606,0.34033787051870606
0.12147191425101288,0.12147191425101288
-0.10206733645655985,-0.10206733645655985
-0.27497923073210395,-0.27497923073210395
-0.3731184139695749,-0.3731184139695749
-0.39726376857561935,-0.39726376857561935
-0.3777917084094545,-0.3777917084094545
-0.33573205845053833,-0.33573205845053833
-0.27186370110551755,-0.27186370110551755
-0.15347357529523512,-0.15347357529523512
0.03891037914647382,0.03891037914647382
0.2733539835470989,0.2733539835470989
0.4587279963289885,0.4587279963289885
0.5171441768274831,0.5171441768274831
0.4571702315156953,0.4571702315156953
0.3652621075313971,0.3652621075313971
0.30061486777972973,0.30061486777972973
0.2429775696878817,0.2429775696878817
0.14328062163711755,0.14328062163711755
-0.000812623592502521,-0.000812623592502521
-0.16437792898828746,-0.16437792898828746
-0.33573205845053833,-0.33573205845053833
-0.5218849536390745,-0.5218849536390745
-0.701806789574438,-0.701806789574438
-0.8513522116505842,-0.8513522116505842
-0.9455969828548222,-0.9455969828548222
-0.9884355152203849,-0.9884355152203849
-0.9759733967140394,-0.9759733967140394
-0.9393659236016494,-0.9393659236016494
-0.915220568995605,-0.915220568995605
-0.9385870411950028,-0.9385870411950028
-1.0063498105732565,-1.0063498105732565
-1.1021523465907876,-1.1021523465907876
-1.2197635899944235,-1.2197635899944235
-1.3770978361370358,-1.3770978361370358
-1.555461907259106,-1.555461907259106
-1.6652843265962758,-1.6652843265962758
-1.6162147349775402,-1.6162147349775402
-1.4355140166355305,-1.4355140166355305
-1.2197635899944235,-1.2197635899944235
-0.9541646893279347,-0.9541646893279347
-0.4883930101532709,-0.4883930101532709
0.24453533450117487,0.24453533450117487
1.127009101231767,1.127009101231767
2.0055884559291264,2.0055884559291264
2.7727876264760223,2.7727876264760223
3.2089617741981153,3.2089617741981153
2.986201405897189,2.986201405897189
2.0351859873816966,2.0351859873816966
0.7609343701078674,0.7609343701078674
-0.28588358442515627,-0.28588358442515627
-0.8848441551363877,-0.8848441551363877
-1.1558952326494027,-1.1558952326494027
-1.2501400038536408,-1.2501400038536408
-1.2236580020276566,-1.2236580020276566
-1.128634348416772,-1.128634348416772
-1.0530827549720523,-1.0530827549720523
-1.0367262244324738,-1.0367262244324738
-1.0468516957188796,-1.0468516957188796
-1.0367262244324738,-1.0367262244324738
-0.997782104100144,-0.997782104100144
-0.9455969828548222,-0.9455969828548222
-0.9136628041823117,-0.9136628041823117
-0.915220568995605,-0.915220568995605
-0.9269038050953039,-0.9269038050953039
-0.8848441551363877,-0.8848441551363877
-0.7695695589526917,-0.7695695589526917
-0.6106775479967863,-0.6106775479967863
-0.4915085397798573,-0.4915085397798573
-0.42764018243483654,-0.42764018243483654
-0.36688735471640216,-0.36688735471640216
-0.21422640301366952,-0.21422640301366952
0.030342672673361274,0.030342672673361274
0.2733539835470989,0.2733539835470989
0.41744722877671897,0.41744722877671897
0.4563913491090487,0.4563913491090487
0.45093917226252256,0.45093917226252256
0.4563913491090487,0.4563913491090487
0.4867677629682659,0.4867677629682659
0.5482994730933469,0.5482994730933469
0.6394287146709985,0.6394287146709985
0.7609343701078674,0.7609343701078674
0.9104797921840135,0.9104797921840135
1.0966326873725498,1.0966326873725498
1.3084887019804234,1.3084887019804234
1.4930838323556666,1.4930838323556666
1.580318661900085,1.580318661900085
1.553836660074101,1.553836660074101
1.4619285360898027,1.4619285360898027
1.3707992945121512,1.3707992945121512
1.284343347374379,1.284343347374379
1.1573855150909842,1.1573855150909842
0.9735692671223877,0.9735692671223877
0.8224660802329483,0.8224660802329483
0.8286971394861211,0.8286971394861211
1.0358798596541152,1.0358798596541152
1.3193930556734759,1.3193930556734759
1.4930838323556666,1.4930838323556666
1.4494664175834573,1.4494664175834573
1.2492936390752822,1.2492936390752822
1.0226388587411233,1.0226388587411233
0.8528424940921655,0.8528424940921655
0.7196536025555977,0.7196536025555977
0.5786758869525641,0.5786758869525641
0.41588946396342574,0.41588946396342574
0.2733539835470989,0.2733539835470989
0.19079244844255983,0.19079244844255983
0.1822247419694473,0.1822247419694473
0.21727445026854406,0.21727445026854406
0.2733539835470989,0.2733539835470989
0.348126694585172,0.348126694585172
0.4563913491090487,0.4563913491090487
0.565434886039572,0.565434886039572
0.6090523008117813,0.6090523008117813
0.5342795897737082,0.5342795897737082
0.3652621075313971,0.3652621075313971
0.1658682114298688,0.1658682114298688
-0.000812623592502521,-0.000812623592502521
-0.10751951330308603,-0.10751951330308603
-0.15347357529523512,-0.15347357529523512
-0.1869655187810387,-0.1869655187810387
-0.27497923073210395,-0.27497923073210395
-0.4463333601943548,-0.4463333601943548
-0.6410539618560035,-0.6410539618560035
-0.7726850885792781,-0.7726850885792781
-0.7929360311520895,-0.7929360311520895
-0.7423086747200609,-0.7423086747200609
-0.6714303757152208,-0.6714303757152208
-0.6309284905695978,-0.6309284905695978
-0.6106775479967863,-0.6106775479967863
-0.5803011341375691,-0.5803011341375691
-0.5187694240124882,-0.5187694240124882
-0.4611321259206401,-0.4611321259206401
-0.4580165962940537,-0.4580165962940537
-0.5070861879127893,-0.5070861879127893
-0.5491458378717053,-0.5491458378717053
-0.5686178980378702,-0.5686178980378702
-0.6410539618560035,-0.6410539618560035
-0.8583621533104036,-0.8583621533104036
-1.1893871761352064,-1.1893871761352064
-1.4526494295817554,-1.4526494295817554
-1.4331773694155905,-1.4331773694155905
-1.0297162827726545,-1.0297162827726545
-0.27497923073210395,-0.27497923073210395
0.7040759544226659,0.7040759544226659
1.7064976117768338,1.7064976117768338
2.43708930921134,2.43708930921134
2.590529143320719,2.590529143320719
2.060110224394388,2.060110224394388
1.0662562735133325,1.0662562735133325
0.03112155508000787,0.03112155508000787
-0.701806789574438,-0.701806789574438
-1.03984175405906,-1.03984175405906
-1.0982579345575547,-1.0982579345575547
-1.0507461077521125,-1.0507461077521125
-1.0063498105732565,-1.0063498105732565
-0.9845411031871519,-0.9845411031871519
-0.9455969828548222,-0.9455969828548222
-0.8614776829369899,-0.8614776829369899
-0.7321832034336552,-0.7321832034336552
-0.5865321933907419,-0.5865321933907419
-0.4580165962940537,-0.4580165962940537
-0.39414823894903295,-0.39414823894903295
-0.42764018243483654,-0.42764018243483654
-0.5444725434318258,-0.5444725434318258
-0.6714303757152208,-0.6714303757152208
-0.7329620858403018,-0.7329620858403018
-0.701806789574438,-0.701806789574438
-0.6418328442626502,-0.6418328442626502
-0.6106775479967863,-0.6106775479967863
-0.6309284905695978,-0.6309284905695978
-0.6410539618560035,-0.6410539618560035
-0.5888688406106817,-0.5888688406106817
-0.4580165962940537,-0.4580165962940537
-0.2796525251719835,-0.2796525251719835
-0.09194186517015412,-0.09194186517015412
0.052151380059465936,0.052151380059465936
0.12147191425101288,0.12147191425101288
0.13003962072412542,0.13003962072412542
0.15184832811023008,0.15184832811023008
0.22817880396159637,0.22817880396159637
0.3348856936721799,0.3348856936721799
0.41433169915013257,0.41433169915013257
0.4563913491090487,0.4563913491090487
0.4797578213084465,0.4797578213084465
0.5171441768274831,0.5171441768274831
0.6082734184051347,0.6082734184051347
0.7920896663737311,0.7920896663737311
1.0389953892807018,1.0389953892807018
1.2492936390752822,1.2492936390752822
1.3349707038064078,1.3349707038064078
1.3100464667937168,1.3100464667937168
1.2368315205689369,1.2368315205689369
1.1573855150909842,1.1573855150909842
1.0841705688662042,1.0841705688662042
1.0358798596541152,1.0358798596541152
1.017186681894597,1.017186681894597
1.0055034457948981,1.0055034457948981
0.9626649134293354,0.9626649134293354
0.8832189079513827,0.8832189079513827
0.7679443117676866,0.7679443117676866
0.6090523008117813,0.6090523008117813
0.40031181583049386,0.40031181583049386
0.1822247419694473,0.1822247419694473
0.007755082880610023,0.007755082880610023
-0.09194186517015412,-0.09194186517015412
-0.13088598550248387,-0.13088598550248387
-0.12231827902937133,-0.12231827902937133
-0.07169092259734265,-0.07169092259734265
0.02956379026671468,0.02956379026671468
0.15340609292352328,0.15340609292352328
0.2429775696878817,0.2429775696878817
0.23285209840147594,0.23285209840147594
0.12147191425101288,0.12147191425101288
-0.0350834494849527,-0.0350834494849527
-0.15347357529523512,-0.15347357529523512
-0.20877422616714336,-0.20877422616714336
-0.24460281687288674,-0.24460281687288674
-0.328722116790719,-0.328722116790719
-0.4580165962940537,-0.4580165962940537
-0.5413570138052394,-0.5413570138052394
-0.4883930101532709,-0.4883930101532709
-0.3396264704837713,-0.3396264704837713
-0.24460281687288674,-0.24460281687288674
-0.3030189973713813,-0.3030189973713813
-0.4580165962940537,-0.4580165962940537
-0.6052253711502602,-0.6052253711502602
-0.701806789574438,-0.701806789574438
-0.7820316774590372,-0.7820316774590372
-0.8544677412771705,-0.8544677412771705
-0.911326156962372,-0.911326156962372
-0.9455969828548222,-0.9455969828548222
-0.9518280421079949,-0.9518280421079949
-0.915220568995605,-0.915220568995605
-0.8591410357170501,-0.8591410357170501
-0.8544677412771705,-0.8544677412771705
-0.9471547476681154,-0.9471547476681154
-1.128634348416772,-1.128634348416772
-1.391896601863321,-1.391896601863321
-1.7384992728210555,-1.7384992728210555
-2.0718609428657984,-2.0718609428657984
-2.164547949256743,-2.164547949256743
-1.822618572738888,-1.822618572738888
-1.0678815206983376,-1.0678815206983376
-0.12465492624931111,-0.12465492624931111
0.7609343701078674,0.7609343701078674
1.4416775935169912,1.4416775935169912
1.8280032672137025,1.8280032672137025
1.8311187968402889,1.8311187968402889
1.4011757083713683,1.4011757083713683
0.6324187730111791,0.6324187730111791
-0.24460281687288674,-0.24460281687288674
-0.9946665744735577,-0.9946665744735577
-1.4947090795406717,-1.4947090795406717
-1.7143539182150112,-1.7143539182150112
-1.6769675626959746,-1.6769675626959746
-1.4658904304947475,-1.4658904304947475
-1.2197635899944235,-1.2197635899944235
-1.0468516957188796,-1.0468516957188796
-0.9455969828548222,-0.9455969828548222
-0.8669298597835161,-0.8669298597835161
-0.7929360311520895,-0.7929360311520895
-0.7407509099067677,-0.7407509099067677
-0.701806789574438,-0.701806789574438
-0.6542949627689957,-0.6542949627689957
-0.6106775479967863,-0.6106775479967863
-0.6161297248433125,-0.6161297248433125
-0.6714303757152208,-0.6714303757152208
-0.7438664395333541,-0.7438664395333541
-0.7929360311520895,-0.7929360311520895
-0.8529099764638773,-0.8529099764638773
-0.9455969828548222,-0.9455969828548222
-1.0445150484989396,-1.0445150484989396
-1.0367262244324738,-1.0367262244324738
-0.8490155644306444,-0.8490155644306444
-0.5187694240124882,-0.5187694240124882
-0.18307110674780575,-0.18307110674780575
0.05994020412593188,0.05994020412593188
0.22194774470842363,0.22194774470842363
0.3652621075313971,0.3652621075313971
0.4914410574081455,0.4914410574081455
0.5482994730933469,0.5482994730933469
0.5350584721803547,0.5350584721803547
0.5482994730933469,0.5482994730933469
0.6775939525966816,0.6775939525966816
0.9135953218105999,0.9135953218105999
1.1682898687840364,1.1682898687840364
1.3707992945121512,1.3707992945121512
1.4860738906958473,1.4860738906958473
1.4930838323556666,1.4930838323556666
1.3926080018982558,1.3926080018982558
1.2492936390752822,1.2492936390752822
1.1410289845514057,1.1410289845514057
1.0966326873725498,1.0966326873725498
1.0678140383266257,1.0678140383266257
1.0055034457948981,1.0055034457948981
0.9120375569973067,0.9120375569973067
0.8224660802329483,0.8224660802329483
0.7297790738420035,0.7297790738420035
0.5786758869525641,0.5786758869525641
0.32242357516583436,0.32242357516583436
0.02956379026671468,0.02956379026671468
-0.14957916326200216,-0.14957916326200216
-0.12231827902937133,-0.12231827902937133
0.010091730100549808,0.010091730100549808
0.05994020412593188,0.05994020412593188
-0.02651574301184015,-0.02651574301184015
-0.09194186517015412,-0.09194186517015412
0.02956379026671468,0.02956379026671468
0.3348856936721799,0.3348856936721799
0.6721417757501554,0.6721417757501554
0.9135953218105999,0.9135953218105999
1.0070612106081913,1.0070612106081913
0.9439717356698171,0.9439717356698171
0.7422411923483491,0.7422411923483491
0.4867677629682659,0.4867677629682659
0.2842583372401512,0.2842583372401512
0.1822247419694473,0.1822247419694473
0.13003962072412542,0.13003962072412542
0.05994020412593188,0.05994020412593188
-0.03819897911153908,-0.03819897911153908
-0.12231827902937133,-0.12231827902937133
-0.17761892990127956,-0.17761892990127956
-0.24460281687288674,-0.24460281687288674
-0.36532958990310893,-0.36532958990310893
-0.5187694240124882,-0.5187694240124882
-0.6628626692421082,-0.6628626692421082
-0.7929360311520895,-0.7929360311520895
-0.9650690430209871,-0.9650690430209871
-1.1893871761352064,-1.1893871761352064
-1.4199363685025985,-1.4199363685025985
-1.555461907259106,-1.555461907259106
-1.5336531998730014,-1.5336531998730014
-1.372424541697156,-1.372424541697156
-1.174588410408921,-1.174588410408921
-1.0367262244324738,-1.0367262244324738
-0.96896345505422,-0.96896345505422
-0.915220568995605,-0.915220568995605
-0.8653720949702228,-0.8653720949702228
-0.8848441551363877,-0.8848441551363877
-1.0149175170463691,-1.0149175170463691
-1.159010762275989,-1.159010762275989
-1.1270765836034788,-1.1270765836034788
-0.7929360311520895,-0.7929360311520895
-0.19942763728738422,-0.19942763728738422
0.5171441768274831,0.5171441768274831
1.2531880511085154,1.2531880511085154
1.9199113911980008,1.9199113911980008
2.3264880074675234,2.3264880074675234
2.2244544121968195,2.2244544121968195
1.542153423974402,1.542153423974402
0.5171441768274831,0.5171441768274831
-0.4813830684934516,-0.4813830684934516
-1.2197635899944235,-1.2197635899944235
-1.6504855608699904,-1.6504855608699904
-1.79925210053949,-1.79925210053949
-1.7151328006216577,-1.7151328006216577
-1.4947090795406717,-1.4947090795406717
-1.2548132982935203,-1.2548132982935203
-1.0678815206983376,-1.0678815206983376
-0.9572802189545211,-0.9572802189545211
-0.9455969828548222,-0.9455969828548222
-1.055419402191992,-1.055419402191992
-1.2501400038536408,-1.2501400038536408
-1.4277251925690644,-1.4277251925690644
-1.4635537832748078,-1.4635537832748078
-1.3101139491654286,-1.3101139491654286
-1.0063498105732565,-1.0063498105732565
-0.6667570812753412,-0.6667570812753412
-0.36688735471640216,-0.36688735471640216
-0.14880028085535554,-0.14880028085535554
-0.000812623592502521,-0.000812623592502521
0.07473896985221719,0.07473896985221719
0.09109550039179568,0.09109550039179568
0.062276851345871666,0.062276851345871666
0.02956379026671468,0.02956379026671468
0.024890495826835113,0.024890495826835113
0.05994020412593188,0.05994020412593188
0.12614520869089246,0.12614520869089246
0.21260115582866448,0.21260115582866448
0.3130769862860752,0.3130769862860752
0.4260149352498315,0.4260149352498315
0.5381740018069412,0.5381740018069412
0.6394287146709985,0.6394287146709985
0.7266635442154171,0.7266635442154171
0.8224660802329483,0.8224660802329483
0.9486450301096967,0.9486450301096967
1.0966326873725498,1.0966326873725498
1.2087917539296593,1.2087917539296593
1.2189172252160652,1.2189172252160652
1.1145469827254213,1.1145469827254213
0.9743481495290344,0.9743481495290344
0.8995754384909612,0.8995754384909612
0.9439717356698171,0.9439717356698171
1.061582979073453,1.061582979073453
1.1573855150909842,1.1573855150909842
1.148038926211225,1.148038926211225
1.0358798596541152,1.0358798596541152
0.8917866144244952,0.8917866144244952
0.8224660802329483,0.8224660802329483
0.8746512014782701,0.8746512014782701
1.0055034457948981,1.0055034457948981
1.0911805105260235,1.0911805105260235
1.0358798596541152,1.0358798596541152
0.84038037558582,0.84038037558582
0.6090523008117813,0.6090523008117813
0.43380375931629744,0.43380375931629744
0.3348856936721799,0.3348856936721799
0.2756906307670387,0.2756906307670387
0.2429775696878817,0.2429775696878817
0.24064092246794191,0.24064092246794191
0.2733539835470989,0.2733539835470989
0.3185291631326014,0.3185291631326014
0.3652621075313971,0.3652621075313971
0.41822611118336556,0.41822611118336556
0.4867677629682659,0.4867677629682659
0.5389528842135878,0.5389528842135878
0.5171441768274831,0.5171441768274831
0.37149316678456984,0.37149316678456984
0.12147191425101288,0.12147191425101288
-0.14880028085535554,-0.14880028085535554
-0.33573205845053833,-0.33573205845053833
-0.41128365189525806,-0.41128365189525806
-0.42764018243483654,-0.42764018243483654
-0.4735942444269856,-0.4735942444269856
-0.5795222517309225,-0.5795222517309225
-0.7041434367943777,-0.7041434367943777
-0.7625596172928724,-0.7625596172928724
-0.7298465562137154,-0.7298465562137154
-0.6410539618560035,-0.6410539618560035
-0.5795222517309225,-0.5795222517309225
-0.5795222517309225,-0.5795222517309225
-0.636380667416124,-0.636380667416124
-0.701806789574438,-0.701806789574438
-0.7368564978735347,-0.7368564978735347
-0.7321832034336552,-0.7321832034336552
-0.7173844377073698,-0.7173844377073698
-0.7321832034336552,-0.7321832034336552
-0.784368324678977,-0.784368324678977
-0.8544677412771705,-0.8544677412771705
-0.9448181004481756,-0.9448181004481756
-1.0678815206983376,-1.0678815206983376
-1.1823772344753871,-1.1823772344753871
-1.159010762275989,-1.159010762275989
-0.8614776829369899,-0.8614776829369899
-0.24460281687288674,-0.24460281687288674
0.6106100656250745,0.6106100656250745
1.5234602462148836,1.5234602462148836
2.2447053547696307,2.2447053547696307
2.528997433195638,2.528997433195638
2.2493786492095103,2.2493786492095103
1.4930838323556666,1.4930838323556666
0.5093553527610172,0.5093553527610172
-0.4580165962940537,-0.4580165962940537
-1.3062195371321956,-1.3062195371321956
-1.9822894661014399,-1.9822894661014399
-2.338238725938934,-2.338238725938934
-2.1957032455226067,-2.1957032455226067
-1.6053103812844878,-1.6053103812844878
-0.915220568995605,-0.915220568995605
-0.480604186086805,-0.480604186086805
-0.36688735471640216,-0.36688735471640216
-0.4058314750487319,-0.4058314750487319
-0.4580165962940537,-0.4580165962940537
-0.5047495406928494,-0.5047495406928494
-0.5491458378717053,-0.5491458378717053
-0.5616079563780508,-0.5616079563780508
-0.5187694240124882,-0.5187694240124882
-0.4502277722275878,-0.4502277722275878
-0.36688735471640216,-0.36688735471640216
-0.263295994632405,-0.263295994632405
-0.12231827902937133,-0.12231827902937133
-0.0023703884057957106,-0.0023703884057957106
0.02956379026671468,0.02956379026671468
-0.055334392057764165,-0.055334392057764165
-0.18384998915445233,-0.18384998915445233
-0.267190406665638,-0.267190406665638
-0.27497923073210395,-0.27497923073210395
-0.24693946409282652,-0.24693946409282652
-0.21422640301366952,-0.21422640301366952
-0.16437792898828746,-0.16437792898828746
-0.06156545131093692,-0.06156545131093692
0.09343214761173546,0.09343214761173546
0.2733539835470989,0.2733539835470989
0.4431503481960566,0.4431503481960566
0.6090523008117813,0.6090523008117813
0.7990996080335505,0.7990996080335505
1.0358798596541152,1.0358798596541152
1.2796700529344995,1.2796700529344995
1.4315521222305856,1.4315521222305856
1.3855980602384363,1.3855980602384363
1.1573855150909842,1.1573855150909842
0.9478661477030501,0.9478661477030501
1.0055034457948981,1.0055034457948981
1.3700204121055046,1.3700204121055046
1.8280032672137025,1.8280032672137025
2.1263152289593483,2.1263152289593483
2.194077998337602,2.194077998337602
2.0881499910336654,2.0881499910336654
1.8583796810729196,1.8583796810729196
1.5312490702813497,1.5312490702813497
1.1877619289502013,1.1877619289502013
0.9237207930970056,0.9237207930970056
0.7609343701078674,0.7609343701078674
0.6425442442975848,0.6425442442975848
0.5171441768274831,0.5171441768274831
0.3691565195646301,0.3691565195646301
0.21260115582866448,0.21260115582866448
0.07473896985221719,0.07473896985221719
-0.000812623592502521,-0.000812623592502521
-0.018726918945374205,-0.018726918945374205
-0.031189037451719723,-0.031189037451719723
-0.08804745313692115,-0.08804745313692115
-0.15347357529523512,-0.15347357529523512
-0.14880028085535554,-0.14880028085535554
-0.031189037451719723,-0.031189037451719723
0.15574274014346307,0.15574274014346307
0.3348856936721799,0.3348856936721799
0.438477053756177,0.438477053756177
0.4563913491090487,0.4563913491090487
0.38940746213744154,0.38940746213744154
0.2429775696878817,0.2429775696878817
0.020996083793602138,0.020996083793602138
-0.21422640301366952,-0.21422640301366952
-0.34975194177017704,-0.34975194177017704
-0.30535564459132114,-0.30535564459132114
-0.14490586882212259,-0.14490586882212259
-0.031189037451719723,-0.031189037451719723
-0.07792198185051542,-0.07792198185051542
-0.24460281687288674,-0.24460281687288674
-0.4330923592813627,-0.4330923592813627
-0.5795222517309225,-0.5795222517309225
-0.6916813182880323,-0.6916813182880323
-0.7625596172928724,-0.7625596172928724
-0.7905993839321498,-0.7905993839321498
-0.7929360311520895,-0.7929360311520895
-0.8022826200318487,-0.8022826200318487
-0.8240913274179533,-0.8240913274179533
-0.8404478579575319,-0.8404478579575319
-0.8544677412771705,-0.8544677412771705
-0.8887385671696207,-0.8887385671696207
-0.9455969828548222,-0.9455969828548222
-0.997782104100144,-0.997782104100144
-1.0063498105732565,-1.0063498105732565
-0.9572802189545211,-0.9572802189545211
-0.8240913274179533,-0.8240913274179533
-0.5304526601121871,-0.5304526601121871
0.02956379026671468,0.02956379026671468
0.8723145542583304,0.8723145542583304
1.7976268533544852,1.7976268533544852
2.417617249045175,2.417617249045175
2.407491777758769,2.407491777758769
1.759461615428802,1.759461615428802
0.7920896663737311,0.7920896663737311
-0.10674063089643943,-0.10674063089643943
-0.7321832034336552,-0.7321832034336552
-1.0904691104910889,-1.0904691104910889
-1.2501400038536408,-1.2501400038536408
-1.2524766510735805,-1.2524766510735805
-1.128634348416772,-1.128634348416772
-0.9471547476681154,-0.9471547476681154
-0.7929360311520895,-0.7929360311520895
-0.7080378488276107,-0.7080378488276107
-0.6714303757152208,-0.6714303757152208
-0.6465061387025297,-0.6465061387025297
-0.6106775479967863,-0.6106775479967863
-0.5662812508179305,-0.5662812508179305
-0.5187694240124882,-0.5187694240124882
-0.4813830684934516,-0.4813830684934516
-0.4580165962940537,-0.4580165962940537
-0.4611321259206401,-0.4611321259206401
-0.4883930101532709,-0.4883930101532709
-0.5553768971248781,-0.5553768971248781
-0.6410539618560035,-0.6410539618560035
-0.7072589664209641,-0.7072589664209641
-0.6714303757152208,-0.6714303757152208
-0.5086439527260824,-0.5086439527260824
-0.30535564459132114,-0.30535564459132114
-0.24693946409282652,-0.24693946409282652
-0.39726376857561935,-0.39726376857561935
-0.5623868387846974,-0.5623868387846974
-0.42764018243483654,-0.42764018243483654
0.073181205038924,0.073181205038924
0.6698051285302157,0.6698051285302157
1.0530152726003403,1.0530152726003403
1.1877619289502013,1.1877619289502013
1.2298215789091174,1.2298215789091174
1.2796700529344995,1.2796700529344995
1.3271818797399417,1.3271818797399417
1.3707992945121512,1.3707992945121512
1.430773239823939,1.430773239823939
1.4930838323556666,1.4930838323556666
1.5211235989949439,1.5211235989949439
1.5234602462148836,1.5234602462148836
1.525018011028177,1.525018011028177
1.5234602462148836,1.5234602462148836
1.5039881860487188,1.5039881860487188
1.4930838323556666,1.4930838323556666
1.5039881860487188,1.5039881860487188
1.4930838323556666,1.4930838323556666
1.369241529698858,1.369241529698858
1.0966326873725498,1.0966326873725498
0.7219902497755376,0.7219902497755376
0.3652621075313971,0.3652621075313971
0.13704956238394478,0.13704956238394478
0.05994020412593188,0.05994020412593188
0.025669378233481706,0.025669378233481706
-0.09194186517015412,-0.09194186517015412
-0.29756682052485517,-0.29756682052485517
-0.42764018243483654,-0.42764018243483654
-0.3396264704837713,-0.3396264704837713
-0.06156545131093692,-0.06156545131093692
0.22194774470842363,0.22194774470842363
0.3652621075313971,0.3652621075313971
0.3652621075313971,0.3652621075313971
0.3348856936721799,0.3348856936721799
0.3637043427181039,0.3637043427181039
0.4563913491090487,0.4563913491090487
0.5303851777404752,0.5303851777404752
0.5171441768274831,0.5171441768274831
0.413552816743486,0.413552816743486
0.2733539835470989,0.2733539835470989
0.134712915164005,0.134712915164005
-0.000812623592502521,-0.000812623592502521
-0.13478039753571686,-0.13478039753571686
-0.24460281687288674,-0.24460281687288674
-0.31314446865778706,-0.31314446865778706
-0.36688735471640216,-0.36688735471640216
-0.46736318517381287,-0.46736318517381287
-0.6410539618560035,-0.6410539618560035
-0.8552466236838171,-0.8552466236838171
-1.0367262244324738,-1.0367262244324738
-1.1582318798693425,-1.1582318798693425
-1.2197635899944235,-1.2197635899944235
-1.2431300621938215,-1.2431300621938215
-1.2197635899944235,-1.2197635899944235
-1.1808194696620937,-1.1808194696620937
-1.1893871761352064,-1.1893871761352064
-1.2789586528995647,-1.2789586528995647
-1.4028009555563734,-1.4028009555563734
-1.501719021200491,-1.501719021200491
-1.555461907259106,-1.555461907259106
-1.5375476119062343,-1.5375476119062343
-1.4028009555563734,-1.4028009555563734
-1.1730306455956279,-1.1730306455956279
-0.915220568995605,-0.915220568995605
-0.5740700748843964,-0.5740700748843964
-0.000812623592502521,-0.000812623592502521
0.7889741367471447,0.7889741367471447
1.5842130739333182,1.5842130739333182
2.282870592695314,2.282870592695314
2.925448578178755,2.925448578178755
3.310216487062173,3.310216487062173
2.955824992037972,2.955824992037972
1.7228541423164123,1.7228541423164123
0.1822247419694473,0.1822247419694473
-0.940144806008296,-0.940144806008296
-1.4635537832748078,-1.4635537832748078
-1.6520433256832836,-1.6520433256832836
-1.6769675626959746,-1.6769675626959746
-1.5352109646862946,-1.5352109646862946
-1.3116717139787217,-1.3116717139787217
-1.190166058541853,-1.190166058541853
-1.2197635899944235,-1.2197635899944235
-1.2828530649327978,-1.2828530649327978
-1.2812953001195047,-1.2812953001195047
-1.2197635899944235,-1.2197635899944235
-1.128634348416772,-1.128634348416772
-1.0172541642663089,-1.0172541642663089
-0.8848441551363877,-0.8848441551363877
-0.7430875571267075,-0.7430875571267075
-0.5795222517309225,-0.5795222517309225
-0.4003792982022057,-0.4003792982022057
-0.21422640301366952,-0.21422640301366952
-0.08025862907045521,-0.08025862907045521
-0.031189037451719723,-0.031189037451719723
-0.060007686497643736,-0.060007686497643736
-0.09194186517015412,-0.09194186517015412
-0.08804745313692115,-0.08804745313692115
-0.06156545131093692,-0.06156545131093692
-0.033525684671659506,-0.033525684671659506
0.02956379026671468,0.02956379026671468
0.15963715217669602,0.15963715217669602
0.3348856936721799,0.3348856936721799
0.49377770462808523,0.49377770462808523
0.6090523008117813,0.6090523008117813
0.684603894256501,0.684603894256501
0.73055795624865,0.73055795624865
0.7585977228879275,0.7585977228879275
0.7920896663737311,0.7920896663737311
0.8411592579924666,0.8411592579924666
0.8832189079513827,0.8832189079513827
0.8902288496112021,0.8902288496112021
0.8832189079513827,0.8832189079513827
0.9174897338438329,0.9174897338438329
1.0358798596541152,1.0358798596541152
1.2196961076227117,1.2196961076227117
1.4011757083713683,1.4011757083713683
1.4899683027290802,1.4899683027290802
1.4627074184964493,1.4627074184964493
1.3879347074583763,1.3879347074583763
1.3707992945121512,1.3707992945121512
1.4113011796577741,1.4113011796577741
1.4011757083713683,1.4011757083713683
1.2524091687018688,1.2524091687018688
1.0055034457948981,1.0055034457948981
0.7476933691948752,0.7476933691948752
0.5171441768274831,0.5171441768274831
0.2850372196467978,0.2850372196467978
0.05994020412593188,0.05994020412593188
-0.10284621886320645,-0.10284621886320645
-0.15347357529523512,-0.15347357529523512
-0.10907727811637921,-0.10907727811637921
-0.031189037451719723,-0.031189037451719723
0.01865943657366235,0.01865943657366235
0.02956379026671468,0.02956379026671468
0.030342672673361274,0.030342672673361274
0.05994020412593188,0.05994020412593188
0.10823091333802076,0.10823091333802076
0.12147191425101288,0.12147191425101288
0.052151380059465936,0.052151380059465936
-0.06156545131093692,-0.06156545131093692
-0.13088598550248387,-0.13088598550248387
-0.09194186517015412,-0.09194186517015412
-3.3741185855926014e-05,-3.3741185855926014e-05
0.02956379026671468,0.02956379026671468
-0.07013315778404947,-0.07013315778404947
-0.24460281687288674,-0.24460281687288674
-0.4058314750487319,-0.4058314750487319
-0.5187694240124882,-0.5187694240124882
-0.6169086072499591,-0.6169086072499591
-0.701806789574438,-0.701806789574438
-0.7407509099067677,-0.7407509099067677
-0.701806789574438,-0.701806789574438
-0.649621668329116,-0.649621668329116
-0.6714303757152208,-0.6714303757152208
-0.7968304431853225,-0.7968304431853225
-0.9455969828548222,-0.9455969828548222
-1.0234852235194816,-1.0234852235194816
-1.0063498105732565,-1.0063498105732565
-0.9346926291617699,-0.9346926291617699
-0.8544677412771705,-0.8544677412771705
-0.8038403848451419,-0.8038403848451419
-0.8240913274179533,-0.8240913274179533
-0.9339137467551233,-0.9339137467551233
-1.0678815206983376,-1.0678815206983376
-1.0857958160512093,-1.0857958160512093
-0.8544677412771705,-0.8544677412771705
-0.3372898232638315,-0.3372898232638315
0.3956385213906143,0.3956385213906143
1.1955507530166674,1.1955507530166674
1.888756094932137,1.888756094932137
2.3140258889611776,2.3140258889611776
2.3467389500403346,2.3467389500403346
1.934710156924286,1.934710156924286
1.1573855150909842,1.1573855150909842
0.2398620400612953,0.2398620400612953
-0.5795222517309225,-0.5795222517309225
-1.2135325307412508,-1.2135325307412508
-1.6769675626959746,-1.6769675626959746
-1.9020645782168406,-1.9020645782168406
-1.7384992728210555,-1.7384992728210555
-1.2314468260941225,-1.2314468260941225
-0.701806789574438,-0.701806789574438
-0.43465012409465587,-0.43465012409465587
-0.39726376857561935,-0.39726376857561935
-0.3957060037623261,-0.3957060037623261
-0.36688735471640216,-0.36688735471640216
-0.38246500284933405,-0.38246500284933405
-0.4580165962940537,-0.4580165962940537
-0.525000483265661,-0.525000483265661
-0.5491458378717053,-0.5491458378717053
-0.5693967804445168,-0.5693967804445168
-0.5795222517309225,-0.5795222517309225
-0.5538191323115849,-0.5538191323115849
-0.4580165962940537,-0.4580165962940537
-0.31703888069102004,-0.31703888069102004
-0.15347357529523512,-0.15347357529523512
-0.01639027172543442,-0.01639027172543442
0.05994020412593188,0.05994020412593188
0.07863338188545016,0.07863338188545016
0.09109550039179568,0.09109550039179568
0.12848185591083225,0.12848185591083225
0.1822247419694473,0.1822247419694473
0.22038997989513043,0.22038997989513043
0.2429775696878817,0.2429775696878817
0.2569974530075204,0.2569974530075204
0.2733539835470989,0.2733539835470989
0.3037303974063161,0.3037303974063161
0.3956385213906143,0.3956385213906143
0.5997057119320222,0.5997057119320222
0.9135953218105999,0.9135953218105999
1.2563035807351017,1.2563035807351017
1.5234602462148836,1.5234602462148836
1.6730056682910301,1.6730056682910301
1.7368740256360509,1.7368740256360509
1.7547883209889226,1.7547883209889226
1.7368740256360509,1.7368740256360509
1.6823522571707892,1.6823522571707892
1.6145894877925355,1.6145894877925355
1.553836660074101,1.553836660074101
1.4930838323556666,1.4930838323556666
1.4003968259647217,1.4003968259647217
1.2796700529344995,1.2796700529344995
1.153491103057751,1.153491103057751
1.0358798596541152,1.0358798596541152
0.886334437577969,0.886334437577969
0.6698051285302157,0.6698051285302157
0.38940746213744154,0.38940746213744154
0.09109550039179568,0.09109550039179568
-0.201764284507324,-0.201764284507324
-0.4580165962940537,-0.4580165962940537
-0.5974365470837942,-0.5974365470837942
-0.5187694240124882,-0.5187694240124882
-0.2500549937194129,-0.2500549937194129
0.02956379026671468,0.02956379026671468
0.14483838645041072,0.14483838645041072
0.12147191425101288,0.12147191425101288
0.11913526703107309,0.11913526703107309
0.2429775696878817,0.2429775696878817
0.4205627584033053,0.4205627584033053
0.5171441768274831,0.5171441768274831
0.47041123242868743,0.47041123242868743
0.3348856936721799,0.3348856936721799
0.18611915400268025,0.18611915400268025
0.05994020412593188,0.05994020412593188
-0.05844992168435054,-0.05844992168435054
-0.18384998915445233,-0.18384998915445233
-0.31781776309766663,-0.31781776309766663
-0.4580165962940537,-0.4580165962940537
-0.6106775479967863,-0.6106775479967863
-0.7625596172928724,-0.7625596172928724
-0.9012006856759662,-0.9012006856759662
-1.0063498105732565,-1.0063498105732565
-1.086574698457856,-1.086574698457856
-1.128634348416772,-1.128634348416772
-1.116951112317073,-1.116951112317073
-1.0367262244324738,-1.0367262244324738
-0.9253460402820107,-0.9253460402820107
-0.8544677412771705,-0.8544677412771705
-0.8848441551363877,-0.8848441551363877
-1.0063498105732565,-1.0063498105732565
-1.1473275261762903,-1.1473275261762903
-1.2501400038536408,-1.2501400038536408
-1.3389325982113527,-1.3389325982113527
-1.4635537832748078,-1.4635537832748078
-1.6045314988778412,-1.6045314988778412
-1.6162147349775402,-1.6162147349775402
-1.321018302858481,-1.321018302858481
-0.6410539618560035,-0.6410539618560035
0.31541363350601503,0.31541363350601503
1.3100464667937168,1.3100464667937168
2.0858133438137254,2.0858133438137254
2.4378681916179863,2.4378681916179863
2.236916530703165,2.236916530703165
1.4930838323556666,1.4930838323556666
0.43769817134953043,0.43769817134953043
-0.5795222517309225,-0.5795222517309225
-1.334259303771473,-1.334259303771473
-1.79925210053949,-1.79925210053949
-1.9791739364748535,-1.9791739364748535
-1.8296285143987072,-1.8296285143987072
-1.4253885453491246,-1.4253885453491246
-1.0367262244324738,-1.0367262244324738
-0.8918540967962071,-0.8918540967962071
-0.9455969828548222,-0.9455969828548222
-1.0102442226064896,-1.0102442226064896
-1.0063498105732565,-1.0063498105732565
-0.9720789846808063,-0.9720789846808063
-0.915220568995605,-0.915220568995605
-0.8201969153847204,-0.8201969153847204
-0.7321832034336552,-0.7321832034336552
-0.7384142626868279,-0.7384142626868279
-0.8240913274179533,-0.8240913274179533
-0.8957485088294401,-0.8957485088294401
-0.8544677412771705,-0.8544677412771705
-0.7111533784541971,-0.7111533784541971
-0.5187694240124882,-0.5187694240124882
-0.3419631177037111,-0.3419631177037111
-0.21422640301366952,-0.21422640301366952
-0.15269469288858853,-0.15269469288858853
-0.15347357529523512,-0.15347357529523512
-0.1737245178680466,-0.1737245178680466
-0.15347357529523512,-0.15347357529523512
-0.07246980500398925,-0.07246980500398925
0.02956379026671468,0.02956379026671468
0.10044208927155482,0.10044208927155482
0.15184832811023008,0.15184832811023008
0.24687198172111466,0.24687198172111466
0.4260149352498315,0.4260149352498315
0.6573430100238702,0.6573430100238702
0.8832189079513827,0.8832189079513827
1.0787183920196781,1.0787183920196781
1.2492936390752822,1.2492936390752822
1.361452705632392,1.361452705632392
1.340422880652934,1.340422880652934
1.148038926211225,1.148038926211225
0.8528424940921655,0.8528424940921655
0.5856858286123835,0.5856858286123835
0.4563913491090487,0.4563913491090487
0.5101342351676638,0.5101342351676638
0.73055795624865,0.73055795624865
1.0179655643012437,1.0179655643012437
1.2189172252160652,1.2189172252160652
1.2189172252160652,1.2189172252160652
1.0358798596541152,1.0358798596541152
0.7757331358341526,0.7757331358341526
0.5482994730933469,0.5482994730933469
0.40109069823714044,0.40109069823714044
0.3348856936721799,0.3348856936721799
0.30840369184619565,0.30840369184619565
0.2733539835470989,0.2733539835470989
0.20481233176219854,0.20481233176219854
0.12147191425101288,0.12147191425101288
0.054488027279405715,0.054488027279405715
0.02956379026671468,0.02956379026671468
0.051372497652819336,0.051372497652819336
0.12147191425101288,0.12147191425101288
0.2102645086087247,0.2102645086087247
0.2733539835470989,0.2733539835470989
0.2655651594806329,0.2655651594806329
0.1822247419694473,0.1822247419694473
0.05370914487275912,0.05370914487275912
-0.09194186517015412,-0.09194186517015412
-0.267190406665638,-0.267190406665638
-0.4580165962940537,-0.4580165962940537
-0.5904266054239748,-0.5904266054239748
-0.5795222517309225,-0.5795222517309225
-0.476709774053572,-0.476709774053572
-0.4580165962940537,-0.4580165962940537
-0.6356017850094774,-0.6356017850094774
-0.915220568995605,-0.915220568995605
-1.1060467586240208,-1.1060467586240208
-1.0982579345575547,-1.0982579345575547
-0.9378081587883562,-0.9378081587883562
