ECG,PPG
-3.8973761251937598,-3.8973761251937598
-4.1725553870344365,-4.1725553870344365
-3.8973761251937598,-3.8973761251937598
-3.7533369803240304,-3.7533369803240304
-3.8973761251937598,-3.8973761251937598
-3.9833696445189712,-3.9833696445189712
-3.8973761251937598,-3.8973761251937598
-3.8407637249713287,-3.8407637249713287
-3.8973761251937598,-3.8973761251937598
-3.9317735329238443,-3.9317735329238443
-3.8973761251937598,-3.8973761251937598
-3.8737279073793265,-3.8737279073793265
-3.8973761251937598,-3.8973761251937598
-3.909558540431498,-3.909558540431498
-3.8973761251937598,-3.8973761251937598
-3.889493385922282,-3.889493385922282
-3.8973761251937598,-3.8973761251937598
-3.89952596317689,-3.89952596317689
-3.8973761251937598,-3.8973761251937598
-3.8952262872106296,-3.8952262872106296
-3.8973761251937598,-3.8973761251937598
-3.8952262872106296,-3.8952262872106296
-3.8973761251937598,-3.8973761251937598
-3.8952262872106296,-3.8952262872106296
-3.8973761251937598,-3.8973761251937598
-3.8952262872106296,-3.8952262872106296
-3.8973761251937598,-3.8973761251937598
-3.8952262872106296,-3.8952262872106296
-3.8973761251937598,-3.8973761251937598
-3.8952262872106296,-3.8952262872106296
-3.8973761251937598,-3.8973761251937598
-3.8952262872106296,-3.8952262872106296
-3.8973761251937598,-3.8973761251937598
-3.8952262872106296,-3.8952262872106296
-3.8973761251937598,-3.8973761251937598
-3.8952262872106296,-3.8952262872106296
-3.8973761251937598,-3.8973761251937598
-3.8952262872106296,-3.8952262872106296
-3.8973761251937598,-3.8973761251937598
-3.8952262872106296,-3.8952262872106296
-3.8973761251937598,-3.8973761251937598
-3.8952262872106296,-3.8952262872106296
-3.8973761251937598,-3.8973761251937598
-3.8952262872106296,-3.8952262872106296
-3.8973761251937598,-3.8973761251937598
-3.8952262872106296,-3.8952262872106296
-3.8973761251937598,-3.8973761251937598
-3.8952262872106296,-3.8952262872106296
-3.8973761251937598,-3.8973761251937598
-3.8952262872106296,-3.8952262872106296
-3.8973761251937598,-3.8973761251937598
-3.8952262872106296,-3.8952262872106296
-3.8973761251937598,-3.8973761251937598
-3.8952262872106296,-3.8952262872106296
-3.8973761251937598,-3.8973761251937598
-3.8952262872106296,-3.8952262872106296
-3.8973761251937598,-3.8973761251937598
-3.8952262872106296,-3.8952262872106296
-3.8973761251937598,-3.8973761251937598
-3.8952262872106296,-3.8952262872106296
-3.8973761251937598,-3.8973761251937598
-3.8952262872106296,-3.8952262872106296
-3.8973761251937598,-3.8973761251937598
-3.8952262872106296,-3.8952262872106296
-3.8973761251937598,-3.8973761251937598
-3.8952262872106296,-3.8952262872106296
-3.8973761251937598,-3.8973761251937598
-3.8952262872106296,-3.8952262872106296
-3.8973761251937598,-3.8973761251937598
-3.8952262872106296,-3.8952262872106296
-3.8973761251937598,-3.8973761251937598
-3.8952262872106296,-3.8952262872106296
-3.8973761251937598,-3.8973761251937598
-3.8952262872106296,-3.8952262872106296
-3.8973761251937598,-3.8973761251937598
-3.8952262872106296,-3.8952262872106296
-3.8973761251937598,-3.8973761251937598
-3.8952262872106296,-3.8952262872106296
-3.8973761251937598,-3.8973761251937598
-3.8952262872106296,-3.8952262872106296
-3.8973761251937598,-3.8973761251937598
-3.8952262872106296,-3.8952262872106296
-3.8973761251937598,-3.8973761251937598
-3.8952262872106296,-3.8952262872106296
-3.8973761251937598,-3.8973761251937598
-3.8952262872106296,-3.8952262872106296
-3.8973761251937598,-3.8973761251937598
-3.8952262872106296,-3.8952262872106296
-3.8973761251937598,-3.8973761251937598
-3.8952262872106296,-3.8952262872106296
-3.8973761251937598,-3.8973761251937598
-3.8952262872106296,-3.8952262872106296
-3.8973761251937598,-3.8973761251937598
-3.8952262872106296,-3.8952262872106296
-3.8973761251937598,-3.8973761251937598
-3.8952262872106296,-3.8952262872106296
-3.8973761251937598,-3.8973761251937598
-3.8952262872106296,-3.8952262872106296
-3.8973761251937598,-3.8973761251937598
-3.8952262872106296,-3.8952262872106296
-3.8973761251937598,-3.8973761251937598
-3.8952262872106296,-3.8952262872106296
-3.8973761251937598,-3.8973761251937598
-3.8952262872106296,-3.8952262872106296
-3.8973761251937598,-3.8973761251937598
-3.8952262872106296,-3.8952262872106296
-3.8973761251937598,-3.8973761251937598
-3.8952262872106296,-3.8952262872106296
-3.8973761251937598,-3.8973761251937598
-3.8952262872106296,-3.8952262872106296
-3.8973761251937598,-3.8973761251937598
-3.8952262872106296,-3.8952262872106296
-3.8973761251937598,-3.8973761251937598
-3.8952262872106296,-3.8952262872106296
-3.8973761251937598,-3.8973761251937598
-3.8952262872106296,-3.8952262872106296
-3.8973761251937598,-3.8973761251937598
-3.8952262872106296,-3.8952262872106296
-3.8973761251937598,-3.8973761251937598
-3.8952262872106296,-3.8952262872106296
-3.8973761251937598,-3.8973761251937598
-3.8952262872106296,-3.8952262872106296
-3.8973761251937598,-3.8973761251937598
-3.8952262872106296,-3.8952262872106296
-3.8973761251937598,-3.8973761251937598
-3.8952262872106296,-3.8952262872106296
-3.8973761251937598,-3.8973761251937598
-3.8952262872106296,-3.8952262872106296
-3.8973761251937598,-3.8973761251937598
-3.8952262872106296,-3.8952262872106296
-3.8973761251937598,-3.8973761251937598
-3.8952262872106296,-3.8952262872106296
-3.8973761251937598,-3.8973761251937598
-3.8952262872106296,-3.8952262872106296
-3.8973761251937598,-3.8973761251937598
-3.8952262872106296,-3.8952262872106296
-3.8973761251937598,-3.8973761251937598
-3.8952262872106296,-3.8952262872106296
-3.8973761251937598,-3.8973761251937598
-3.8952262872106296,-3.8952262872106296
-3.8973761251937598,-3.8973761251937598
-3.8952262872106296,-3.8952262872106296
-3.8973761251937598,-3.8973761251937598
-3.8952262872106296,-3.8952262872106296
-3.8973761251937598,-3.8973761251937598
-3.8952262872106296,-3.8952262872106296
-3.8973761251937598,-3.8973761251937598
-3.8952262872106296,-3.8952262872106296
-3.8973761251937598,-3.8973761251937598
-3.8952262872106296,-3.8952262872106296
-3.8973761251937598,-3.8973761251937598
-3.8952262872106296,-3.8952262872106296
-3.8973761251937598,-3.8973761251937598
-3.8952262872106296,-3.8952262872106296
-3.8973761251937598,-3.8973761251937598
-3.8952262872106296,-3.8952262872106296
-3.8973761251937598,-3.8973761251937598
-3.8952262872106296,-3.8952262872106296
-3.8973761251937598,-3.8973761251937598
-3.8952262872106296,-3.8952262872106296
-3.8973761251937598,-3.8973761251937598
-3.8952262872106296,-3.8952262872106296
-3.8973761251937598,-3.8973761251937598
-3.8952262872106296,-3.8952262872106296
-3.8973761251937598,-3.8973761251937598
-3.8952262872106296,-3.8952262872106296
-3.8973761251937598,-3.8973761251937598
-3.8952262872106296,-3.8952262872106296
-3.8973761251937598,-3.8973761251937598
-3.8952262872106296,-3.8952262872106296
-3.8973761251937598,-3.8973761251937598
-3.8952262872106296,-3.8952262872106296
-3.8973761251937598,-3.8973761251937598
-3.8952262872106296,-3.8952262872106296
-3.8973761251937598,-3.8973761251937598
-3.8952262872106296,-3.8952262872106296
-3.8973761251937598,-3.8973761251937598
-3.8952262872106296,-3.8952262872106296
-3.8973761251937598,-3.8973761251937598
-3.8952262872106296,-3.8952262872106296
-3.8973761251937598,-3.8973761251937598
-3.8952262872106296,-3.8952262872106296
-3.8973761251937598,-3.8973761251937598
-3.8952262872106296,-3.8952262872106296
-3.8973761251937598,-3.8973761251937598
-3.8952262872106296,-3.8952262872106296
-3.8973761251937598,-3.8973761251937598
-3.8952262872106296,-3.8952262872106296
-3.8973761251937598,-3.8973761251937598
-3.8952262872106296,-3.8952262872106296
-3.8973761251937598,-3.8973761251937598
-3.8952262872106296,-3.8952262872106296
-3.8973761251937598,-3.8973761251937598
-3.9031090264821073,-3.9031090264821073
-3.8973761251937598,-3.8973761251937598
-3.884477097294978,-3.884477097294978
-3.8973761251937598,-3.8973761251937598
-3.9217409556692364,-3.9217409556692364
-3.8973761251937598,-3.8973761251937598
-3.856529203514284,-3.856529203514284
-3.8973761251937598,-3.8973761251937598
-3.962587877348712,-3.962587877348712
-3.8973761251937598,-3.8973761251937598
-3.796333739986636,-3.796333739986636
-3.8973761251937598,-3.8973761251937598
-4.055030910623314,-4.055030910623314
-3.8973761251937598,-3.8973761251937598
-3.637962341896038,-3.637962341896038
-3.8973761251937598,-3.8973761251937598
-4.401154825907291,-4.401154825907291
-3.8973761251937598,-3.8973761251937598
-1.985453545529889,-1.985453545529889
-0.03483388216967309,-0.03483388216967309
0.555654950530113,0.555654950530113
0.12783719188718548,0.12783719188718548
-0.09144628239210405,-0.09144628239210405
0.19233233138109415,0.19233233138109415
0.38223468655760307,0.38223468655760307
0.2575440835360463,0.2575440835360463
0.17800007816022556,0.17800007816022556
0.2897916532830006,0.2897916532830006
0.3614529193873436,0.3614529193873436
0.2897916532830006,0.2897916532830006
0.22099683782283136,0.22099683782283136
0.22529651378909193,0.22529651378909193
0.22529651378909193,0.22529651378909193
0.19233233138109415,0.19233233138109415
0.17800007816022556,0.17800007816022556
0.19233233138109415,0.19233233138109415
0.2102476479071799,0.2102476479071799
0.22529651378909193,0.22529651378909193
0.250377956925612,0.250377956925612
0.2897916532830006,0.2897916532830006
0.3464040535054316,0.3464040535054316
0.42021515759290484,0.42021515759290484
0.47324449451011863,0.47324449451011863
0.4847102970868135,0.4847102970868135
0.44457998806838145,0.44457998806838145
0.3872509751849071,0.3872509751849071
0.33135518762351956,0.33135518762351956
0.2897916532830006,0.2897916532830006
0.25181118224769883,0.25181118224769883
0.22529651378909193,0.22529651378909193
0.1980652326694416,0.1980652326694416
0.16008476163413982,0.16008476163413982
0.08627365754666655,0.08627365754666655
-0.0018696997616753181,-0.0018696997616753181
-0.07568080384914859,-0.07568080384914859
-0.09932902166358178,-0.09932902166358178
-0.09717918368045149,-0.09717918368045149
-0.09932902166358178,-0.09932902166358178
-0.13085997874949268,-0.13085997874949268
-0.16454077381853388,-0.16454077381853388
-0.19105544227714077,-0.19105544227714077
-0.19678834356548822,-0.19678834356548822
-0.19535511824340138,-0.19535511824340138
-0.16454077381853388,-0.16454077381853388
-0.1265603027832321,-0.1265603027832321
-0.09932902166358178,-0.09932902166358178
-0.10434531029088578,-0.10434531029088578
-0.09932902166358178,-0.09932902166358178
-0.07138112788288802,-0.07138112788288802
-0.03483388216967309,-0.03483388216967309
-0.026234530237151932,-0.026234530237151932
-0.03483388216967309,-0.03483388216967309
-0.057765487323062845,-0.057765487323062845
-0.09932902166358178,-0.09932902166358178
-0.15809125986914302,-0.15809125986914302
-0.16454077381853388,-0.16454077381853388
-0.057765487323062845,-0.057765487323062845
0.19233233138109415,0.19233233138109415
0.5699872037509817,0.5699872037509817
1.0687496158372087,1.0687496158372087
1.6305739420952579,1.6305739420952579
2.1400855440971362,2.1400855440971362
2.4389130237522467,2.4389130237522467
2.4324635098028558,2.4324635098028558
2.09278910846827,2.09278910846827
1.490834473191789,1.490834473191789
0.7677722981989683,0.7677722981989683
0.12783719188718548,0.12783719188718548
-0.28134863756861295,-0.28134863756861295
-0.42395455711625546,-0.42395455711625546
-0.393140212691388,-0.393140212691388
-0.29424766546739467,-0.29424766546739467
-0.20467108283696595,-0.20467108283696595
-0.13229320407157955,-0.13229320407157955
-0.06994790256080115,-0.06994790256080115
-0.0018696997616753181,-0.0018696997616753181
0.056175925782842494,0.056175925782842494
0.09558962214023113,0.09558962214023113
0.10992187536109974,0.10992187536109974
0.12783719188718548,0.12783719188718548
0.15578508566787924,0.15578508566787924
0.19233233138109415,0.19233233138109415
0.2052313592798759,0.2052313592798759
0.19233233138109415,0.19233233138109415
0.15578508566787924,0.15578508566787924
0.12783719188718548,0.12783719188718548
0.10633881205588258,0.10633881205588258
0.09558962214023113,0.09558962214023113
0.07910753093623225,0.07910753093623225
0.06262543973223336,0.06262543973223336
0.03611077127362646,0.03611077127362646
-0.0018696997616753181,-0.0018696997616753181
-0.0541824240178457,-0.0541824240178457
-0.09932902166358178,-0.09932902166358178
-0.13444304205470983,-0.13444304205470983
-0.16454077381853388,-0.16454077381853388
-0.20968737146426997,-0.20968737146426997
-0.26200009572044036,-0.26200009572044036
-0.30786330602721984,-0.30786330602721984
-0.32649523521434903,-0.32649523521434903
-0.321478946587045,-0.321478946587045
-0.29424766546739467,-0.29424766546739467
-0.2705994476529615,-0.2705994476529615
-0.26200009572044036,-0.26200009572044036
-0.2777655742633958,-0.2777655742633958
-0.29424766546739467,-0.29424766546739467
-0.3085799186882633,-0.3085799186882633
-0.32649523521434903,-0.32649523521434903
-0.378091346809476,-0.378091346809476
-0.45691873952425327,-0.45691873952425327
-0.5479285474767688,-0.5479285474767688
-0.6188732009200684,-0.6188732009200684
-0.6661696365489348,-0.6661696365489348
-0.6840849530750205,-0.6840849530750205
-0.6812185024308468,-0.6812185024308468
-0.6511207706670227,-0.6511207706670227
-0.60669078568233,-0.60669078568233
-0.5536614487651162,-0.5536614487651162
-0.5149643650687711,-0.5149643650687711
-0.4891663092712076,-0.4891663092712076
-0.47626728137242585,-0.47626728137242585
-0.45691873952425327,-0.45691873952425327
-0.4304040710656463,-0.4304040710656463
-0.39170698736930115,-0.39170698736930115
-0.3594594176223468,-0.3594594176223468
-0.32649523521434903,-0.32649523521434903
-0.3042802427220027,-0.3042802427220027
-0.26200009572044036,-0.26200009572044036
-0.21398704743053054,-0.21398704743053054
-0.16454077381853388,-0.16454077381853388
-0.1294267534274058,-0.1294267534274058
-0.06708145191662743,-0.06708145191662743
-0.0018696997616753181,-0.0018696997616753181
0.030377869985279023,0.030377869985279023
0.023211743374844725,0.023211743374844725
0.06262543973223336,0.06262543973223336
0.1307036425313592,0.1307036425313592
0.16008476163413982,0.16008476163413982
0.15506847300683582,0.15506847300683582
0.22529651378909193,0.22529651378909193
0.2940913292492612,0.2940913292492612
0.2897916532830006,0.2897916532830006
0.510508352884377,0.510508352884377
1.490834473191789,1.490834473191789
3.0867308693355073,3.0867308693355073
4.380216722518898,4.380216722518898
4.680477427496095,4.680477427496095
4.380216722518898,4.380216722518898
4.226145000394561,4.226145000394561
4.380216722518898,4.380216722518898
4.465493629183066,4.465493629183066
4.380216722518898,4.380216722518898
4.318588033669163,4.318588033669163
4.380216722518898,4.380216722518898
4.413180904926896,4.413180904926896
4.380216722518898,4.380216722518898
4.352268828738204,4.352268828738204
4.380216722518898,4.380216722518898
4.390249299773506,4.390249299773506
4.380216722518898,4.380216722518898
4.368034307281159,4.368034307281159
4.380216722518898,4.380216722518898
4.380216722518898,4.380216722518898
4.380216722518898,4.380216722518898
4.389532687112463,4.389532687112463
4.380216722518898,4.380216722518898
4.352985441399247,4.352985441399247
4.380216722518898,4.380216722518898
4.425363320164634,4.425363320164634
4.380216722518898,4.380216722518898
4.297806266498903,4.297806266498903
4.380216722518898,4.380216722518898
4.506340550862542,4.506340550862542
4.380216722518898,4.380216722518898
4.178131952104651,4.178131952104651
4.380216722518898,4.380216722518898
4.6883601667675725,4.6883601667675725
4.380216722518898,4.380216722518898
3.87500479648328,3.87500479648328
4.380216722518898,4.380216722518898
5.273832710840055,5.273832710840055
4.0555911870662245,4.0555911870662245
0.033960933290496174,0.033960933290496174
-3.8973761251937598,-3.8973761251937598
-4.93574787104569,-4.93574787104569
-3.8973761251937598,-3.8973761251937598
-3.3670827560216217,-3.3670827560216217
-3.8973761251937598,-3.8973761251937598
-4.22343488596852,-4.22343488596852
-3.8973761251937598,-3.8973761251937598
-3.6917082914742956,-3.6917082914742956
-3.8973761251937598,-3.8973761251937598
-4.032815918130968,-4.032815918130968
-3.8973761251937598,-3.8973761251937598
-3.816398894495852,-3.816398894495852
-3.8973761251937598,-3.8973761251937598
-3.9489722367888866,-3.9489722367888866
-3.8973761251937598,-3.8973761251937598
-3.873011294718283,-3.873011294718283
-3.8973761251937598,-3.8973761251937598
-3.9117083784146285,-3.9117083784146285
-3.8973761251937598,-3.8973761251937598
-3.8952262872106296,-3.8952262872106296
-3.8973761251937598,-3.8973761251937598
-3.8952262872106296,-3.8952262872106296
-3.8973761251937598,-3.8973761251937598
-3.8952262872106296,-3.8952262872106296
-3.8973761251937598,-3.8973761251937598
-3.8952262872106296,-3.8952262872106296
-3.8973761251937598,-3.8973761251937598
-3.8952262872106296,-3.8952262872106296
-3.8973761251937598,-3.8973761251937598
-3.8952262872106296,-3.8952262872106296
-3.8973761251937598,-3.8973761251937598
-3.8952262872106296,-3.8952262872106296
-3.8973761251937598,-3.8973761251937598
-3.8952262872106296,-3.8952262872106296
-3.8973761251937598,-3.8973761251937598
-3.8952262872106296,-3.8952262872106296
-3.8973761251937598,-3.8973761251937598
-3.8952262872106296,-3.8952262872106296
-3.8973761251937598,-3.8973761251937598
-3.8952262872106296,-3.8952262872106296
-3.8973761251937598,-3.8973761251937598
-3.8952262872106296,-3.8952262872106296
-3.8973761251937598,-3.8973761251937598
-3.8952262872106296,-3.8952262872106296
-3.8973761251937598,-3.8973761251937598
-3.8952262872106296,-3.8952262872106296
-3.8973761251937598,-3.8973761251937598
-3.8952262872106296,-3.8952262872106296
-3.8973761251937598,-3.8973761251937598
-3.8952262872106296,-3.8952262872106296
-3.8973761251937598,-3.8973761251937598
-3.8952262872106296,-3.8952262872106296
-3.8973761251937598,-3.8973761251937598
-3.8952262872106296,-3.8952262872106296
-3.8973761251937598,-3.8973761251937598
-3.8952262872106296,-3.8952262872106296
-3.8973761251937598,-3.8973761251937598
-3.8952262872106296,-3.8952262872106296
-3.8973761251937598,-3.8973761251937598
-3.8952262872106296,-3.8952262872106296
-3.8973761251937598,-3.8973761251937598
-3.8952262872106296,-3.8952262872106296
-3.8973761251937598,-3.8973761251937598
-3.8952262872106296,-3.8952262872106296
-3.8973761251937598,-3.8973761251937598
-3.8952262872106296,-3.8952262872106296
-3.8973761251937598,-3.8973761251937598
-3.8952262872106296,-3.8952262872106296
-3.8973761251937598,-3.8973761251937598
-3.8952262872106296,-3.8952262872106296
-3.8973761251937598,-3.8973761251937598
-3.8952262872106296,-3.8952262872106296
-3.8973761251937598,-3.8973761251937598
-3.8952262872106296,-3.8952262872106296
-3.8973761251937598,-3.8973761251937598
-3.8952262872106296,-3.8952262872106296
-3.8973761251937598,-3.8973761251937598
-3.8952262872106296,-3.8952262872106296
-3.8973761251937598,-3.8973761251937598
-3.8952262872106296,-3.8952262872106296
-3.8973761251937598,-3.8973761251937598
-3.8952262872106296,-3.8952262872106296
-3.8973761251937598,-3.8973761251937598
-3.8952262872106296,-3.8952262872106296
-3.8973761251937598,-3.8973761251937598
-3.8952262872106296,-3.8952262872106296
-3.8973761251937598,-3.8973761251937598
-3.8952262872106296,-3.8952262872106296
-3.8973761251937598,-3.8973761251937598
-3.8952262872106296,-3.8952262872106296
-3.8973761251937598,-3.8973761251937598
-3.8952262872106296,-3.8952262872106296
-3.8973761251937598,-3.8973761251937598
-3.898092737854803,-3.898092737854803
-3.8973761251937598,-3.8973761251937598
-3.890926611244369,-3.890926611244369
-3.8973761251937598,-3.8973761251937598
-3.9052588644652375,-3.9052588644652375
-3.8973761251937598,-3.8973761251937598
-3.8801774213287175,-3.8801774213287175
-3.8973761251937598,-3.8973761251937598
-3.921024343008193,-3.921024343008193
-3.8973761251937598,-3.8973761251937598
-3.8572458161753276,-3.8572458161753276
-3.8973761251937598,-3.8973761251937598
-3.9568549760603644,-3.9568549760603644
-3.8973761251937598,-3.8973761251937598
-3.796333739986636,-3.796333739986636
-3.8973761251937598,-3.8973761251937598
-4.090144931014442,-4.090144931014442
-3.8973761251937598,-3.8973761251937598
-3.159265084319027,-3.159265084319027
-2.403955339579252,-2.403955339579252
-2.162456872807616,-2.162456872807616
-2.3064960176773455,-2.3064960176773455
-2.367408093866037,-2.367408093866037
-2.242000878183437,-2.242000878183437
-2.160307034824486,-2.160307034824486
-2.2097533084364827,-2.2097533084364827
-2.2441507161665672,-2.2441507161665672
-2.2097533084364827,-2.2097533084364827
-2.185388477961006,-2.185388477961006
-2.2097533084364827,-2.2097533084364827
-2.2233689489963075,-2.2233689489963075
-2.2097533084364827,-2.2097533084364827
-2.1911213792493536,-2.1911213792493536
-2.176789126028485,-2.176789126028485
-2.145974781603617,-2.145974781603617
-2.112293986534576,-2.112293986534576
-2.09222883202536,-2.09222883202536
-2.079329804126578,-2.079329804126578
-2.043499171074407,-2.043499171074407
-1.9818704822246718,-1.9818704822246718
-1.9195251807138936,-1.9195251807138936
-1.885127772983809,-1.885127772983809
-1.8729453577460706,-1.8729453577460706
-1.8521635905758111,-1.8521635905758111
-1.8148997322015528,-1.8148997322015528
-1.7876684510819023,-1.7876684510819023
-1.7862352257598155,-1.7862352257598155
-1.7876684510819023,-1.7876684510819023
-1.7633036206064259,-1.7633036206064259
-1.7224566989269503,-1.7224566989269503
-1.6873426785358223,-1.6873426785358223
-1.6579615594330417,-1.6579615594330417
-1.6242807643640005,-1.6242807643640005
-1.5927498072780895,-1.5927498072780895
-1.5655185261584392,-1.5655185261584392
-1.5275380551231375,-1.5275380551231375
-1.4745087182059236,-1.4745087182059236
-1.430078733221231,-1.430078733221231
-1.4207627686276663,-1.4207627686276663
-1.430078733221231,-1.430078733221231
-1.4257790572549704,-1.4257790572549704
-1.3978311634742766,-1.3978311634742766
-1.3727497203377566,-1.3727497203377566
-1.3655835937273222,-1.3655835937273222
-1.3605673051000182,-1.3605673051000182
-1.333336023980368,-1.333336023980368
-1.2924891023008924,-1.2924891023008924
-1.2681242718254158,-1.2681242718254158
-1.2702741098085462,-1.2702741098085462
-1.2681242718254158,-1.2681242718254158
-1.240176378044722,-1.240176378044722
-1.2029125196704638,-1.2029125196704638
-1.1914467170937688,-1.1914467170937688
-1.2029125196704638,-1.2029125196704638
-1.2129450969250717,-1.2129450969250717
-1.2029125196704638,-1.2029125196704638
-1.1857138158054215,-1.1857138158054215
-1.1706649499235093,-1.1706649499235093
-1.1670818866182922,-1.1670818866182922
-1.1706649499235093,-1.1706649499235093
-1.1763978512118567,-1.1763978512118567
-1.1706649499235093,-1.1706649499235093
-1.1563326967026408,-1.1563326967026408
-1.138417380176555,-1.138417380176555
-1.1248017396167298,-1.1248017396167298
-1.1054531977685573,-1.1054531977685573
-1.0853880432593412,-1.0853880432593412
-1.073205628021603,-1.073205628021603
-1.0782219166489069,-1.0782219166489069
-1.073205628021603,-1.073205628021603
-1.0309254810200406,-1.0309254810200406
-0.9434987363727421,-0.9434987363727421
-0.8403065131824882,-0.8403065131824882
-0.7485800925689292,-0.7485800925689292
-0.6797852771087599,-0.6797852771087599
-0.6188732009200684,-0.6188732009200684
-0.5644106386807677,-0.5644106386807677
-0.5214138790181619,-0.5214138790181619
-0.4991988865258156,-0.4991988865258156
-0.4891663092712076,-0.4891663092712076
-0.48558324596599045,-0.48558324596599045
-0.4891663092712076,-0.4891663092712076
-0.5120979144245973,-0.5120979144245973
-0.5536614487651162,-0.5536614487651162
-0.6138569122927644,-0.6138569122927644
-0.6840849530750205,-0.6840849530750205
-0.7571794445014504,-0.7571794445014504
-0.8137918447238813,-0.8137918447238813
-0.8438895764877054,-0.8438895764877054
-0.8460394144708356,-0.8460394144708356
-0.8331403865720539,-0.8331403865720539
-0.8137918447238813,-0.8137918447238813
-0.8037592674692733,-0.8037592674692733
-0.8137918447238813,-0.8137918447238813
-0.8460394144708356,-0.8460394144708356
-0.87828698421779,-0.87828698421779
-0.9026518146932666,-0.9026518146932666
-0.9112511666257878,-0.9112511666257878
-0.9191339058972655,-0.9191339058972655
-0.9112511666257878,-0.9112511666257878
-0.888319561472398,-0.888319561472398
-0.8460394144708356,-0.8460394144708356
-0.8080589434355339,-0.8080589434355339
-0.7808276623158835,-0.7808276623158835
-0.7657787964339715,-0.7657787964339715
-0.7485800925689292,-0.7485800925689292
-0.7299481633818,-0.7299481633818
-0.7163325228219748,-0.7163325228219748
-0.7227820367713657,-0.7227820367713657
-0.7485800925689292,-0.7485800925689292
-0.7829775002990138,-0.7829775002990138
-0.7808276623158835,-0.7808276623158835
-0.6819351150918902,-0.6819351150918902
-0.42395455711625546,-0.42395455711625546
0.000996750882498401,0.000996750882498401
0.5499220492417657,0.5499220492417657
1.1447105579078123,1.1447105579078123
1.685753116995602,1.685753116995602
2.0182613917197534,2.0182613917197534
1.9781310827013212,1.9781310827013212
1.5015836631074404,1.5015836631074404
0.7118765106375807,0.7118765106375807
-0.153074971241839,-0.153074971241839
-0.87828698421779,-0.87828698421779
-1.3677334317104526,-1.3677334317104526
-1.6249973770250439,-1.6249973770250439
-1.7095576710281686,-1.7095576710281686
-1.6902091291799959,-1.6902091291799959
-1.6364631796017388,-1.6364631796017388
-1.5927498072780895,-1.5927498072780895
-1.5798507793793077,-1.5798507793793077
-1.5927498072780895,-1.5927498072780895
-1.62213092638087,-1.62213092638087
-1.6579615594330417,-1.6579615594330417
-1.6945088051462565,-1.6945088051462565
-1.7224566989269503,-1.7224566989269503
-1.7425218534361664,-1.7425218534361664
-1.7547042686739047,-1.7547042686739047
-1.765453458589556,-1.765453458589556
-1.7547042686739047,-1.7547042686739047
-1.7281896002152977,-1.7281896002152977
-1.6902091291799959,-1.6902091291799959
-1.6658442987045192,-1.6658442987045192
-1.6579615594330417,-1.6579615594330417
-1.6758768759591274,-1.6758768759591274
-1.7224566989269503,-1.7224566989269503
-1.7826521624545983,-1.7826521624545983
-1.8199160208288567,-1.8199160208288567
-1.823499084134074,-1.823499084134074
-1.8199160208288567,-1.8199160208288567
-1.8342482740497252,-1.8342482740497252
-1.8521635905758111,-1.8521635905758111
-1.8564632665420717,-1.8564632665420717
-1.8521635905758111,-1.8521635905758111
-1.8550300412199847,-1.8550300412199847
-1.8521635905758111,-1.8521635905758111
-1.827082147439291,-1.827082147439291
-1.7876684510819023,-1.7876684510819023
-1.7625870079453823,-1.7625870079453823
-1.7547042686739047,-1.7547042686739047
-1.7389387901309492,-1.7389387901309492
-1.6902091291799959,-1.6902091291799959
-1.6314468909744346,-1.6314468909744346
-1.5927498072780895,-1.5927498072780895
-1.57196804010783,-1.57196804010783
-1.5275380551231375,-1.5275380551231375
-1.44871066240836,-1.44871066240836
-1.3655835937273222,-1.3655835937273222
-1.3111210314880215,-1.3111210314880215
-1.2681242718254158,-1.2681242718254158
-1.2086454209588111,-1.2086454209588111
-1.138417380176555,-1.138417380176555
-1.0839548179372542,-1.0839548179372542
-1.0409580582746485,-1.0409580582746485
-0.9864954960353479,-0.9864954960353479
-0.9112511666257878,-0.9112511666257878
-0.8295573232668367,-0.8295573232668367
-0.7485800925689292,-0.7485800925689292
-0.6690360871931085,-0.6690360871931085
-0.5866256311731141,-0.5866256311731141
-0.5020653371699894,-0.5020653371699894
-0.42395455711625546,-0.42395455711625546
-0.3788079594705194,-0.3788079594705194
-0.39170698736930115,-0.39170698736930115
-0.4554855142021664,-0.4554855142021664
-0.5214138790181619,-0.5214138790181619
-0.5529448361040729,-0.5529448361040729
-0.5536614487651162,-0.5536614487651162
-0.5644106386807677,-0.5644106386807677
-0.5866256311731141,-0.5866256311731141
-0.5952249831056352,-0.5952249831056352
-0.5536614487651162,-0.5536614487651162
-0.49489921055955505,-0.49489921055955505
-0.45691873952425327,-0.45691873952425327
-0.48558324596599045,-0.48558324596599045
-0.5536614487651162,-0.5536614487651162
-0.648254320022849,-0.648254320022849
-0.7485800925689292,-0.7485800925689292
-0.8797202095398768,-0.8797202095398768
-1.0087104885276943,-1.0087104885276943
-1.0939873951918624,-1.0939873951918624
-1.073205628021603,-1.073205628021603
-0.9692967921703055,-0.9692967921703055
-0.8137918447238813,-0.8137918447238813
-0.658286897277457,-0.658286897277457
-0.4891663092712076,-0.4891663092712076
-0.30069717941678553,-0.30069717941678553
-0.03483388216967309,-0.03483388216967309
0.38223468655760307,0.38223468655760307
1.0687496158372087,1.0687496158372087
2.0218444550249703,2.0218444550249703
3.081714580708203,3.081714580708203
3.9330504220277978,3.9330504220277978
4.380216722518898,4.380216722518898
4.44757831265698,4.44757831265698
4.380216722518898,4.380216722518898
4.3472525401109,4.3472525401109
4.380216722518898,4.380216722518898
4.391682525095593,4.391682525095593
4.380216722518898,4.380216722518898
4.366601081959073,4.366601081959073
4.380216722518898,4.380216722518898
4.3830831731630715,4.3830831731630715
4.380216722518898,4.380216722518898
4.371617370586377,4.371617370586377
4.380216722518898,4.380216722518898
4.378783497196811,4.378783497196811
4.380216722518898,4.380216722518898
4.374483821230551,4.374483821230551
4.380216722518898,4.380216722518898
4.376633659213681,4.376633659213681
4.380216722518898,4.380216722518898
4.373767208569507,4.373767208569507
4.380216722518898,4.380216722518898
4.373767208569507,4.373767208569507
4.380216722518898,4.380216722518898
4.373767208569507,4.373767208569507
4.380216722518898,4.380216722518898
4.373767208569507,4.373767208569507
4.380216722518898,4.380216722518898
4.373767208569507,4.373767208569507
4.380216722518898,4.380216722518898
4.373767208569507,4.373767208569507
4.380216722518898,4.380216722518898
4.373767208569507,4.373767208569507
4.380216722518898,4.380216722518898
4.373767208569507,4.373767208569507
4.380216722518898,4.380216722518898
4.373767208569507,4.373767208569507
4.380216722518898,4.380216722518898
4.373767208569507,4.373767208569507
4.380216722518898,4.380216722518898
4.373767208569507,4.373767208569507
4.380216722518898,4.380216722518898
4.373767208569507,4.373767208569507
4.380216722518898,4.380216722518898
4.373767208569507,4.373767208569507
4.380216722518898,4.380216722518898
4.373767208569507,4.373767208569507
4.380216722518898,4.380216722518898
4.373767208569507,4.373767208569507
4.380216722518898,4.380216722518898
4.373767208569507,4.373767208569507
4.380216722518898,4.380216722518898
4.373767208569507,4.373767208569507
4.380216722518898,4.380216722518898
4.373767208569507,4.373767208569507
4.380216722518898,4.380216722518898
4.373767208569507,4.373767208569507
4.380216722518898,4.380216722518898
4.373767208569507,4.373767208569507
4.380216722518898,4.380216722518898
4.373767208569507,4.373767208569507
4.380216722518898,4.380216722518898
4.373767208569507,4.373767208569507
4.380216722518898,4.380216722518898
4.373767208569507,4.373767208569507
4.380216722518898,4.380216722518898
4.373767208569507,4.373767208569507
4.380216722518898,4.380216722518898
4.373767208569507,4.373767208569507
4.380216722518898,4.380216722518898
4.373767208569507,4.373767208569507
4.380216722518898,4.380216722518898
4.373767208569507,4.373767208569507
4.380216722518898,4.380216722518898
4.373767208569507,4.373767208569507
4.380216722518898,4.380216722518898
4.373767208569507,4.373767208569507
4.380216722518898,4.380216722518898
4.373767208569507,4.373767208569507
4.380216722518898,4.380216722518898
4.373767208569507,4.373767208569507
4.380216722518898,4.380216722518898
4.373767208569507,4.373767208569507
4.380216722518898,4.380216722518898
4.373767208569507,4.373767208569507
4.380216722518898,4.380216722518898
4.373767208569507,4.373767208569507
4.380216722518898,4.380216722518898
4.373767208569507,4.373767208569507
4.380216722518898,4.380216722518898
4.373767208569507,4.373767208569507
4.380216722518898,4.380216722518898
4.373767208569507,4.373767208569507
4.380216722518898,4.380216722518898
4.373767208569507,4.373767208569507
4.380216722518898,4.380216722518898
4.373767208569507,4.373767208569507
4.380216722518898,4.380216722518898
4.373767208569507,4.373767208569507
4.380216722518898,4.380216722518898
4.373767208569507,4.373767208569507
4.380216722518898,4.380216722518898
4.373767208569507,4.373767208569507
4.380216722518898,4.380216722518898
4.373767208569507,4.373767208569507
4.380216722518898,4.380216722518898
4.373767208569507,4.373767208569507
4.380216722518898,4.380216722518898
4.373767208569507,4.373767208569507
4.380216722518898,4.380216722518898
4.373767208569507,4.373767208569507
4.380216722518898,4.380216722518898
4.373767208569507,4.373767208569507
4.380216722518898,4.380216722518898
4.373767208569507,4.373767208569507
4.380216722518898,4.380216722518898
4.373767208569507,4.373767208569507
4.380216722518898,4.380216722518898
4.373767208569507,4.373767208569507
4.380216722518898,4.380216722518898
4.373767208569507,4.373767208569507
4.380216722518898,4.380216722518898
4.373767208569507,4.373767208569507
4.380216722518898,4.380216722518898
4.373767208569507,4.373767208569507
4.380216722518898,4.380216722518898
4.373767208569507,4.373767208569507
4.380216722518898,4.380216722518898
4.373767208569507,4.373767208569507
4.380216722518898,4.380216722518898
4.373767208569507,4.373767208569507
4.380216722518898,4.380216722518898
4.373767208569507,4.373767208569507
4.380216722518898,4.380216722518898
4.374483821230551,4.374483821230551
4.380216722518898,4.380216722518898
4.373767208569507,4.373767208569507
4.380216722518898,4.380216722518898
4.375200433891594,4.375200433891594
4.380216722518898,4.380216722518898
4.373767208569507,4.373767208569507
4.380216722518898,4.380216722518898
4.368750919942203,4.368750919942203
4.3479691527719435,4.3479691527719435
4.2870570765832525,4.2870570765832525
4.217545648462039,4.217545648462039
4.130835516475784,4.130835516475784
4.0555911870662245,4.0555911870662245
3.9774804070124903,3.9774804070124903
3.9258842954173634,3.9258842954173634
3.873571571161193,3.873571571161193
3.828424973515457,3.828424973515457
3.7603467707163314,3.7603467707163314
3.698718081866596,3.698718081866596
3.6292066537453835,3.6292066537453835
3.568294577556692,3.568294577556692
3.486600734197741,3.486600734197741
3.406340116160877,3.406340116160877
3.3110306322421006,3.3110306322421006
3.2114214723570638,3.2114214723570638
3.0802813553861164,3.0802813553861164
2.9520076890593425,2.9520076890593425
2.8416493392586544,2.8416493392586544
2.7893366150024836,2.7893366150024836
2.756372432594486,2.756372432594486
2.7248414755085753,2.7248414755085753
2.6589131106925796,2.6589131106925796
2.594417971198671,2.594417971198671
2.526339768399545,2.526339768399545
2.46471107954981,2.46471107954981
2.379434172885642,2.379434172885642
2.302756618153995,2.302756618153995
2.246144217931564,2.246144217931564
2.237544865999043,2.237544865999043
2.231095352049652,2.231095352049652
2.2052972962520885,2.2052972962520885
2.129336354181485,2.129336354181485
2.04262622219523,2.04262622219523
1.9602157661752355,1.9602157661752355
1.9129193305463692,1.9129193305463692
1.8835382114435886,1.8835382114435886
1.8806717607994148,1.8806717607994148
1.8699225708837632,1.8699225708837632
1.8484241910524604,1.8484241910524604
1.7989779174404639,1.7989779174404639
1.750964869150554,1.750964869150554
1.6900527929618625,1.6900527929618625
1.621257977501693,1.621257977501693
1.537414296159612,1.537414296159612
1.490834473191789,1.490834473191789
1.4829517339203113,1.4829517339203113
1.490834473191789,1.490834473191789
1.4550038401396175,1.4550038401396175
1.3933751512898824,1.3933751512898824
1.3381959763895384,1.3381959763895384
1.3288800117959738,1.3288800117959738
1.3317464624401476,1.3317464624401476
1.3288800117959738,1.3288800117959738
1.2980656673711064,1.2980656673711064
1.2636682596410218,1.2636682596410218
1.2185216619952857,1.2185216619952857
1.1662089377391152,1.1662089377391152
1.0952642842958158,1.0952642842958158
1.0365020460902545,1.0365020460902545
0.9927886737666053,0.9927886737666053
0.9720069065963458,0.9720069065963458
0.949075301442956,0.949075301442956
0.939042724188348,0.939042724188348
0.9347430482220874,0.9347430482220874
0.939042724188348,0.939042724188348
0.9275769216116532,0.9275769216116532
0.9067951544413937,0.9067951544413937
0.8723977467113091,0.8723977467113091
0.8415834022864416,0.8415834022864416
0.812202283183661,0.812202283183661
0.8093358325394873,0.8093358325394873
0.8301175997097466,0.8301175997097466
0.8745475846944394,0.8745475846944394
0.9103782177466109,0.9103782177466109
0.939042724188348,0.939042724188348
0.9548082027313035,0.9548082027313035
0.9720069065963458,0.9720069065963458
0.9684238432911286,0.9684238432911286
0.939042724188348,0.939042724188348
0.8774140353386131,0.8774140353386131
0.8093358325394873,0.8093358325394873
0.7326582778078402,0.7326582778078402
0.6473813711436721,0.6473813711436721
0.5420393099702879,0.5420393099702879
0.4524627273398592,0.4524627273398592
0.3980001651005585,0.3980001651005585
0.3872509751849071,0.3872509751849071
0.3786516232523859,0.3786516232523859
0.3550034054379527,0.3550034054379527
0.3163063217416075,0.3163063217416075
0.2897916532830006,0.2897916532830006
0.25467763289187256,0.25467763289187256
0.19233233138109415,0.19233233138109415
0.08699027020770998,0.08699027020770998
-0.0018696997616753181,-0.0018696997616753181
-0.047016297407411395,-0.047016297407411395
-0.03483388216967309,-0.03483388216967309
-0.015485340321500484,-0.015485340321500484
-0.0018696997616753181,-0.0018696997616753181
-0.004019537744805608,-0.004019537744805608
-0.0018696997616753181,-0.0018696997616753181
-0.011902277016283335,-0.011902277016283335
-0.03483388216967309,-0.03483388216967309
-0.08857983174793033,-0.08857983174793033
-0.16454077381853388,-0.16454077381853388
-0.24981768048270203,-0.24981768048270203
-0.29424766546739467,-0.29424766546739467
-0.24551800451644146,-0.24551800451644146
-0.03483388216967309,-0.03483388216967309
0.3872509751849071,0.3872509751849071
1.0365020460902545,1.0365020460902545
1.826209198560114,1.826209198560114
2.594417971198671,2.594417971198671
3.1512260088294157,3.1512260088294157
3.3740925464139226,3.3740925464139226
3.2056885710687166,3.2056885710687166
2.6918772931005774,2.6918772931005774
1.9666652801246263,1.9666652801246263
1.2314206898940674,1.2314206898940674
0.6265996039734126,0.6265996039734126
0.19233233138109415,0.19233233138109415
-0.1072117609350595,-0.1072117609350595
-0.29424766546739467,-0.29424766546739467
-0.38812392406408397,-0.38812392406408397
-0.42395455711625546,-0.42395455711625546
-0.4626516408126007,-0.4626516408126007
-0.5214138790181619,-0.5214138790181619
-0.5837591805289403,-0.5837591805289403
-0.6188732009200684,-0.6188732009200684
-0.6446712567176318,-0.6446712567176318
-0.6840849530750205,-0.6840849530750205
-0.7421305786195384,-0.7421305786195384
-0.7808276623158835,-0.7808276623158835
-0.7908602395704916,-0.7908602395704916
-0.7808276623158835,-0.7808276623158835
-0.7944433028757086,-0.7944433028757086
-0.8137918447238813,-0.8137918447238813
-0.8259742599616196,-0.8259742599616196
-0.8137918447238813,-0.8137918447238813
-0.8080589434355339,-0.8080589434355339
-0.8137918447238813,-0.8137918447238813
-0.8245410346395328,-0.8245410346395328
-0.8137918447238813,-0.8137918447238813
-0.7922934648925783,-0.7922934648925783
-0.7808276623158835,-0.7808276623158835
-0.7958765281977955,-0.7958765281977955
-0.8137918447238813,-0.8137918447238813
-0.8202413586732722,-0.8202413586732722
-0.8137918447238813,-0.8137918447238813
-0.8130752320628378,-0.8130752320628378
-0.8137918447238813,-0.8137918447238813
-0.8145084573849247,-0.8145084573849247
-0.8137918447238813,-0.8137918447238813
-0.8180915206901419,-0.8180915206901419
-0.8137918447238813,-0.8137918447238813
-0.8001762041640561,-0.8001762041640561
-0.7808276623158835,-0.7808276623158835
-0.7686452470781452,-0.7686452470781452
-0.7485800925689292,-0.7485800925689292
-0.7184823608051051,-0.7184823608051051
-0.6840849530750205,-0.6840849530750205
-0.6640197985658045,-0.6640197985658045
-0.6511207706670227,-0.6511207706670227
-0.6396549680903278,-0.6396549680903278
-0.6188732009200684,-0.6188732009200684
-0.5937917577835483,-0.5937917577835483
-0.5536614487651162,-0.5536614487651162
-0.504931787814163,-0.504931787814163
-0.45691873952425327,-0.45691873952425327
-0.4318372963877332,-0.4318372963877332
-0.42395455711625546,-0.42395455711625546
-0.4175050431668646,-0.4175050431668646
-0.39170698736930115,-0.39170698736930115
-0.35659296697817305,-0.35659296697817305
-0.32649523521434903,-0.32649523521434903
-0.32004572126495817,-0.32004572126495817
-0.32649523521434903,-0.32649523521434903
-0.3329447491637399,-0.3329447491637399
-0.32649523521434903,-0.32649523521434903
-0.32076233392600156,-0.32076233392600156
-0.32649523521434903,-0.32649523521434903
-0.3551597416560862,-0.3551597416560862
-0.39170698736930115,-0.39170698736930115
-0.42753762042147264,-0.42753762042147264
-0.45691873952425327,-0.45691873952425327
-0.4963324358816419,-0.4963324358816419
-0.5536614487651162,-0.5536614487651162
-0.6253227148694592,-0.6253227148694592
-0.6840849530750205,-0.6840849530750205
-0.7242152620934525,-0.7242152620934525
-0.7485800925689292,-0.7485800925689292
-0.7700784724002321,-0.7700784724002321
-0.7808276623158835,-0.7808276623158835
-0.791576852231535,-0.791576852231535
-0.8137918447238813,-0.8137918447238813
-0.8603716676917043,-0.8603716676917043
-0.9112511666257878,-0.9112511666257878
-0.9513814756442198,-0.9513814756442198
-0.9757463061196965,-0.9757463061196965
-0.9972446859509994,-0.9972446859509994
-1.0087104885276943,-1.0087104885276943
-1.00154436191726,-1.00154436191726
-0.9757463061196965,-0.9757463061196965
-0.9621306655598713,-0.9621306655598713
-0.9757463061196965,-0.9757463061196965
-1.0130101644939549,-1.0130101644939549
-1.0409580582746485,-1.0409580582746485
-1.0481241848850829,-1.0481241848850829
-1.0409580582746485,-1.0409580582746485
-1.0388082202915183,-1.0388082202915183
-1.0409580582746485,-1.0409580582746485
-1.0431078962577789,-1.0431078962577789
-1.0409580582746485,-1.0409580582746485
-1.0416746709356919,-1.0416746709356919
-1.0409580582746485,-1.0409580582746485
-1.0409580582746485,-1.0409580582746485
-1.0409580582746485,-1.0409580582746485
-1.0431078962577789,-1.0431078962577789
-1.0409580582746485,-1.0409580582746485
-1.0388082202915183,-1.0388082202915183
-1.0409580582746485,-1.0409580582746485
-1.0373749949694313,-1.0373749949694313
-1.0087104885276943,-1.0087104885276943
-0.9735964681365661,-0.9735964681365661
-0.9757463061196965,-0.9757463061196965
-1.0273424177148234,-1.0273424177148234
-1.073205628021603,-1.073205628021603
-1.0810883672930807,-1.0810883672930807
-1.073205628021603,-1.073205628021603
-1.0882544939035148,-1.0882544939035148
-1.1054531977685573,-1.1054531977685573
-1.098287071158123,-1.098287071158123
-1.073205628021603,-1.073205628021603
-1.066756114072212,-1.066756114072212
-1.073205628021603,-1.073205628021603
-1.0760720786657767,-1.0760720786657767
-1.073205628021603,-1.073205628021603
-1.0846714305982978,-1.0846714305982978
-1.1054531977685573,-1.1054531977685573
-1.1248017396167298,-1.1248017396167298
-1.138417380176555,-1.138417380176555
-1.1563326967026408,-1.1563326967026408
-1.1706649499235093,-1.1706649499235093
-1.1677984992793355,-1.1677984992793355
-1.138417380176555,-1.138417380176555
-1.0939873951918624,-1.0939873951918624
-1.0409580582746485,-1.0409580582746485
-0.9800459820859571,-0.9800459820859571
-0.9112511666257878,-0.9112511666257878
-0.8496224777760528,-0.8496224777760528
-0.8137918447238813,-0.8137918447238813
-0.8073423307744905,-0.8073423307744905
-0.8137918447238813,-0.8137918447238813
-0.8238244219784893,-0.8238244219784893
-0.8460394144708356,-0.8460394144708356
-0.8990687513880494,-0.8990687513880494
-0.9757463061196965,-0.9757463061196965
-1.0524238608513434,-1.0524238608513434
-1.1054531977685573,-1.1054531977685573
-1.142000443481772,-1.142000443481772
-1.1706649499235093,-1.1706649499235093
-1.195029780398986,-1.195029780398986
-1.2029125196704638,-1.2029125196704638
-1.1993294563652466,-1.1993294563652466
-1.2029125196704638,-1.2029125196704638
-1.2308604134511574,-1.2308604134511574
-1.2681242718254158,-1.2681242718254158
-1.3061047428607175,-1.3061047428607175
-1.333336023980368,-1.333336023980368
-1.3598506924389748,-1.3598506924389748
-1.3655835937273222,-1.3655835937273222
-1.3555510164727143,-1.3555510164727143
-1.333336023980368,-1.333336023980368
-1.3261698973699336,-1.3261698973699336
-1.333336023980368,-1.333336023980368
-1.349818115184367,-1.349818115184367
-1.3655835937273222,-1.3655835937273222
-1.3827822975923645,-1.3827822975923645
-1.3978311634742766,-1.3978311634742766
-1.4214793812887099,-1.4214793812887099
-1.4630429156292286,-1.4630429156292286
-1.5160722525464425,-1.5160722525464425
-1.5275380551231375,-1.5275380551231375
-1.42362921927184,-1.42362921927184
-1.138417380176555,-1.138417380176555
-0.6389383554292845,-0.6389383554292845
0.06262543973223336,0.06262543973223336
0.8860133872711342,0.8860133872711342
1.685753116995602,1.685753116995602
2.2841246889668656,2.2841246889668656
2.5299228317047624,2.5299228317047624
2.33930386386721,2.33930386386721
1.750964869150554,1.750964869150554
0.9419091748325218,0.9419091748325218
0.16008476163413982,0.16008476163413982
-0.4289708457435595,-0.4289708457435595
-0.8137918447238813,-0.8137918447238813
-1.0660395014111685,-1.0660395014111685
-1.2358767020784613,-1.2358767020784613
-1.3476682772012365,-1.3476682772012365
-1.430078733221231,-1.430078733221231
-1.505323062630791,-1.505323062630791
-1.5605022375311353,-1.5605022375311353
-1.583433842684525,-1.583433842684525
-1.5927498072780895,-1.5927498072780895
-1.6192644757366963,-1.6192644757366963
-1.6579615594330417,-1.6579615594330417
-1.685192840552692,-1.685192840552692
-1.6902091291799959,-1.6902091291799959
-1.6909257418410393,-1.6909257418410393
-1.6902091291799959,-1.6902091291799959
-1.693792192485213,-1.693792192485213
-1.6902091291799959,-1.6902091291799959
-1.691642354502083,-1.691642354502083
-1.6902091291799959,-1.6902091291799959
-1.6823263899085181,-1.6823263899085181
-1.6579615594330417,-1.6579615594330417
-1.6328801162965216,-1.6328801162965216
-1.6249973770250439,-1.6249973770250439
-1.6414794682290428,-1.6414794682290428
-1.6579615594330417,-1.6579615594330417
-1.652228658144694,-1.652228658144694
-1.6249973770250439,-1.6249973770250439
-1.6013491592106106,-1.6013491592106106
-1.5927498072780895,-1.5927498072780895
-1.5948996452612199,-1.5948996452612199
-1.5927498072780895,-1.5927498072780895
-1.5805673920403511,-1.5805673920403511
-1.5605022375311353,-1.5605022375311353
-1.541870308344006,-1.541870308344006
-1.5275380551231375,-1.5275380551231375
-1.5153556398853991,-1.5153556398853991
-1.495290485376183,-1.495290485376183
-1.4659093662734024,-1.4659093662734024
-1.430078733221231,-1.430078733221231
-1.4064305154067978,-1.4064305154067978
-1.3978311634742766,-1.3978311634742766
-1.3928148748469726,-1.3928148748469726
-1.3655835937273222,-1.3655835937273222
-1.316853932776369,-1.316853932776369
-1.2681242718254158,-1.2681242718254158
-1.235160089417418,-1.235160089417418
-1.2029125196704638,-1.2029125196704638
-1.1577659220247276,-1.1577659220247276
-1.1054531977685573,-1.1054531977685573
-1.0674727267332556,-1.0674727267332556
-1.0409580582746485,-1.0409580582746485
-1.0122935518329113,-1.0122935518329113
-0.9757463061196965,-0.9757463061196965
-0.9406322857285684,-0.9406322857285684
-0.9112511666257878,-0.9112511666257878
-0.8890361741334414,-0.8890361741334414
-0.87828698421779,-0.87828698421779
-0.888319561472398,-0.888319561472398
-0.9112511666257878,-0.9112511666257878
-0.9255834198466564,-0.9255834198466564
-0.9112511666257878,-0.9112511666257878
-0.883303272845094,-0.883303272845094
-0.87828698421779,-0.87828698421779
-0.9169840679141352,-0.9169840679141352
-0.9757463061196965,-0.9757463061196965
-1.021609516426476,-1.021609516426476
-1.0409580582746485,-1.0409580582746485
-1.0531404735123868,-1.0531404735123868
-1.073205628021603,-1.073205628021603
-1.1047365851075137,-1.1047365851075137
-1.138417380176555,-1.138417380176555
-1.1713815625845527,-1.1713815625845527
-1.2029125196704638,-1.2029125196704638
-1.236593314739505,-1.236593314739505
-1.2681242718254158,-1.2681242718254158
-1.2924891023008924,-1.2924891023008924
-1.3003718415723702,-1.3003718415723702
-1.2996552289113268,-1.2996552289113268
-1.3003718415723702,-1.3003718415723702
-1.3139874821321953,-1.3139874821321953
-1.333336023980368,-1.333336023980368
-1.3512513405064537,-1.3512513405064537
-1.3655835937273222,-1.3655835937273222
-1.382065684931321,-1.382065684931321
-1.3978311634742766,-1.3978311634742766
-1.4064305154067978,-1.4064305154067978
-1.3978311634742766,-1.3978311634742766
-1.3806324596092343,-1.3806324596092343
-1.3655835937273222,-1.3655835937273222
-1.3627171430831486,-1.3627171430831486
-1.3655835937273222,-1.3655835937273222
-1.3677334317104526,-1.3677334317104526
-1.3655835937273222,-1.3655835937273222
-1.3641503684052354,-1.3641503684052354
-1.3655835937273222,-1.3655835937273222
-1.3770493963040171,-1.3770493963040171
-1.3978311634742766,-1.3978311634742766
-1.4128800293561885,-1.4128800293561885
-1.3978311634742766,-1.3978311634742766
-1.3605673051000182,-1.3605673051000182
-1.333336023980368,-1.333336023980368
-1.333336023980368,-1.333336023980368
-1.333336023980368,-1.333336023980368
-1.3075379681828043,-1.3075379681828043
-1.2681242718254158,-1.2681242718254158
-1.2444760540109827,-1.2444760540109827
-1.2358767020784613,-1.2358767020784613
-1.2244108995017666,-1.2244108995017666
-1.2029125196704638,-1.2029125196704638
-1.193596555076899,-1.193596555076899
-1.2029125196704638,-1.2029125196704638
-1.2229776741796796,-1.2229776741796796
-1.2358767020784613,-1.2358767020784613
-1.246625891994113,-1.246625891994113
-1.2681242718254158,-1.2681242718254158
-1.3039549048775874,-1.3039549048775874
-1.333336023980368,-1.333336023980368
-1.3412187632518455,-1.3412187632518455
-1.333336023980368,-1.333336023980368
-1.3290363480141074,-1.3290363480141074
-1.333336023980368,-1.333336023980368
-1.338352312607672,-1.338352312607672
-1.333336023980368,-1.333336023980368
-1.3204369960815863,-1.3204369960815863
-1.3003718415723702,-1.3003718415723702
-1.2738571731137631,-1.2738571731137631
-1.2358767020784613,-1.2358767020784613
-1.188580266449595,-1.188580266449595
-1.138417380176555,-1.138417380176555
-1.0889711065645584,-1.0889711065645584
-1.0409580582746485,-1.0409580582746485
-1.0001111365951731,-1.0001111365951731
-0.9757463061196965,-0.9757463061196965
-0.9800459820859571,-0.9800459820859571
-1.0087104885276943,-1.0087104885276943
-1.0531404735123868,-1.0531404735123868
-1.1054531977685573,-1.1054531977685573
-1.168515111940379,-1.168515111940379
-1.2358767020784613,-1.2358767020784613
-1.2874728136735885,-1.2874728136735885
-1.3003718415723702,-1.3003718415723702
-1.2824565250462845,-1.2824565250462845
-1.2681242718254158,-1.2681242718254158
-1.286756201012545,-1.286756201012545
-1.333336023980368,-1.333336023980368
-1.388515198880712,-1.388515198880712
-1.430078733221231,-1.430078733221231
-1.4494272750694035,-1.4494272750694035
-1.430078733221231,-1.430078733221231
-1.4021308394405372,-1.4021308394405372
-1.3978311634742766,-1.3978311634742766
-1.4436943737810561,-1.4436943737810561
-1.495290485376183,-1.495290485376183
-1.5160722525464425,-1.5160722525464425
-1.495290485376183,-1.495290485376183
-1.4630429156292286,-1.4630429156292286
-1.430078733221231,-1.430078733221231
-1.4057139027457544,-1.4057139027457544
-1.3978311634742766,-1.3978311634742766
-1.4293621205601874,-1.4293621205601874
-1.495290485376183,-1.495290485376183
-1.5597856248700916,-1.5597856248700916
-1.5605022375311353,-1.5605022375311353
-1.435095021848535,-1.435095021848535
-1.138417380176555,-1.138417380176555
-0.6539872213111965,-0.6539872213111965
-0.0018696997616753181,-0.0018696997616753181
0.7441240803845351,0.7441240803845351
1.4585869034448347,1.4585869034448347
1.9752646320571474,1.9752646320571474
2.1400855440971362,2.1400855440971362
1.8785219228162846,1.8785219228162846
1.2636682596410218,1.2636682596410218
0.5040588389349862,0.5040588389349862
-0.16454077381853388,-0.16454077381853388
-0.6246061022084158,-0.6246061022084158
-0.9112511666257878,-0.9112511666257878
-1.1126193243789915,-1.1126193243789915
-1.2681242718254158,-1.2681242718254158
-1.3727497203377566,-1.3727497203377566
-1.430078733221231,-1.430078733221231
-1.4673425915954892,-1.4673425915954892
-1.495290485376183,-1.495290485376183
-1.5139224145633121,-1.5139224145633121
-1.5275380551231375,-1.5275380551231375
-1.5454533716492231,-1.5454533716492231
-1.5605022375311353,-1.5605022375311353
-1.5655185261584392,-1.5655185261584392
-1.5605022375311353,-1.5605022375311353
-1.5612188501921787,-1.5612188501921787
-1.5605022375311353,-1.5605022375311353
-1.5540527235817443,-1.5540527235817443
-1.5275380551231375,-1.5275380551231375
-1.505323062630791,-1.505323062630791
-1.495290485376183,-1.495290485376183
-1.5010233866645304,-1.5010233866645304
-1.495290485376183,-1.495290485376183
-1.470209042239663,-1.470209042239663
-1.430078733221231,-1.430078733221231
-1.3942481001690594,-1.3942481001690594
-1.3655835937273222,-1.3655835937273222
-1.3526845658285405,-1.3526845658285405
-1.3655835937273222,-1.3655835937273222
-1.4021308394405372,-1.4021308394405372
-1.430078733221231,-1.430078733221231
-1.4272122825770572,-1.4272122825770572
-1.3978311634742766,-1.3978311634742766
-1.3734663329988,-1.3734663329988
-1.3655835937273222,-1.3655835937273222
-1.368450044371496,-1.368450044371496
-1.3655835937273222,-1.3655835937273222
-1.346951664540193,-1.346951664540193
-1.3003718415723702,-1.3003718415723702
-1.235160089417418,-1.235160089417418
-1.1706649499235093,-1.1706649499235093
-1.1291014155829904,-1.1291014155829904
-1.1054531977685573,-1.1054531977685573
-1.0911209445476886,-1.0911209445476886
-1.073205628021603,-1.073205628021603
-1.0488407975461262,-1.0488407975461262
-1.0087104885276943,-1.0087104885276943
-0.9578309895936107,-0.9578309895936107
-0.9112511666257878,-0.9112511666257878
-0.8790035968788334,-0.8790035968788334
-0.8460394144708356,-0.8460394144708356
-0.801609429486143,-0.801609429486143
-0.7485800925689292,-0.7485800925689292
-0.7084497835504971,-0.7084497835504971
-0.6840849530750205,-0.6840849530750205
-0.6683194745320651,-0.6683194745320651
-0.6511207706670227,-0.6511207706670227
-0.6346386794630239,-0.6346386794630239
-0.6188732009200684,-0.6188732009200684
-0.6138569122927644,-0.6138569122927644
-0.6188732009200684,-0.6188732009200684
-0.6260393275305027,-0.6260393275305027
-0.6188732009200684,-0.6188732009200684
-0.6088406236654603,-0.6088406236654603
-0.6188732009200684,-0.6188732009200684
-0.6547038339722399,-0.6547038339722399
-0.6840849530750205,-0.6840849530750205
-0.6876680163802377,-0.6876680163802377
-0.6840849530750205,-0.6840849530750205
-0.7041501075842366,-0.7041501075842366
-0.7485800925689292,-0.7485800925689292
-0.8094921687576208,-0.8094921687576208
-0.87828698421779,-0.87828698421779
-0.9535313136273501,-0.9535313136273501
-1.0087104885276943,-1.0087104885276943
-1.0337919316642143,-1.0337919316642143
-1.0409580582746485,-1.0409580582746485
-1.0560069241565606,-1.0560069241565606
-1.073205628021603,-1.073205628021603
-1.0810883672930807,-1.0810883672930807
-1.073205628021603,-1.073205628021603
-1.0595899874617778,-1.0595899874617778
-1.0409580582746485,-1.0409580582746485
-1.038091607630475,-1.038091607630475
-1.073205628021603,-1.073205628021603
-1.153466246058467,-1.153466246058467
-1.2358767020784613,-1.2358767020784613
-1.2788734617410673,-1.2788734617410673
-1.2681242718254158,-1.2681242718254158
-1.22512751216281,-1.22512751216281
-1.1706649499235093,-1.1706649499235093
-1.1355509295323813,-1.1355509295323813
-1.138417380176555,-1.138417380176555
-1.1742480132287265,-1.1742480132287265
-1.2029125196704638,-1.2029125196704638
-1.206495582975681,-1.206495582975681
-1.2029125196704638,-1.2029125196704638
-1.2272773501459402,-1.2272773501459402
-1.2681242718254158,-1.2681242718254158
-1.2896226516567186,-1.2896226516567186
-1.2681242718254158,-1.2681242718254158
-1.2279939628069838,-1.2279939628069838
-1.2029125196704638,-1.2029125196704638
-1.2036291323315071,-1.2036291323315071
-1.2029125196704638,-1.2029125196704638
-1.1892968791106384,-1.1892968791106384
-1.1706649499235093,-1.1706649499235093
-1.1656486612962054,-1.1656486612962054
-1.1706649499235093,-1.1706649499235093
-1.183563977822291,-1.183563977822291
-1.2029125196704638,-1.2029125196704638
-1.2287105754680272,-1.2287105754680272
-1.2358767020784613,-1.2358767020784613
-1.2129450969250717,-1.2129450969250717
-1.1706649499235093,-1.1706649499235093
-1.143433668803859,-1.143433668803859
-1.138417380176555,-1.138417380176555
-1.143433668803859,-1.143433668803859
-1.138417380176555,-1.138417380176555
-1.1240851269556864,-1.1240851269556864
-1.1054531977685573,-1.1054531977685573
-1.0889711065645584,-1.0889711065645584
-1.073205628021603,-1.073205628021603
-1.068189339394299,-1.068189339394299
-1.073205628021603,-1.073205628021603
-1.075355466004733,-1.075355466004733
-1.0409580582746485,-1.0409580582746485
-0.9664303415261318,-0.9664303415261318
-0.87828698421779,-0.87828698421779
-0.8159416827070116,-0.8159416827070116
-0.7808276623158835,-0.7808276623158835
-0.7636289584508412,-0.7636289584508412
-0.7485800925689292,-0.7485800925689292
-0.7263651000765828,-0.7263651000765828
-0.6840849530750205,-0.6840849530750205
-0.6360719047851107,-0.6360719047851107
-0.6188732009200684,-0.6188732009200684
-0.6625865732437176,-0.6625865732437176
-0.7485800925689292,-0.7485800925689292
-0.8496224777760528,-0.8496224777760528
-0.9434987363727421,-0.9434987363727421
-1.015160002477085,-1.015160002477085
-1.0409580582746485,-1.0409580582746485
-1.02662580505378,-1.02662580505378
-1.0087104885276943,-1.0087104885276943
-1.0180264531212588,-1.0180264531212588
-1.0409580582746485,-1.0409580582746485
-1.0588733748007342,-1.0588733748007342
-1.073205628021603,-1.073205628021603
-1.1068864230906441,-1.1068864230906441
-1.138417380176555,-1.138417380176555
-1.1520330207363803,-1.1520330207363803
-1.138417380176555,-1.138417380176555
-1.1319678662271642,-1.1319678662271642
-1.138417380176555,-1.138417380176555
-1.1570493093636842,-1.1570493093636842
-1.1706649499235093,-1.1706649499235093
-1.1871470411275082,-1.1871470411275082
-1.2029125196704638,-1.2029125196704638
-1.2143783222471585,-1.2143783222471585
-1.2029125196704638,-1.2029125196704638
-1.1806975271781173,-1.1806975271781173
-1.1706649499235093,-1.1706649499235093
-1.1828473651612477,-1.1828473651612477
-1.1706649499235093,-1.1706649499235093
-1.0531404735123868,-1.0531404735123868
-0.7485800925689292,-0.7485800925689292
-0.22688607532931226,-0.22688607532931226
0.4847102970868135,0.4847102970868135
1.2751340622177165,1.2751340622177165
1.9781310827013212,1.9781310827013212
2.420997707226161,2.420997707226161
2.497675261957808,2.497675261957808
2.1909650430312197,2.1909650430312197
1.5882937950936955,1.5882937950936955
0.8508993668800061,0.8508993668800061
0.16008476163413982,0.16008476163413982
-0.3687753822159114,-0.3687753822159114
-0.7163325228219748,-0.7163325228219748
-0.9255834198466564,-0.9255834198466564
-1.0409580582746485,-1.0409580582746485
-1.1011535218022968,-1.1011535218022968
-1.138417380176555,-1.138417380176555
-1.1742480132287265,-1.1742480132287265
-1.2029125196704638,-1.2029125196704638
-1.2215444488575928,-1.2215444488575928
-1.2358767020784613,-1.2358767020784613
-1.2559418565876774,-1.2559418565876774
-1.2681242718254158,-1.2681242718254158
-1.2709907224695896,-1.2709907224695896
-1.2681242718254158,-1.2681242718254158
-1.2738571731137631,-1.2738571731137631
-1.2681242718254158,-1.2681242718254158
-1.2623913705370684,-1.2623913705370684
-1.2681242718254158,-1.2681242718254158
-1.3039549048775874,-1.3039549048775874
-1.333336023980368,-1.333336023980368
-1.3405021505908021,-1.3405021505908021
-1.333336023980368,-1.333336023980368
-1.3354858619634982,-1.3354858619634982
-1.333336023980368,-1.333336023980368
-1.3096878061659347,-1.3096878061659347
-1.2681242718254158,-1.2681242718254158
-1.2330102514342878,-1.2330102514342878
-1.2029125196704638,-1.2029125196704638
-1.1713815625845527,-1.1713815625845527
-1.138417380176555,-1.138417380176555
-1.1269515775998602,-1.1269515775998602
-1.138417380176555,-1.138417380176555
-1.1520330207363803,-1.1520330207363803
-1.138417380176555,-1.138417380176555
-1.1040199724464703,-1.1040199724464703
-1.073205628021603,-1.073205628021603
-1.068189339394299,-1.068189339394299
-1.073205628021603,-1.073205628021603
-1.0689059520553423,-1.0689059520553423
-1.0409580582746485,-1.0409580582746485
-1.0072772632056073,-1.0072772632056073
-0.9757463061196965,-0.9757463061196965
-0.9485150250000461,-0.9485150250000461
-0.9112511666257878,-0.9112511666257878
-0.8646713436579648,-0.8646713436579648
-0.8137918447238813,-0.8137918447238813
-0.7664954090950149,-0.7664954090950149
-0.7163325228219748,-0.7163325228219748
-0.6661696365489348,-0.6661696365489348
-0.6188732009200684,-0.6188732009200684
-0.5844757931899838,-0.5844757931899838
-0.5536614487651162,-0.5536614487651162
-0.5242803296623356,-0.5242803296623356
-0.4891663092712076,-0.4891663092712076
-0.4562021268632098,-0.4562021268632098
-0.42395455711625546,-0.42395455711625546
-0.40173956462390914,-0.40173956462390914
-0.39170698736930115,-0.39170698736930115
-0.393140212691388,-0.393140212691388
-0.39170698736930115,-0.39170698736930115
-0.3874073114030406,-0.3874073114030406
-0.39170698736930115,-0.39170698736930115
-0.4196548811499949,-0.4196548811499949
-0.45691873952425327,-0.45691873952425327
-0.4827167953218167,-0.4827167953218167
-0.4891663092712076,-0.4891663092712076
-0.4963324358816419,-0.4963324358816419
-0.5214138790181619,-0.5214138790181619
-0.5694269273080718,-0.5694269273080718
-0.6188732009200684,-0.6188732009200684
-0.6590035099385004,-0.6590035099385004
-0.6840849530750205,-0.6840849530750205
-0.7027168822621497,-0.7027168822621497
-0.7163325228219748,-0.7163325228219748
-0.7320980013649303,-0.7320980013649303
-0.7485800925689292,-0.7485800925689292
-0.7686452470781452,-0.7686452470781452
-0.7808276623158835,-0.7808276623158835
-0.7951599155367521,-0.7951599155367521
-0.8137918447238813,-0.8137918447238813
-0.8381566751993579,-0.8381566751993579
-0.8460394144708356,-0.8460394144708356
-0.8338569992330973,-0.8338569992330973
-0.8137918447238813,-0.8137918447238813
-0.8094921687576208,-0.8094921687576208
-0.8137918447238813,-0.8137918447238813
-0.8173749080290984,-0.8173749080290984
-0.8137918447238813,-0.8137918447238813
-0.8137918447238813,-0.8137918447238813
-0.8137918447238813,-0.8137918447238813
-0.8145084573849247,-0.8145084573849247
-0.8137918447238813,-0.8137918447238813
-0.816658295368055,-0.816658295368055
-0.8137918447238813,-0.8137918447238813
-0.801609429486143,-0.801609429486143
-0.7808276623158835,-0.7808276623158835
-0.7636289584508412,-0.7636289584508412
-0.7485800925689292,-0.7485800925689292
-0.7435638039416251,-0.7435638039416251
-0.7485800925689292,-0.7485800925689292
-0.7672120217560584,-0.7672120217560584
-0.7808276623158835,-0.7808276623158835
-0.7858439509431875,-0.7858439509431875
-0.7808276623158835,-0.7808276623158835
-0.7815442749769269,-0.7815442749769269
-0.7808276623158835,-0.7808276623158835
-0.7729449230444058,-0.7729449230444058
-0.7485800925689292,-0.7485800925689292
-0.7256484874155394,-0.7256484874155394
-0.7163325228219748,-0.7163325228219748
-0.7292315507207566,-0.7292315507207566
-0.7485800925689292,-0.7485800925689292
-0.7679286344171018,-0.7679286344171018
-0.7808276623158835,-0.7808276623158835
-0.7987429788419693,-0.7987429788419693
-0.8137918447238813,-0.8137918447238813
-0.821674583995359,-0.821674583995359
-0.8137918447238813,-0.8137918447238813
-0.8080589434355339,-0.8080589434355339
-0.8137918447238813,-0.8137918447238813
-0.8252576473005762,-0.8252576473005762
-0.8137918447238813,-0.8137918447238813
-0.7808276623158835,-0.7808276623158835
-0.7485800925689292,-0.7485800925689292
-0.7356810646701475,-0.7356810646701475
-0.7163325228219748,-0.7163325228219748
-0.6740523758204124,-0.6740523758204124
-0.6188732009200684,-0.6188732009200684
-0.5801761172237232,-0.5801761172237232
-0.5536614487651162,-0.5536614487651162
-0.5264301676454659,-0.5264301676454659
-0.4891663092712076,-0.4891663092712076
-0.46336825347364413,-0.46336825347364413
-0.45691873952425327,-0.45691873952425327
-0.4683845421009481,-0.4683845421009481
-0.4891663092712076,-0.4891663092712076
-0.5271467803065094,-0.5271467803065094
-0.5866256311731141,-0.5866256311731141
-0.6683194745320651,-0.6683194745320651
-0.7485800925689292,-0.7485800925689292
-0.8030426548082299,-0.8030426548082299
-0.8137918447238813,-0.8137918447238813
-0.7980263661809258,-0.7980263661809258
-0.7808276623158835,-0.7808276623158835
-0.7879937889263178,-0.7879937889263178
-0.8137918447238813,-0.8137918447238813
-0.8496224777760528,-0.8496224777760528
-0.87828698421779,-0.87828698421779
-0.9026518146932666,-0.9026518146932666
-0.9112511666257878,-0.9112511666257878
-0.9162674552530917,-0.9162674552530917
-0.9112511666257878,-0.9112511666257878
-0.9126843919478747,-0.9126843919478747
-0.9112511666257878,-0.9112511666257878
-0.9141176172699614,-0.9141176172699614
-0.9112511666257878,-0.9112511666257878
-0.9119677792868311,-0.9119677792868311
-0.9112511666257878,-0.9112511666257878
-0.9112511666257878,-0.9112511666257878
-0.9112511666257878,-0.9112511666257878
-0.929883095812917,-0.929883095812917
-0.9757463061196965,-0.9757463061196965
-1.0359417696473445,-1.0359417696473445
-1.0409580582746485,-1.0409580582746485
-0.90336842735431,-0.90336842735431
-0.5536614487651162,-0.5536614487651162
0.010312715476062988,0.010312715476062988
0.7448406930455785,0.7448406930455785
1.5603459013130017,1.5603459013130017
2.335004187900949,2.335004187900949
2.8803464229549993,2.8803464229549993
3.016502828553251,3.016502828553251
2.6839945538290997,2.6839945538290997
2.0103786524482756,2.0103786524482756
1.214221986029025,1.214221986029025
0.4847102970868135,0.4847102970868135
-0.08213031779853945,-0.08213031779853945
-0.45691873952425327,-0.45691873952425327
-0.6690360871931085,-0.6690360871931085
-0.7808276623158835,-0.7808276623158835
-0.8553553790644002,-0.8553553790644002
-0.9112511666257878,-0.9112511666257878
-0.9499482503221329,-0.9499482503221329
-0.9757463061196965,-0.9757463061196965
-1.0072772632056073,-1.0072772632056073
-1.0409580582746485,-1.0409580582746485
-1.066756114072212,-1.066756114072212
-1.073205628021603,-1.073205628021603
-1.0739222406826463,-1.0739222406826463
-1.073205628021603,-1.073205628021603
-1.0775053039878635,-1.0775053039878635
-1.073205628021603,-1.073205628021603
-1.0825215926151674,-1.0825215926151674
-1.1054531977685573,-1.1054531977685573
-1.139850605498642,-1.139850605498642
-1.138417380176555,-1.138417380176555
-1.1054531977685573,-1.1054531977685573
-1.073205628021603,-1.073205628021603
-1.0710557900384725,-1.0710557900384725
-1.073205628021603,-1.073205628021603
-1.0595899874617778,-1.0595899874617778
-1.0409580582746485,-1.0409580582746485
-1.0416746709356919,-1.0416746709356919
-1.0409580582746485,-1.0409580582746485
-1.0158766151381284,-1.0158766151381284
-0.9757463061196965,-0.9757463061196965
-0.9621306655598713,-0.9621306655598713
-0.9757463061196965,-0.9757463061196965
-0.9907951720016085,-0.9907951720016085
-0.9757463061196965,-0.9757463061196965
-0.9434987363727421,-0.9434987363727421
-0.9112511666257878,-0.9112511666257878
-0.893335850099702,-0.893335850099702
-0.87828698421779,-0.87828698421779
-0.8639547309969213,-0.8639547309969213
-0.8460394144708356,-0.8460394144708356
-0.8331403865720539,-0.8331403865720539
-0.8137918447238813,-0.8137918447238813
-0.786560563604231,-0.786560563604231
-0.7485800925689292,-0.7485800925689292
-0.7055833329063234,-0.7055833329063234
-0.6511207706670227,-0.6511207706670227
-0.5966582084277221,-0.5966582084277221
-0.5536614487651162,-0.5536614487651162
-0.5350295195779871,-0.5350295195779871
-0.5214138790181619,-0.5214138790181619
-0.49704904854268533,-0.49704904854268533
-0.45691873952425327,-0.45691873952425327
-0.42037149381103833,-0.42037149381103833
-0.39170698736930115,-0.39170698736930115
-0.3644757062496508,-0.3644757062496508
-0.32649523521434903,-0.32649523521434903
-0.29783072877261185,-0.29783072877261185
-0.29424766546739467,-0.29424766546739467
-0.31502943263765415,-0.31502943263765415
-0.32649523521434903,-0.32649523521434903
-0.3236287845701753,-0.3236287845701753
-0.32649523521434903,-0.32649523521434903
-0.35874280496130334,-0.35874280496130334
-0.39170698736930115,-0.39170698736930115
-0.40173956462390914,-0.40173956462390914
-0.39170698736930115,-0.39170698736930115
-0.39743988865764857,-0.39743988865764857
-0.42395455711625546,-0.42395455711625546
-0.4605018028294704,-0.4605018028294704
-0.4891663092712076,-0.4891663092712076
-0.5113813017635539,-0.5113813017635539
-0.5214138790181619,-0.5214138790181619
-0.5328796815948568,-0.5328796815948568
-0.5536614487651162,-0.5536614487651162
-0.5909253071393746,-0.5909253071393746
-0.6188732009200684,-0.6188732009200684
-0.6360719047851107,-0.6360719047851107
-0.6511207706670227,-0.6511207706670227
-0.674768988481456,-0.674768988481456
-0.6840849530750205,-0.6840849530750205
-0.6812185024308468,-0.6812185024308468
-0.6840849530750205,-0.6840849530750205
-0.7062999455673669,-0.7062999455673669
-0.7163325228219748,-0.7163325228219748
-0.7027168822621497,-0.7027168822621497
-0.6840849530750205,-0.6840849530750205
-0.6862347910581508,-0.6862347910581508
-0.6840849530750205,-0.6840849530750205
-0.6575702846164136,-0.6575702846164136
-0.6188732009200684,-0.6188732009200684
-0.6088406236654603,-0.6088406236654603
-0.6188732009200684,-0.6188732009200684
-0.6188732009200684,-0.6188732009200684
-0.5866256311731141,-0.5866256311731141
-0.5479285474767688,-0.5479285474767688
-0.5214138790181619,-0.5214138790181619
-0.509948076441467,-0.509948076441467
-0.4891663092712076,-0.4891663092712076
-0.4562021268632098,-0.4562021268632098
-0.42395455711625546,-0.42395455711625546
-0.42395455711625546,-0.42395455711625546
-0.45691873952425327,-0.45691873952425327
-0.5092314637804236,-0.5092314637804236
-0.5536614487651162,-0.5536614487651162
-0.5894920818172877,-0.5894920818172877
-0.6188732009200684,-0.6188732009200684
-0.6547038339722399,-0.6547038339722399
-0.6840849530750205,-0.6840849530750205
-0.6883846290412811,-0.6883846290412811
-0.6511207706670227,-0.6511207706670227
-0.6045409476991997,-0.6045409476991997
-0.5866256311731141,-0.5866256311731141
-0.6145735249538078,-0.6145735249538078
-0.6511207706670227,-0.6511207706670227
-0.6740523758204124,-0.6740523758204124
-0.6840849530750205,-0.6840849530750205
-0.6934009176685851,-0.6934009176685851
-0.6840849530750205,-0.6840849530750205
-0.6525539959891096,-0.6525539959891096
-0.6188732009200684,-0.6188732009200684
-0.6131402996317209,-0.6131402996317209
-0.6188732009200684,-0.6188732009200684
-0.6210230389031987,-0.6210230389031987
-0.6188732009200684,-0.6188732009200684
-0.6260393275305027,-0.6260393275305027
-0.6188732009200684,-0.6188732009200684
-0.5823259552068535,-0.5823259552068535
-0.5214138790181619,-0.5214138790181619
-0.4676679294399047,-0.4676679294399047
-0.42395455711625546,-0.42395455711625546
-0.3888405367251274,-0.3888405367251274
-0.3594594176223468,-0.3594594176223468
-0.3422607137573045,-0.3422607137573045
-0.32649523521434903,-0.32649523521434903
-0.3178958832818279,-0.3178958832818279
-0.32649523521434903,-0.32649523521434903
-0.36805876955486794,-0.36805876955486794
-0.42395455711625546,-0.42395455711625546
-0.4777005066945127,-0.4777005066945127
-0.5214138790181619,-0.5214138790181619
-0.5701435399691152,-0.5701435399691152
-0.6188732009200684,-0.6188732009200684
-0.6597201225995439,-0.6597201225995439
-0.6840849530750205,-0.6840849530750205
-0.7091663962115405,-0.7091663962115405
-0.7485800925689292,-0.7485800925689292
-0.8037592674692733,-0.8037592674692733
-0.8460394144708356,-0.8460394144708356
-0.8725540829294426,-0.8725540829294426
-0.87828698421779,-0.87828698421779
-0.8754205335736163,-0.8754205335736163
-0.8460394144708356,-0.8460394144708356
-0.8173749080290984,-0.8173749080290984
-0.8137918447238813,-0.8137918447238813
-0.8503390904370962,-0.8503390904370962
-0.87828698421779,-0.87828698421779
-0.873270695590486,-0.873270695590486
-0.8460394144708356,-0.8460394144708356
-0.8374400625383145,-0.8374400625383145
-0.8460394144708356,-0.8460394144708356
-0.8696876322852688,-0.8696876322852688
-0.9112511666257878,-0.9112511666257878
-0.9678635668482187,-0.9678635668482187
-0.9757463061196965,-0.9757463061196965
-0.8553553790644002,-0.8553553790644002
-0.5536614487651162,-0.5536614487651162
-0.07783064183227888,-0.07783064183227888
0.5499220492417657,0.5499220492417657
1.270834386251456,1.270834386251456
1.9781310827013212,1.9781310827013212
2.4955254239746774,2.4955254239746774
2.659629723353623,2.659629723353623
2.3937664261065104,2.3937664261065104
1.7832124388975084,1.7832124388975084
1.0293359194798202,1.0293359194798202
0.3550034054379527,0.3550034054379527
-0.12727691544427552,-0.12727691544427552
-0.42395455711625546,-0.42395455711625546
-0.6131402996317209,-0.6131402996317209
-0.7485800925689292,-0.7485800925689292
-0.8503390904370962,-0.8503390904370962
-0.9112511666257878,-0.9112511666257878
-0.9377658350843946,-0.9377658350843946
-0.9434987363727421,-0.9434987363727421
-0.9528147009663067,-0.9528147009663067
-0.9757463061196965,-0.9757463061196965
-1.0130101644939549,-1.0130101644939549
-1.0409580582746485,-1.0409580582746485
-1.0416746709356919,-1.0416746709356919
-1.0087104885276943,-1.0087104885276943
-0.9793293694249136,-0.9793293694249136
-0.9757463061196965,-0.9757463061196965
-1.0022609745783033,-1.0022609745783033
-1.0087104885276943,-1.0087104885276943
-0.9829124327301307,-0.9829124327301307
-0.9434987363727421,-0.9434987363727421
-0.9413488983896118,-0.9413488983896118
-0.9757463061196965,-0.9757463061196965
-1.0137267771549983,-1.0137267771549983
-1.0087104885276943,-1.0087104885276943
-0.9657137288650884,-0.9657137288650884
-0.9112511666257878,-0.9112511666257878
-0.8632381183358779,-0.8632381183358779
-0.8137918447238813,-0.8137918447238813
-0.771511697722319,-0.771511697722319
-0.7485800925689292,-0.7485800925689292
-0.7414139659584948,-0.7414139659584948
-0.7163325228219748,-0.7163325228219748
-0.6819351150918902,-0.6819351150918902
-0.6840849530750205,-0.6840849530750205
-0.7457136419247554,-0.7457136419247554
-0.8137918447238813,-0.8137918447238813
-0.8424563511656185,-0.8424563511656185
-0.8460394144708356,-0.8460394144708356
-0.8739873082515294,-0.8739873082515294
-0.9112511666257878,-0.9112511666257878
-0.9177006805751786,-0.9177006805751786
-0.87828698421779,-0.87828698421779
-0.8367234498772711,-0.8367234498772711
-0.8137918447238813,-0.8137918447238813
-0.8051924927913602,-0.8051924927913602
-0.7808276623158835,-0.7808276623158835
-0.7399807406364081,-0.7399807406364081
-0.6840849530750205,-0.6840849530750205
-0.6238894895473724,-0.6238894895473724
-0.5536614487651162,-0.5536614487651162
-0.48558324596599045,-0.48558324596599045
-0.42395455711625546,-0.42395455711625546
-0.37737473414843253,-0.37737473414843253
-0.32649523521434903,-0.32649523521434903
-0.2748991236192221,-0.2748991236192221
-0.22903591331244258,-0.22903591331244258
-0.19965479420966195,-0.19965479420966195
-0.16454077381853388,-0.16454077381853388
-0.11581111286758065,-0.11581111286758065
-0.06708145191662743,-0.06708145191662743
-0.04271662144115082,-0.04271662144115082
-0.03483388216967309,-0.03483388216967309
-0.03340065684758623,-0.03340065684758623
-0.03483388216967309,-0.03483388216967309
-0.049882748051585116,-0.049882748051585116
-0.06708145191662743,-0.06708145191662743
-0.08356354312062632,-0.08356354312062632
-0.09932902166358178,-0.09932902166358178
-0.12297723947801495,-0.12297723947801495
-0.13229320407157955,-0.13229320407157955
-0.12011078883384124,-0.12011078883384124
-0.09932902166358178,-0.09932902166358178
-0.10291208496879892,-0.10291208496879892
-0.13229320407157955,-0.13229320407157955
-0.18030625236148934,-0.18030625236148934
-0.22903591331244258,-0.22903591331244258
-0.2734658982971352,-0.2734658982971352
-0.29424766546739467,-0.29424766546739467
-0.29783072877261185,-0.29783072877261185
-0.29424766546739467,-0.29424766546739467
-0.29783072877261185,-0.29783072877261185
-0.29424766546739467,-0.29424766546739467
-0.28923137684009065,-0.28923137684009065
-0.29424766546739467,-0.29424766546739467
-0.3257786225533056,-0.3257786225533056
-0.3594594176223468,-0.3594594176223468
-0.3816744101146931,-0.3816744101146931
-0.39170698736930115,-0.39170698736930115
-0.40890569123434345,-0.40890569123434345
-0.42395455711625546,-0.42395455711625546
-0.4304040710656463,-0.4304040710656463
-0.42395455711625546,-0.42395455711625546
-0.42180471913312517,-0.42180471913312517
-0.42395455711625546,-0.42395455711625546
-0.43757019767608063,-0.43757019767608063
-0.45691873952425327,-0.45691873952425327
-0.4812835699997299,-0.4812835699997299
-0.4891663092712076,-0.4891663092712076
-0.4769838940334693,-0.4769838940334693
-0.45691873952425327,-0.45691873952425327
-0.46121841549051384,-0.46121841549051384
-0.4891663092712076,-0.4891663092712076
-0.519980653696075,-0.519980653696075
-0.5214138790181619,-0.5214138790181619
-0.5128145270856408,-0.5128145270856408
-0.5214138790181619,-0.5214138790181619
-0.5593943500534637,-0.5593943500534637
-0.5866256311731141,-0.5866256311731141
-0.58160934254581,-0.58160934254581
-0.5536614487651162,-0.5536614487651162
-0.536462744900074,-0.536462744900074
-0.5214138790181619,-0.5214138790181619
-0.504931787814163,-0.504931787814163
-0.4891663092712076,-0.4891663092712076
-0.4984822738647722,-0.4984822738647722
-0.5214138790181619,-0.5214138790181619
-0.5450620968325951,-0.5450620968325951
-0.5536614487651162,-0.5536614487651162
-0.5593943500534637,-0.5593943500534637
-0.5536614487651162,-0.5536614487651162
-0.5400458082052911,-0.5400458082052911
-0.5214138790181619,-0.5214138790181619
-0.5249969423233791,-0.5249969423233791
-0.5536614487651162,-0.5536614487651162
-0.5966582084277221,-0.5966582084277221
-0.6188732009200684,-0.6188732009200684
-0.6045409476991997,-0.6045409476991997
-0.5536614487651162,-0.5536614487651162
-0.4984822738647722,-0.4984822738647722
-0.45691873952425327,-0.45691873952425327
-0.42825423308251603,-0.42825423308251603
-0.39170698736930115,-0.39170698736930115
-0.3530099036729559,-0.3530099036729559
-0.32649523521434903,-0.32649523521434903
-0.31717927062078444,-0.31717927062078444
-0.29424766546739467,-0.29424766546739467
-0.26486654636461404,-0.26486654636461404
-0.26200009572044036,-0.26200009572044036
-0.316462657959741,-0.316462657959741
-0.39170698736930115,-0.39170698736930115
-0.4440197116254715,-0.4440197116254715
-0.45691873952425327,-0.45691873952425327
-0.45763535218529666,-0.45763535218529666
-0.45691873952425327,-0.45691873952425327
-0.45763535218529666,-0.45763535218529666
-0.45691873952425327,-0.45691873952425327
-0.46193502815155724,-0.46193502815155724
-0.45691873952425327,-0.45691873952425327
-0.4347037470319069,-0.4347037470319069
-0.39170698736930115,-0.39170698736930115
-0.35802619230025995,-0.35802619230025995
-0.32649523521434903,-0.32649523521434903
-0.3021304047388724,-0.3021304047388724
-0.26200009572044036,-0.26200009572044036
-0.22616946266826884,-0.22616946266826884
-0.19678834356548822,-0.19678834356548822
-0.1838893156667065,-0.1838893156667065
-0.16454077381853388,-0.16454077381853388
-0.13444304205470983,-0.13444304205470983
-0.09932902166358178,-0.09932902166358178
-0.09502934569732119,-0.09502934569732119
-0.13229320407157955,-0.13229320407157955
-0.19463850558235793,-0.19463850558235793
-0.22903591331244258,-0.22903591331244258
-0.19248866759922764,-0.19248866759922764
-0.03483388216967309,-0.03483388216967309
0.2876418152998703,0.2876418152998703
0.8093358325394873,0.8093358325394873
1.4886846352086587,1.4886846352086587
2.2052972962520885,2.2052972962520885
2.7922030656466577,2.7922030656466577
3.1139621504551576,3.1139621504551576
3.0738318414367254,3.0738318414367254
2.659629723353623,2.659629723353623
1.9659486674635829,1.9659486674635829
1.199173120147113,1.199173120147113
0.545622373275505,0.545622373275505
0.09558962214023113,0.09558962214023113
-0.17743980171731563,-0.17743980171731563
-0.32649523521434903,-0.32649523521434903
-0.41678843050582115,-0.41678843050582115
-0.4891663092712076,-0.4891663092712076
-0.5644106386807677,-0.5644106386807677
-0.6188732009200684,-0.6188732009200684
-0.6446712567176318,-0.6446712567176318
-0.6511207706670227,-0.6511207706670227
-0.6676028618710216,-0.6676028618710216
-0.6840849530750205,-0.6840849530750205
-0.6905344670244113,-0.6905344670244113
-0.6840849530750205,-0.6840849530750205
-0.6934009176685851,-0.6934009176685851
-0.7163325228219748,-0.7163325228219748
-0.7464302545857989,-0.7464302545857989
-0.7485800925689292,-0.7485800925689292
-0.7378309026532778,-0.7378309026532778
-0.7163325228219748,-0.7163325228219748
-0.7027168822621497,-0.7027168822621497
-0.6840849530750205,-0.6840849530750205
-0.6740523758204124,-0.6740523758204124
-0.6840849530750205,-0.6840849530750205
-0.7206321987882354,-0.7206321987882354
-0.7485800925689292,-0.7485800925689292
-0.7464302545857989,-0.7464302545857989
-0.7163325228219748,-0.7163325228219748
-0.6926843050075416,-0.6926843050075416
-0.6840849530750205,-0.6840849530750205
-0.6869514037191942,-0.6869514037191942
-0.6840849530750205,-0.6840849530750205
-0.6676028618710216,-0.6676028618710216
-0.6188732009200684,-0.6188732009200684
-0.5443454841715517,-0.5443454841715517
-0.45691873952425327,-0.45691873952425327
-0.38454086075886684,-0.38454086075886684
-0.32649523521434903,-0.32649523521434903
-0.27919879958548266,-0.27919879958548266
-0.22903591331244258,-0.22903591331244258
-0.1817394776835762,-0.1817394776835762
-0.13229320407157955,-0.13229320407157955
-0.0928795077141909,-0.0928795077141909
-0.06708145191662743,-0.06708145191662743
-0.05561564933993255,-0.05561564933993255
-0.03483388216967309,-0.03483388216967309
-0.0033029250837621777,-0.0033029250837621777
0.030377869985279023,0.030377869985279023
0.04757657385032134,0.04757657385032134
0.06262543973223336,0.06262543973223336
0.0877068828687534,0.0877068828687534
0.12783719188718548,0.12783719188718548
0.1643844376004004,0.1643844376004004
0.19233233138109415,0.19233233138109415
0.20093168331361533,0.20093168331361533
0.19233233138109415,0.19233233138109415
0.17226717687187812,0.17226717687187812
0.16008476163413982,0.16008476163413982
0.14933557171848838,0.14933557171848838
0.12783719188718548,0.12783719188718548
0.08842349552979684,0.08842349552979684
0.06262543973223336,0.06262543973223336
0.059042376427016215,0.059042376427016215
0.06262543973223336,0.06262543973223336
0.03897722191780018,0.03897722191780018
-0.0018696997616753181,-0.0018696997616753181
-0.04271662144115082,-0.04271662144115082
-0.06708145191662743,-0.06708145191662743
-0.09502934569732119,-0.09502934569732119
-0.13229320407157955,-0.13229320407157955
-0.1817394776835762,-0.1817394776835762
-0.22903591331244258,-0.22903591331244258
-0.2799154122465261,-0.2799154122465261
-0.32649523521434903,-0.32649523521434903
-0.36949199487695483,-0.36949199487695483
-0.39170698736930115,-0.39170698736930115
-0.40675585325121316,-0.40675585325121316
-0.42395455711625546,-0.42395455711625546
-0.4490360002527755,-0.4490360002527755
-0.45691873952425327,-0.45691873952425327
-0.45261906355799264,-0.45261906355799264
-0.45691873952425327,-0.45691873952425327
-0.4891663092712076,-0.4891663092712076
-0.5214138790181619,-0.5214138790181619
-0.5328796815948568,-0.5328796815948568
-0.5214138790181619,-0.5214138790181619
-0.5178308157129448,-0.5178308157129448
-0.5214138790181619,-0.5214138790181619
-0.5264301676454659,-0.5264301676454659
-0.5214138790181619,-0.5214138790181619
-0.5206972663571185,-0.5206972663571185
-0.5214138790181619,-0.5214138790181619
-0.5242803296623356,-0.5242803296623356
-0.5214138790181619,-0.5214138790181619
-0.5221304916792053,-0.5221304916792053
-0.5214138790181619,-0.5214138790181619
-0.5235637170012922,-0.5235637170012922
-0.5214138790181619,-0.5214138790181619
-0.5221304916792053,-0.5221304916792053
-0.5214138790181619,-0.5214138790181619
-0.5235637170012922,-0.5235637170012922
-0.5214138790181619,-0.5214138790181619
-0.5214138790181619,-0.5214138790181619
-0.5214138790181619,-0.5214138790181619
-0.5249969423233791,-0.5249969423233791
-0.5214138790181619,-0.5214138790181619
-0.5178308157129448,-0.5178308157129448
-0.5214138790181619,-0.5214138790181619
-0.5400458082052911,-0.5400458082052911
-0.5536614487651162,-0.5536614487651162
-0.5586777373924203,-0.5586777373924203
-0.5536614487651162,-0.5536614487651162
-0.5550946740872031,-0.5550946740872031
-0.5536614487651162,-0.5536614487651162
-0.5529448361040729,-0.5529448361040729
-0.5536614487651162,-0.5536614487651162
-0.5694269273080718,-0.5694269273080718
-0.5866256311731141,-0.5866256311731141
-0.5952249831056352,-0.5952249831056352
-0.5866256311731141,-0.5866256311731141
-0.5722933779522454,-0.5722933779522454
-0.5536614487651162,-0.5536614487651162
-0.5378959702221608,-0.5378959702221608
-0.5214138790181619,-0.5214138790181619
-0.5178308157129448,-0.5178308157129448
-0.5214138790181619,-0.5214138790181619
-0.5206972663571185,-0.5206972663571185
-0.4891663092712076,-0.4891663092712076
-0.4382868103371241,-0.4382868103371241
-0.39170698736930115,-0.39170698736930115
-0.3630424809275639,-0.3630424809275639
-0.32649523521434903,-0.32649523521434903
-0.2756157362802655,-0.2756157362802655
-0.22903591331244258,-0.22903591331244258
-0.21828672339679112,-0.21828672339679112
-0.22903591331244258,-0.22903591331244258
-0.2440847791943546,-0.2440847791943546
-0.26200009572044036,-0.26200009572044036
-0.31144636933243697,-0.31144636933243697
-0.39170698736930115,-0.39170698736930115
-0.48343340798286016,-0.48343340798286016
-0.5536614487651162,-0.5536614487651162
-0.5902086944783312,-0.5902086944783312
-0.5866256311731141,-0.5866256311731141
-0.5651272513418112,-0.5651272513418112
-0.5536614487651162,-0.5536614487651162
-0.576593053918506,-0.576593053918506
-0.6188732009200684,-0.6188732009200684
-0.6618699605826742,-0.6618699605826742
-0.6840849530750205,-0.6840849530750205
-0.7020002696011063,-0.7020002696011063
-0.7163325228219748,-0.7163325228219748
-0.7399807406364081,-0.7399807406364081
-0.7485800925689292,-0.7485800925689292
-0.7528797685351898,-0.7528797685351898
-0.7485800925689292,-0.7485800925689292
-0.7521631558741463,-0.7521631558741463
-0.7485800925689292,-0.7485800925689292
-0.7378309026532778,-0.7378309026532778
-0.7163325228219748,-0.7163325228219748
-0.7055833329063234,-0.7055833329063234
-0.7163325228219748,-0.7163325228219748
-0.7571794445014504,-0.7571794445014504
-0.8137918447238813,-0.8137918447238813
-0.8625215056748345,-0.8625215056748345
-0.8460394144708356,-0.8460394144708356
-0.6919676923464982,-0.6919676923464982
-0.32649523521434903,-0.32649523521434903
0.26471021014648055,0.26471021014648055
1.0365020460902545,1.0365020460902545
1.8742222468500238,1.8742222468500238
2.6273821536066686,2.6273821536066686
3.1110956998109836,3.1110956998109836
3.17917390261011,3.17917390261011
2.7907698403245704,2.7907698403245704
2.075590404603228,2.075590404603228
1.2579353583526742,1.2579353583526742
0.5499220492417657,0.5499220492417657
0.04614334852823448,0.04614334852823448
-0.26200009572044036,-0.26200009572044036
-0.44258648630338465,-0.44258648630338465
-0.5536614487651162,-0.5536614487651162
-0.6410881934124147,-0.6410881934124147
-0.7163325228219748,-0.7163325228219748
-0.7786778243327532,-0.7786778243327532
-0.8137918447238813,-0.8137918447238813
-0.8309905485889236,-0.8309905485889236
-0.8460394144708356,-0.8460394144708356
-0.8682544069631819,-0.8682544069631819
-0.87828698421779,-0.87828698421779
-0.87828698421779,-0.87828698421779
-0.87828698421779,-0.87828698421779
-0.8990687513880494,-0.8990687513880494
-0.9112511666257878,-0.9112511666257878
-0.9055182653374403,-0.9055182653374403
-0.87828698421779,-0.87828698421779
-0.861804893013791,-0.861804893013791
-0.8460394144708356,-0.8460394144708356
-0.831707161249967,-0.831707161249967
-0.8137918447238813,-0.8137918447238813
-0.8094921687576208,-0.8094921687576208
-0.8137918447238813,-0.8137918447238813
-0.8188081333511853,-0.8188081333511853
-0.8137918447238813,-0.8137918447238813
-0.811642006740751,-0.811642006740751
-0.8137918447238813,-0.8137918447238813
-0.8195247460122287,-0.8195247460122287
-0.8137918447238813,-0.8137918447238813
-0.8001762041640561,-0.8001762041640561
-0.7808276623158835,-0.7808276623158835
-0.7664954090950149,-0.7664954090950149
-0.7485800925689292,-0.7485800925689292
-0.7320980013649303,-0.7320980013649303
-0.7163325228219748,-0.7163325228219748
-0.70486672024528,-0.70486672024528
-0.6840849530750205,-0.6840849530750205
-0.6539872213111965,-0.6539872213111965
-0.6188732009200684,-0.6188732009200684
-0.5902086944783312,-0.5902086944783312
-0.5536614487651162,-0.5536614487651162
-0.5085148511193802,-0.5085148511193802
-0.45691873952425327,-0.45691873952425327
-0.4189382684889515,-0.4189382684889515
-0.39170698736930115,-0.39170698736930115
-0.36590893157173765,-0.36590893157173765
-0.32649523521434903,-0.32649523521434903
-0.2799154122465261,-0.2799154122465261
-0.22903591331244258,-0.22903591331244258
-0.19033882961609735,-0.19033882961609735
-0.16454077381853388,-0.16454077381853388
-0.15164174591975216,-0.15164174591975216
-0.13229320407157955,-0.13229320407157955
-0.10362869762984235,-0.10362869762984235
-0.06708145191662743,-0.06708145191662743
-0.04343323410219425,-0.04343323410219425
-0.03483388216967309,-0.03483388216967309
-0.03698372015280338,-0.03698372015280338
-0.03483388216967309,-0.03483388216967309
-0.03196743152549937,-0.03196743152549937
-0.03483388216967309,-0.03483388216967309
-0.05059936071262854,-0.05059936071262854
-0.06708145191662743,-0.06708145191662743
-0.08356354312062632,-0.08356354312062632
-0.09932902166358178,-0.09932902166358178
-0.12011078883384124,-0.12011078883384124
-0.13229320407157955,-0.13229320407157955
-0.14375900664827443,-0.14375900664827443
-0.16454077381853388,-0.16454077381853388
-0.20180463219279224,-0.20180463219279224
-0.22903591331244258,-0.22903591331244258
-0.244801391855398,-0.244801391855398
-0.26200009572044036,-0.26200009572044036
-0.29854734143365524,-0.29854734143365524
-0.32649523521434903,-0.32649523521434903
-0.33437797448582673,-0.33437797448582673
-0.32649523521434903,-0.32649523521434903
-0.32936168585852277,-0.32936168585852277
-0.32649523521434903,-0.32649523521434903
-0.3135962073155673,-0.3135962073155673
-0.29424766546739467,-0.29424766546739467
-0.29424766546739467,-0.29424766546739467
-0.29424766546739467,-0.29424766546739467
-0.2748991236192221,-0.2748991236192221
-0.22903591331244258,-0.22903591331244258
-0.1889056042940105,-0.1889056042940105
-0.16454077381853388,-0.16454077381853388
-0.15450819656392586,-0.15450819656392586
-0.13229320407157955,-0.13229320407157955
-0.09216289505314747,-0.09216289505314747
-0.03483388216967309,-0.03483388216967309
0.011029328137106418,0.011029328137106418
0.030377869985279023,0.030377869985279023
0.018912067408584147,0.018912067408584147
-0.0018696997616753181,-0.0018696997616753181
-0.03053420620341251,-0.03053420620341251
-0.06708145191662743,-0.06708145191662743
-0.11939417617279781,-0.11939417617279781
-0.16454077381853388,-0.16454077381853388
-0.19105544227714077,-0.19105544227714077
-0.19678834356548822,-0.19678834356548822
-0.20897075880322652,-0.20897075880322652
-0.22903591331244258,-0.22903591331244258
-0.24623461717748488,-0.24623461717748488
-0.22903591331244258,-0.22903591331244258
-0.1932052802602711,-0.1932052802602711
-0.16454077381853388,-0.16454077381853388
-0.16382416115749046,-0.16382416115749046
-0.16454077381853388,-0.16454077381853388
-0.16095771051331673,-0.16095771051331673
-0.16454077381853388,-0.16454077381853388
-0.1960717309044448,-0.1960717309044448
-0.22903591331244258,-0.22903591331244258
-0.25268413112687577,-0.25268413112687577
-0.26200009572044036,-0.26200009572044036
-0.27203267297504835,-0.27203267297504835
-0.26200009572044036,-0.26200009572044036
-0.24050171588913744,-0.24050171588913744
-0.22903591331244258,-0.22903591331244258
-0.25125090580478887,-0.25125090580478887
-0.26200009572044036,-0.26200009572044036
-0.229752525973486,-0.229752525973486
-0.16454077381853388,-0.16454077381853388
-0.12799352810531897,-0.12799352810531897
-0.13229320407157955,-0.13229320407157955
-0.1502085205976653,-0.1502085205976653
-0.13229320407157955,-0.13229320407157955
-0.08714660642584346,-0.08714660642584346
-0.03483388216967309,-0.03483388216967309
-0.0018696997616753181,-0.0018696997616753181
0.030377869985279023,0.030377869985279023
0.060475601749103075,0.060475601749103075
0.09558962214023113,0.09558962214023113
0.13500331849761976,0.13500331849761976
0.22529651378909193,0.22529651378909193
0.37936823591342933,0.37936823591342933
0.58216961898872,0.58216961898872
0.7699221361820986,0.7699221361820986
0.9067951544413937,0.9067951544413937
0.9591078786975641,0.9591078786975641
0.939042724188348,0.939042724188348
0.8817137113048736,0.8817137113048736
0.8745475846944394,0.8745475846944394
0.9462088507987824,0.9462088507987824
1.0687496158372087,1.0687496158372087
1.1597594237897244,1.1597594237897244
1.199173120147113,1.199173120147113
1.1977398948250262,1.1977398948250262
1.199173120147113,1.199173120147113
1.1869907049093746,1.1869907049093746
1.1662089377391152,1.1662089377391152
1.1246454033985964,1.1246454033985964
1.1017137982452065,1.1017137982452065
1.1002805729231198,1.1002805729231198
1.133961367992161,1.133961367992161
1.1662089377391152,1.1662089377391152
1.199173120147113,1.199173120147113
1.2213881126394595,1.2213881126394595
1.2636682596410218,1.2636682596410218
1.3181308218803225,1.3181308218803225
1.3933751512898824,1.3933751512898824
1.4700527060215296,1.4700527060215296
1.556046225346741,1.556046225346741
1.6284241041121275,1.6284241041121275
1.7180006867425561,1.7180006867425561
1.8907043380540227,1.8907043380540227
2.2697924357459973,2.2697924357459973
2.8588480431236967,2.8588480431236967
3.5360470078097377,3.5360470078097377
4.079956017541701,4.079956017541701
4.380216722518898,4.380216722518898
4.435395897419242,4.435395897419242
4.380216722518898,4.380216722518898
4.34080302616151,4.34080302616151
4.380216722518898,4.380216722518898
4.368750919942203,4.368750919942203
4.153050508968131,4.153050508968131
3.723799525003116,3.723799525003116
3.3088807942589704,3.3088807942589704
3.0802813553861164,3.0802813553861164
3.016502828553251,3.016502828553251
2.9641901042970806,2.9641901042970806
2.8867959369043903,2.8867959369043903
2.8273170860377856,2.8273170860377856
2.8223007974104815,2.8223007974104815
2.8251672480546555,2.8251672480546555
2.8223007974104815,2.8223007974104815
2.807968544189613,2.807968544189613
2.7893366150024836,2.7893366150024836
2.7355906654242266,2.7355906654242266
2.659629723353623,2.659629723353623
2.5722029787063247,2.5722029787063247
2.497675261957808,2.497675261957808
2.4002159400559013,2.4002159400559013
2.2697924357459973,2.2697924357459973
2.094222333790357,2.094222333790357
1.9129193305463692,1.9129193305463692
1.7301831019802945,1.7301831019802945
1.556046225346741,1.556046225346741
1.362560806865015,1.362560806865015
1.1662089377391152,1.1662089377391152
0.9669906179690417,0.9669906179690417
0.7770882627925328,0.7770882627925328
0.5628210771405474,0.5628210771405474
0.32275583569099836,0.32275583569099836
0.04614334852823448,0.04614334852823448
-0.22903591331244258,-0.22903591331244258
-0.48629985862703384,-0.48629985862703384
-0.6840849530750205,-0.6840849530750205
-0.826690872622663,-0.826690872622663
-0.9112511666257878,-0.9112511666257878
-0.9642805035430015,-0.9642805035430015
-0.9757463061196965,-0.9757463061196965
-0.9528147009663067,-0.9528147009663067
-0.87828698421779,-0.87828698421779
-0.775094761027536,-0.775094761027536
-0.6511207706670227,-0.6511207706670227
-0.5457787094936385,-0.5457787094936385
-0.45691873952425327,-0.45691873952425327
-0.38310763543678,-0.38310763543678
-0.29424766546739467,-0.29424766546739467
-0.21327043476948712,-0.21327043476948712
-0.16454077381853388,-0.16454077381853388
-0.1745733510731419,-0.1745733510731419
-0.19678834356548822,-0.19678834356548822
-0.19248866759922764,-0.19248866759922764
-0.13229320407157955,-0.13229320407157955
-0.04200000878010739,-0.04200000878010739
0.06262543973223336,0.06262543973223336
0.16151798695622668,0.16151798695622668
0.2575440835360463,0.2575440835360463
0.3478372788275184,0.3478372788275184
0.4524627273398592,0.4524627273398592
0.567120753106808,0.567120753106808
0.6796289408906264,0.6796289408906264
0.7591729462664472,0.7591729462664472
0.8093358325394873,0.8093358325394873
0.8387169516422679,0.8387169516422679
0.8745475846944394,0.8745475846944394
0.9175443443570451,0.9175443443570451
0.9720069065963458,0.9720069065963458
1.0135704409368647,1.0135704409368647
1.0365020460902545,1.0365020460902545
1.0286193068187768,1.0286193068187768
1.0042544763433001,1.0042544763433001
0.969140455952172,0.969140455952172
0.939042724188348,0.939042724188348
0.9053619291193068,0.9053619291193068
0.8745475846944394,0.8745475846944394
0.8566322681683536,0.8566322681683536
0.8745475846944394,0.8745475846944394
0.8931795138815685,0.8931795138815685
0.8745475846944394,0.8745475846944394
0.8050361565732267,0.8050361565732267
0.7448406930455785,0.7448406930455785
0.7190426372480151,0.7190426372480151
0.7118765106375807,0.7118765106375807
0.6796289408906264,0.6796289408906264
0.6473813711436721,0.6473813711436721
0.6366321812280207,0.6366321812280207
0.6473813711436721,0.6473813711436721
0.6287494419565429,0.6287494419565429
0.58216961898872,0.58216961898872
0.5241239934442021,0.5241239934442021
0.4847102970868135,0.4847102970868135
0.4503128893567289,0.4503128893567289
0.42021515759290484,0.42021515759290484
0.3829512992186465,0.3829512992186465
0.3550034054379527,0.3550034054379527
0.33135518762351956,0.33135518762351956
0.32275583569099836,0.32275583569099836
0.3184561597247378,0.3184561597247378
0.32275583569099836,0.32275583569099836
0.3134398710974338,0.3134398710974338
0.2897916532830006,0.2897916532830006
0.25181118224769883,0.25181118224769883
0.22529651378909193,0.22529651378909193
0.2073811972630062,0.2073811972630062
0.19233233138109415,0.19233233138109415
0.16080137429518324,0.16080137429518324
0.12783719188718548,0.12783719188718548
0.09487300947918771,0.09487300947918771
0.06262543973223336,0.06262543973223336
0.015329004103366997,0.015329004103366997
-0.03483388216967309,-0.03483388216967309
-0.08499676844271317,-0.08499676844271317
-0.13229320407157955,-0.13229320407157955
-0.18603915364983678,-0.18603915364983678
-0.22903591331244258,-0.22903591331244258
-0.25483396911000605,-0.25483396911000605
-0.26200009572044036,-0.26200009572044036
-0.28134863756861295,-0.28134863756861295
-0.32649523521434903,-0.32649523521434903
-0.4053226279291263,-0.4053226279291263
-0.4891663092712076,-0.4891663092712076
-0.5579611247313768,-0.5579611247313768
-0.5866256311731141,-0.5866256311731141
-0.5902086944783312,-0.5902086944783312
-0.5866256311731141,-0.5866256311731141
-0.5909253071393746,-0.5909253071393746
-0.5866256311731141,-0.5866256311731141
-0.571576765291202,-0.571576765291202
-0.5536614487651162,-0.5536614487651162
-0.5536614487651162,-0.5536614487651162
-0.5536614487651162,-0.5536614487651162
-0.5371793575611173,-0.5371793575611173
-0.4891663092712076,-0.4891663092712076
-0.4339871343708635,-0.4339871343708635
-0.39170698736930115,-0.39170698736930115
-0.38095779745364966,-0.38095779745364966
-0.39170698736930115,-0.39170698736930115
-0.4124887545395606,-0.4124887545395606
-0.42395455711625546,-0.42395455711625546
-0.4268210077604292,-0.4268210077604292
-0.42395455711625546,-0.42395455711625546
-0.4339871343708635,-0.4339871343708635
-0.45691873952425327,-0.45691873952425327
-0.4891663092712076,-0.4891663092712076
-0.5214138790181619,-0.5214138790181619
-0.5629774133586809,-0.5629774133586809
-0.6188732009200684,-0.6188732009200684
-0.6891012417023245,-0.6891012417023245
-0.7485800925689292,-0.7485800925689292
-0.7887104015873613,-0.7887104015873613
-0.8137918447238813,-0.8137918447238813
-0.8453228018097922,-0.8453228018097922
-0.87828698421779,-0.87828698421779
-0.9155508425920483,-0.9155508425920483
-0.9434987363727421,-0.9434987363727421
-0.970013404831349,-0.970013404831349
-0.9757463061196965,-0.9757463061196965
-0.9786127567638702,-0.9786127567638702
-0.9757463061196965,-0.9757463061196965
-0.9857788833743044,-0.9857788833743044
-0.9757463061196965,-0.9757463061196965
-0.9499482503221329,-0.9499482503221329
-0.9112511666257878,-0.9112511666257878
-0.8926192374386586,-0.8926192374386586
-0.87828698421779,-0.87828698421779
-0.8754205335736163,-0.8754205335736163
-0.87828698421779,-0.87828698421779
-0.9055182653374403,-0.9055182653374403
-0.9112511666257878,-0.9112511666257878
-0.843172963826662,-0.843172963826662
-0.6188732009200684,-0.6188732009200684
-0.18030625236148934,-0.18030625236148934
0.5169578668337679,0.5169578668337679
1.4098572424938813,1.4098572424938813
2.3672517576479035,2.3672517576479035
3.222887274933759,3.222887274933759
3.860672543262411,3.860672543262411
4.163083086222739,4.163083086222739
4.087838756813179,4.087838756813179
3.719499849036856,3.719499849036856
3.3088807942589704,3.3088807942589704
3.051616848944379,3.051616848944379
2.9842552588062965,2.9842552588062965
2.9950044487219483,2.9950044487219483
3.016502828553251,3.016502828553251
3.021519117180555,3.021519117180555
3.016502828553251,3.016502828553251
2.9856884841283837,2.9856884841283837
2.9520076890593425,2.9520076890593425
2.917610281329258,2.917610281329258
2.8867959369043903,2.8867959369043903
2.844515789902828,2.844515789902828
2.8223007974104815,2.8223007974104815
2.8172845087831777,2.8172845087831777
2.8223007974104815,2.8223007974104815
2.8022356429012656,2.8022356429012656
2.7893366150024836,2.7893366150024836
2.782887101053093,2.782887101053093
2.7893366150024836,2.7893366150024836
2.780020650408919,2.780020650408919
2.7893366150024836,2.7893366150024836
2.806535318867526,2.806535318867526
2.8223007974104815,2.8223007974104815
2.794352903629788,2.794352903629788
2.7570890452555292,2.7570890452555292
2.7191085742202277,2.7191085742202277
2.6918772931005774,2.6918772931005774
2.6417144068275373,2.6417144068275373
2.594417971198671,2.594417971198671
2.5535710495191952,2.5535710495191952
2.5299228317047624,2.5299228317047624
2.486209459381113,2.486209459381113
2.4324635098028558,2.4324635098028558
2.3651019196647733,2.3651019196647733
2.302756618153995,2.302756618153995
2.2239292254392176,2.2239292254392176
2.1400855440971362,2.1400855440971362
2.051225574127751,2.051225574127751
1.9781310827013212,1.9781310827013212
1.909336267241152,1.909336267241152
1.8484241910524604,1.8484241910524604
1.7882287275248123,1.7882287275248123
1.750964869150554,1.750964869150554
1.7230169753698603,1.7230169753698603
1.685753116995602,1.685753116995602
1.6054924989587378,1.6054924989587378
1.490834473191789,1.490834473191789
1.3496617789662333,1.3496617789662333
1.199173120147113,1.199173120147113
1.0286193068187768,1.0286193068187768
0.8415834022864416,0.8415834022864416
0.6194334773629784,0.6194334773629784
0.3550034054379527,0.3550034054379527
0.03969383457884361,0.03969383457884361
-0.29424766546739467,-0.29424766546739467
-0.6210230389031987,-0.6210230389031987
-0.9112511666257878,-0.9112511666257878
-1.1627822106520316,-1.1627822106520316
-1.3655835937273222,-1.3655835937273222
-1.5282546677841808,-1.5282546677841808
-1.6579615594330417,-1.6579615594330417
-1.7762026485052076,-1.7762026485052076
-1.885127772983809,-1.885127772983809
-1.986886770851976,-1.986886770851976
-2.079329804126578,-2.079329804126578
-2.1846718652999626,-2.1846718652999626
-2.3064960176773455,-2.3064960176773455
-2.4362029093262065,-2.4362029093262065
-2.534378843889156,-2.534378843889156
-2.596724145399935,-2.596724145399935
-2.6311215531300194,-2.6311215531300194
-2.6418707430456707,-2.6418707430456707
-2.598873983383065,-2.598873983383065
-2.507147562769506,-2.507147562769506
-2.403955339579252,-2.403955339579252
-2.3236947215423878,-2.3236947215423878
-2.242000878183437,-2.242000878183437
-2.141675105637357,-2.141675105637357
-2.0470822343796238,-2.0470822343796238
-2.0062353127001487,-2.0062353127001487
-2.01483466463267,-2.01483466463267
-2.0363330444639725,-2.0363330444639725
-2.0470822343796238,-2.0470822343796238
-2.0599812622784057,-2.0599812622784057
-2.079329804126578,-2.079329804126578
-2.0929454446864035,-2.0929454446864035
-2.079329804126578,-2.079329804126578
-2.0377662697860592,-2.0377662697860592
-1.9818704822246718,-1.9818704822246718
-1.9309909832905883,-1.9309909832905883
-1.885127772983809,-1.885127772983809
-1.8213492461509435,-1.8213492461509435
-1.7224566989269503,-1.7224566989269503
-1.6013491592106106,-1.6013491592106106
-1.495290485376183,-1.495290485376183
-1.4229126066107967,-1.4229126066107967
-1.3655835937273222,-1.3655835937273222
-1.301805066894457,-1.301805066894457
-1.2358767020784613,-1.2358767020784613
-1.1814141398391609,-1.1814141398391609
-1.138417380176555,-1.138417380176555
-1.1018701344633401,-1.1018701344633401
-1.073205628021603,-1.073205628021603
-1.056723536817604,-1.056723536817604
-1.0409580582746485,-1.0409580582746485
-1.0130101644939549,-1.0130101644939549
-0.9757463061196965,-0.9757463061196965
-0.9413488983896118,-0.9413488983896118
-0.9112511666257878,-0.9112511666257878
-0.8876029488113546,-0.8876029488113546
-0.87828698421779,-0.87828698421779
-0.8911860121165717,-0.8911860121165717
-0.9112511666257878,-0.9112511666257878
-0.9198505185583089,-0.9198505185583089
-0.9112511666257878,-0.9112511666257878
-0.9026518146932666,-0.9026518146932666
-0.9112511666257878,-0.9112511666257878
-0.9427821237116987,-0.9427821237116987
-0.9757463061196965,-0.9757463061196965
-0.9893619466795216,-0.9893619466795216
-0.9757463061196965,-0.9757463061196965
-0.9628472782209146,-0.9628472782209146
-0.9757463061196965,-0.9757463061196965
-1.0137267771549983,-1.0137267771549983
-1.0409580582746485,-1.0409580582746485
-1.0445411215798657,-1.0445411215798657
-1.0409580582746485,-1.0409580582746485
-1.045257734240909,-1.045257734240909
-1.0409580582746485,-1.0409580582746485
-1.0144433898160417,-1.0144433898160417
-0.9757463061196965,-0.9757463061196965
-0.944931961694829,-0.944931961694829
-0.9112511666257878,-0.9112511666257878
-0.8639547309969213,-0.8639547309969213
-0.8137918447238813,-0.8137918447238813
-0.786560563604231,-0.786560563604231
-0.7808276623158835,-0.7808276623158835
-0.7908602395704916,-0.7908602395704916
-0.8137918447238813,-0.8137918447238813
-0.8567886043864871,-0.8567886043864871
-0.9112511666257878,-0.9112511666257878
-0.9714466301534358,-0.9714466301534358
-1.0409580582746485,-1.0409580582746485
-1.1248017396167298,-1.1248017396167298
-1.2029125196704638,-1.2029125196704638
-1.2537920186045473,-1.2537920186045473
-1.2681242718254158,-1.2681242718254158
-1.2659744338422856,-1.2659744338422856
-1.2681242718254158,-1.2681242718254158
-1.2910558769788056,-1.2910558769788056
-1.333336023980368,-1.333336023980368
-1.3856487482365383,-1.3856487482365383
-1.430078733221231,-1.430078733221231
-1.4687758169175762,-1.4687758169175762
-1.495290485376183,-1.495290485376183
-1.520371928512703,-1.520371928512703
-1.5275380551231375,-1.5275380551231375
-1.5289712804452242,-1.5289712804452242
-1.5275380551231375,-1.5275380551231375
-1.5433035336660927,-1.5433035336660927
-1.5605022375311353,-1.5605022375311353
-1.5691015894636564,-1.5691015894636564
-1.5605022375311353,-1.5605022375311353
-1.5425869210050493,-1.5425869210050493
-1.5275380551231375,-1.5275380551231375
-1.5404370830219192,-1.5404370830219192
-1.5927498072780895,-1.5927498072780895
-1.6579615594330417,-1.6579615594330417
-1.6579615594330417,-1.6579615594330417
-1.5024566119866174,-1.5024566119866174
-1.138417380176555,-1.138417380176555
-0.5608275753755506,-0.5608275753755506
0.19233233138109415,0.19233233138109415
1.02718608149669,1.02718608149669
1.7832124388975084,1.7832124388975084
2.2683592104239105,2.2683592104239105
2.335004187900949,2.335004187900949
1.9602157661752355,1.9602157661752355
1.2636682596410218,1.2636682596410218
0.4567624033061198,0.4567624033061198
-0.26200009572044036,-0.26200009572044036
-0.791576852231535,-0.791576852231535
-1.138417380176555,-1.138417380176555
-1.3562676291337576,-1.3562676291337576
-1.495290485376183,-1.495290485376183
-1.587016905989742,-1.587016905989742
-1.6579615594330417,-1.6579615594330417
-1.725323149571124,-1.725323149571124
-1.7876684510819023,-1.7876684510819023
-1.832098436066595,-1.832098436066595
-1.8521635905758111,-1.8521635905758111
-1.8564632665420717,-1.8564632665420717
-1.8521635905758111,-1.8521635905758111
-1.8514469779147678,-1.8514469779147678
-1.8521635905758111,-1.8521635905758111
-1.858613104525202,-1.858613104525202
-1.8521635905758111,-1.8521635905758111
-1.8399811753380728,-1.8399811753380728
-1.8199160208288567,-1.8199160208288567
-1.8141831195405094,-1.8141831195405094
-1.8199160208288567,-1.8199160208288567
-1.837114724693899,-1.837114724693899
-1.8521635905758111,-1.8521635905758111
-1.860046329847289,-1.860046329847289
-1.8521635905758111,-1.8521635905758111
-1.8356814993718122,-1.8356814993718122
-1.8199160208288567,-1.8199160208288567
-1.8077336055911184,-1.8077336055911184
-1.7876684510819023,-1.7876684510819023
-1.756854106657035,-1.756854106657035
-1.7224566989269503,-1.7224566989269503
-1.691642354502083,-1.691642354502083
-1.6579615594330417,-1.6579615594330417
-1.6206977010587833,-1.6206977010587833
-1.5927498072780895,-1.5927498072780895
-1.587016905989742,-1.587016905989742
-1.5927498072780895,-1.5927498072780895
-1.5884501313118289,-1.5884501313118289
-1.5605022375311353,-1.5605022375311353
-1.5153556398853991,-1.5153556398853991
-1.4630429156292286,-1.4630429156292286
-1.4128800293561885,-1.4128800293561885
-1.3655835937273222,-1.3655835937273222
-1.3283197353530638,-1.3283197353530638
-1.3003718415723702,-1.3003718415723702
-1.2745737857748067,-1.2745737857748067
-1.2358767020784613,-1.2358767020784613
-1.1871470411275082,-1.1871470411275082
-1.138417380176555,-1.138417380176555
-1.0939873951918624,-1.0939873951918624
-1.0409580582746485,-1.0409580582746485
-0.975029693458653,-0.975029693458653
-0.9112511666257878,-0.9112511666257878
-0.8696876322852688,-0.8696876322852688
-0.8460394144708356,-0.8460394144708356
-0.8288407106057933,-0.8288407106057933
-0.8137918447238813,-0.8137918447238813
-0.8094921687576208,-0.8094921687576208
-0.8137918447238813,-0.8137918447238813
-0.8188081333511853,-0.8188081333511853
-0.8137918447238813,-0.8137918447238813
-0.8001762041640561,-0.8001762041640561
-0.7808276623158835,-0.7808276623158835
-0.7629123457897977,-0.7629123457897977
-0.7485800925689292,-0.7485800925689292
-0.744997029263712,-0.744997029263712
-0.7485800925689292,-0.7485800925689292
-0.7621957331287543,-0.7621957331287543
-0.7808276623158835,-0.7808276623158835
-0.8023260421471864,-0.8023260421471864
-0.8137918447238813,-0.8137918447238813
-0.8152250700459681,-0.8152250700459681
-0.8137918447238813,-0.8137918447238813
-0.8231078093174459,-0.8231078093174459
-0.8460394144708356,-0.8460394144708356
-0.888319561472398,-0.888319561472398
-0.9434987363727421,-0.9434987363727421
-1.00154436191726,-1.00154436191726
-1.0409580582746485,-1.0409580582746485
-1.0703391773774291,-1.0703391773774291
-1.1054531977685573,-1.1054531977685573
-1.1498831827532499,-1.1498831827532499
-1.1706649499235093,-1.1706649499235093
-1.1591991473468144,-1.1591991473468144
-1.138417380176555,-1.138417380176555
-1.1369841548544681,-1.1369841548544681
-1.138417380176555,-1.138417380176555
-1.1248017396167298,-1.1248017396167298
-1.1054531977685573,-1.1054531977685573
-1.111902711717948,-1.111902711717948
-1.138417380176555,-1.138417380176555
-1.163498823313075,-1.163498823313075
-1.1706649499235093,-1.1706649499235093
-1.1713815625845527,-1.1713815625845527
-1.1706649499235093,-1.1706649499235093
-1.1642154359741184,-1.1642154359741184
-1.138417380176555,-1.138417380176555
-1.1025867471243835,-1.1025867471243835
-1.073205628021603,-1.073205628021603
-1.0660395014111685,-1.0660395014111685
-1.073205628021603,-1.073205628021603
-1.0803717546320373,-1.0803717546320373
-1.073205628021603,-1.073205628021603
-1.0581567621396908,-1.0581567621396908
-1.0409580582746485,-1.0409580582746485
-1.0352251569863011,-1.0352251569863011
-1.0409580582746485,-1.0409580582746485
-1.0481241848850829,-1.0481241848850829
-1.0409580582746485,-1.0409580582746485
-1.0330753190031707,-1.0330753190031707
-1.0409580582746485,-1.0409580582746485
-1.056723536817604,-1.056723536817604
-1.0409580582746485,-1.0409580582746485
-0.9986779112730861,-0.9986779112730861
-0.9757463061196965,-0.9757463061196965
-1.00369419990039,-1.00369419990039
-1.0409580582746485,-1.0409580582746485
-1.0509906355292566,-1.0509906355292566
-1.0409580582746485,-1.0409580582746485
-1.0431078962577789,-1.0431078962577789
-1.0409580582746485,-1.0409580582746485
-1.015160002477085,-1.015160002477085
-0.9757463061196965,-0.9757463061196965
-0.9635638908819582,-0.9635638908819582
-0.9757463061196965,-0.9757463061196965
-0.9879287213574347,-0.9879287213574347
-0.9757463061196965,-0.9757463061196965
-0.9499482503221329,-0.9499482503221329
-0.9112511666257878,-0.9112511666257878
-0.8567886043864871,-0.8567886043864871
-0.7808276623158835,-0.7808276623158835
-0.7055833329063234,-0.7055833329063234
-0.6511207706670227,-0.6511207706670227
-0.6289057781746764,-0.6289057781746764
-0.6188732009200684,-0.6188732009200684
-0.60669078568233,-0.60669078568233
-0.5866256311731141,-0.5866256311731141
-0.5608275753755506,-0.5608275753755506
-0.5214138790181619,-0.5214138790181619
-0.47841711935555614,-0.47841711935555614
-0.45691873952425327,-0.45691873952425327
-0.48343340798286016,-0.48343340798286016
-0.5536614487651162,-0.5536614487651162
-0.6518373833280662,-0.6518373833280662
-0.7485800925689292,-0.7485800925689292
-0.8137918447238813,-0.8137918447238813
-0.8137918447238813,-0.8137918447238813
-0.771511697722319,-0.771511697722319
-0.7485800925689292,-0.7485800925689292
-0.7858439509431875,-0.7858439509431875
-0.8460394144708356,-0.8460394144708356
-0.8811534348619637,-0.8811534348619637
-0.87828698421779,-0.87828698421779
-0.8747039209125729,-0.8747039209125729
-0.87828698421779,-0.87828698421779
-0.8969189134049191,-0.8969189134049191
-0.9112511666257878,-0.9112511666257878
-0.9248668071856129,-0.9248668071856129
-0.9112511666257878,-0.9112511666257878
-0.8696876322852688,-0.8696876322852688
-0.8137918447238813,-0.8137918447238813
-0.7901436269094481,-0.7901436269094481
-0.8137918447238813,-0.8137918447238813
-0.8668211816410951,-0.8668211816410951
-0.9112511666257878,-0.9112511666257878
-0.9434987363727421,-0.9434987363727421
-0.9757463061196965,-0.9757463061196965
-1.0058440378835205,-1.0058440378835205
-0.9757463061196965,-0.9757463061196965
-0.826690872622663,-0.826690872622663
-0.5214138790181619,-0.5214138790181619
-0.05991532530619313,-0.05991532530619313
0.5499220492417657,0.5499220492417657
1.2565021330305874,1.2565021330305874
1.9458835129543668,1.9458835129543668
2.43962963641329,2.43962963641329
2.594417971198671,2.594417971198671
2.3608022436985125,2.3608022436985125
1.8154600086444628,1.8154600086444628
1.1095965375166843,1.1095965375166843
0.42021515759290484,0.42021515759290484
-0.12226062681697153,-0.12226062681697153
-0.45691873952425327,-0.45691873952425327
-0.6167233629369381,-0.6167233629369381
-0.6840849530750205,-0.6840849530750205
-0.7414139659584948,-0.7414139659584948
-0.8137918447238813,-0.8137918447238813
-0.8804368222009202,-0.8804368222009202
-0.9112511666257878,-0.9112511666257878
-0.913401004608918,-0.913401004608918
-0.9112511666257878,-0.9112511666257878
-0.9241501945245695,-0.9241501945245695
-0.9434987363727421,-0.9434987363727421
-0.9628472782209146,-0.9628472782209146
-0.9757463061196965,-0.9757463061196965
-0.9958114606289125,-0.9958114606289125
-1.0087104885276943,-1.0087104885276943
-1.0072772632056073,-1.0072772632056073
-0.9757463061196965,-0.9757463061196965
-0.9485150250000461,-0.9485150250000461
-0.9434987363727421,-0.9434987363727421
-0.9657137288650884,-0.9657137288650884
-0.9757463061196965,-0.9757463061196965
-0.9642805035430015,-0.9642805035430015
-0.9434987363727421,-0.9434987363727421
-0.9406322857285684,-0.9406322857285684
-0.9434987363727421,-0.9434987363727421
-0.9363326097623078,-0.9363326097623078
-0.9112511666257878,-0.9112511666257878
-0.8811534348619637,-0.8811534348619637
-0.8460394144708356,-0.8460394144708356
-0.8109253940797075,-0.8109253940797075
-0.7808276623158835,-0.7808276623158835
-0.775094761027536,-0.775094761027536
-0.7808276623158835,-0.7808276623158835
-0.7872771762652744,-0.7872771762652744
-0.7808276623158835,-0.7808276623158835
-0.7772445990106663,-0.7772445990106663
-0.7808276623158835,-0.7808276623158835
-0.7908602395704916,-0.7908602395704916
-0.7808276623158835,-0.7808276623158835
-0.744997029263712,-0.744997029263712
-0.6840849530750205,-0.6840849530750205
-0.6167233629369381,-0.6167233629369381
-0.5536614487651162,-0.5536614487651162
-0.519980653696075,-0.519980653696075
-0.5214138790181619,-0.5214138790181619
-0.5407624208663345,-0.5407624208663345
-0.5214138790181619,-0.5214138790181619
-0.44975261291381896,-0.44975261291381896
-0.3594594176223468,-0.3594594176223468
-0.29783072877261185,-0.29783072877261185
-0.26200009572044036,-0.26200009572044036
-0.2319023639566163,-0.2319023639566163
-0.19678834356548822,-0.19678834356548822
-0.16669061180166417,-0.16669061180166417
-0.13229320407157955,-0.13229320407157955
-0.10362869762984235,-0.10362869762984235
-0.09932902166358178,-0.09932902166358178
-0.13229320407157955,-0.13229320407157955
-0.16454077381853388,-0.16454077381853388
-0.17314012575105503,-0.17314012575105503
-0.16454077381853388,-0.16454077381853388
-0.16454077381853388,-0.16454077381853388
-0.16454077381853388,-0.16454077381853388
-0.1595244851912299,-0.1595244851912299
-0.16454077381853388,-0.16454077381853388
-0.20467108283696595,-0.20467108283696595
-0.26200009572044036,-0.26200009572044036
-0.3092965313493067,-0.3092965313493067
-0.32649523521434903,-0.32649523521434903
-0.32004572126495817,-0.32004572126495817
-0.29424766546739467,-0.29424766546739467
-0.2856483135348735,-0.2856483135348735
-0.32649523521434903,-0.32649523521434903
-0.42538778243834235,-0.42538778243834235
-0.5214138790181619,-0.5214138790181619
-0.5658438640028546,-0.5658438640028546
-0.5536614487651162,-0.5536614487651162
-0.5321630689338134,-0.5321630689338134
-0.5214138790181619,-0.5214138790181619
-0.5235637170012922,-0.5235637170012922
-0.5214138790181619,-0.5214138790181619
-0.5214138790181619,-0.5214138790181619
-0.5214138790181619,-0.5214138790181619
-0.5328796815948568,-0.5328796815948568
-0.5536614487651162,-0.5536614487651162
-0.5894920818172877,-0.5894920818172877
-0.6188732009200684,-0.6188732009200684
-0.6324888414798936,-0.6324888414798936
-0.6188732009200684,-0.6188732009200684
-0.591641919800418,-0.591641919800418
-0.5536614487651162,-0.5536614487651162
-0.519980653696075,-0.519980653696075
-0.4891663092712076,-0.4891663092712076
-0.469817767423035,-0.469817767423035
-0.45691873952425327,-0.45691873952425327
-0.45405228888007954,-0.45405228888007954
-0.45691873952425327,-0.45691873952425327
-0.47125099274512183,-0.47125099274512183
-0.4891663092712076,-0.4891663092712076
-0.5013487245089459,-0.5013487245089459
-0.4891663092712076,-0.4891663092712076
-0.45906857750738356,-0.45906857750738356
-0.42395455711625546,-0.42395455711625546
