ECG,PPG
0.04191492544534015,0.04191492544534015
0.08340407917702174,0.08340407917702174
-0.016038178179865872,-0.016038178179865872
-0.12733447946009108,-0.12733447946009108
-0.04896607796691475,-0.04896607796691475
0.16835806062760786,0.16835806062760786
0.24145799815485638,0.24145799815485638
0.059037433334605566,0.059037433334605566
-0.12799303745583207,-0.12799303745583207
-0.050941751954137686,-0.050941751954137686
0.21840846830392216,0.21840846830392216
0.4785388766216083,0.4785388766216083
0.8730151160704538,0.8730151160704538
1.8312169998735761,1.8312169998735761
3.35643731800968,3.35643731800968
4.612307415887725,4.612307415887725
4.62284434381958,4.62284434381958
3.3959507977541388,3.3959507977541388
1.9563430190643618,1.9563430190643618
1.1515851482688872,1.1515851482688872
0.8394286582876639,0.8394286582876639
0.48907580455346394,0.48907580455346394
0.08867254314294956,0.08867254314294956
0.0030600036966224754,0.0030600036966224754
0.24277511414633832,0.24277511414633832
0.39951191713269096,0.39951191713269096
0.2467264621207842,0.2467264621207842
-0.012745388201160985,-0.012745388201160985
-0.10889485557934371,-0.10889485557934371
-0.04106338201802302,-0.04106338201802302
0.012938373632737138,0.012938373632737138
-0.057527331911547464,-0.057527331911547464
-0.19780018500437566,-0.19780018500437566
-0.2880226304208896,-0.2880226304208896
-0.2695830065401422,-0.2695830065401422
-0.2030686489703035,-0.2030686489703035
-0.15696958926843507,-0.15696958926843507
-0.1556524732769531,-0.1556524732769531
-0.15235968329824823,-0.15235968329824823
-0.1411641973706516,-0.1411641973706516
-0.12404168948138619,-0.12404168948138619
-0.12009034150694033,-0.12009034150694033
-0.129968711443055,-0.129968711443055
-0.14313987135787454,-0.14313987135787454
-0.13062726943879596,-0.13062726943879596
-0.07530839779655385,-0.07530839779655385
0.020182511585887894,0.020182511585887894
0.1262103489001853,0.1262103489001853
0.21972558429540412,0.21972558429540412
0.30138677576728534,0.30138677576728534
0.39095066318805827,0.39095066318805827
0.4943442685193918,0.4943442685193918
0.5957621998635023,0.5957621998635023
0.691253109245944,0.691253109245944
0.8005737365389463,0.8005737365389463
0.9224069657510271,0.9224069657510271
1.0192149911249508,1.0192149911249508
1.0666311668183013,1.0666311668183013
1.0844122327033077,1.0844122327033077
1.0936320446436814,1.0936320446436814
1.0830951167118257,1.0830951167118257
1.0363374990142162,1.0363374990142162
0.9764087214017872,0.9764087214017872
0.9322853356871418,0.9322853356871418
0.8921132979469422,0.8921132979469422
0.8104521064750609,0.8104521064750609
0.6793990653226064,0.6793990653226064
0.5490045821658929,0.5490045821658929
0.46997762267697557,0.46997762267697557
0.4166344250219564,0.4166344250219564
0.32707053760118343,0.32707053760118343
0.20062740241891577,0.20062740241891577
0.11106351499814279,0.11106351499814279
0.07879417320683489,0.07879417320683489
0.04257348344108113,0.04257348344108113
-0.04106338201802302,-0.04106338201802302
-0.11943178351119935,-0.11943178351119935
-0.1451155453450975,-0.1451155453450975
-0.15301824129398922,-0.15301824129398922
-0.1938488370299298,-0.1938488370299298
-0.22480106282975573,-0.22480106282975573
-0.18726325707252003,-0.18726325707252003
-0.10296783361767492,-0.10296783361767492
-0.048307519971173773,-0.048307519971173773
-0.03184357007764933,-0.03184357007764933
-0.008135482230974144,-0.008135482230974144
0.05047617938997286,0.05047617938997286
0.1196247689427755,0.1196247689427755
0.1762607565764996,0.1762607565764996
0.2078715403720665,0.2078715403720665
0.22038414229114509,0.22038414229114509
0.2289453962357778,0.2289453962357778
0.25199492608671203,0.25199492608671203
0.2697759919717184,0.2697759919717184
0.25133636809097104,0.25133636809097104
0.21445712032947628,0.21445712032947628
0.23289674421022366,0.23289674421022366
0.3343146755543342,0.3343146755543342
0.4489037668132643,0.4489037668132643
0.4824902245960542,0.4824902245960542
0.4245371209708481,0.4245371209708481
0.34155881350748496,0.34155881350748496
0.2875570578567248,0.2875570578567248
0.2559462740611579,0.2559462740611579
0.2407994401591154,0.2407994401591154
0.22104270028688608,0.22104270028688608
0.19799317043595185,0.19799317043595185
0.18284633653390936,0.18284633653390936
0.19272470647002404,0.19272470647002404
0.19865172843169282,0.19865172843169282
0.1670409446361259,0.1670409446361259
0.1314788128661131,0.1314788128661131
0.14004006681074582,0.14004006681074582
0.13411304484907702,0.13411304484907702
0.019523953590146914,0.019523953590146914
-0.15170112530250726,-0.15170112530250726
-0.1938488370299298,-0.1938488370299298
-0.058844447903029416,-0.058844447903029416
0.08537975316424468,0.08537975316424468
0.16045536467871613,0.16045536467871613
0.487100130566241,0.487100130566241
1.5052307919817922,1.5052307919817922
3.0890627717388432,3.0890627717388432
4.317931991791507,4.317931991791507
4.268540142110934,4.268540142110934
3.0278168781349324,3.0278168781349324
1.6264054631981322,1.6264054631981322
0.8782835800363816,0.8782835800363816
0.6576666514631542,0.6576666514631542
0.457465020757897,0.457465020757897
0.21840846830392216,0.21840846830392216
0.21906702629966313,0.21906702629966313
0.4607578107366019,0.4607578107366019
0.6214459616974004,0.6214459616974004
0.5305649582851455,0.5305649582851455
0.3237777476224786,0.3237777476224786
0.17955354655520447,0.17955354655520447
0.1433328567894507,0.1433328567894507
0.18613912651261424,0.18613912651261424
0.25067781009523005,0.25067781009523005
0.25989762203560374,0.25989762203560374
0.18877335849557816,0.18877335849557816
0.11303918898536573,0.11303918898536573
0.10447793504073302,0.10447793504073302
0.14530853077667363,0.14530853077667363
0.15057699474260144,0.15057699474260144
0.11369774698110671,0.11369774698110671
0.08076984719405783,0.08076984719405783
0.10711216702369693,0.10711216702369693
0.15913824868723417,0.15913824868723417
0.1729679665977947,0.1729679665977947
0.13608871883629994,0.13608871883629994
0.11435630497684768,0.11435630497684768
0.14728420476389656,0.14728420476389656
0.19865172843169282,0.19865172843169282
0.20392019239762066,0.20392019239762066
0.1729679665977947,0.1729679665977947
0.17033373461483078,0.17033373461483078
0.22499404826133193,0.22499404826133193
0.28294715188653796,0.28294715188653796
0.2842642678780199,0.2842642678780199
0.2407994401591154,0.2407994401591154
0.2322381862144827,0.2322381862144827
0.31192370369914096,0.31192370369914096
0.45944069474511995,0.45944069474511995
0.6161774977314726,0.6161774977314726
0.7445963069009631,0.7445963069009631
0.8229647083941395,0.8229647083941395
0.837452984300441,0.837452984300441
0.7992566205474643,0.7992566205474643
0.7597431408030056,0.7597431408030056
0.7577674668157827,0.7577674668157827
0.7689629527433793,0.7689629527433793
0.7281323570074387,0.7281323570074387
0.6089333597783219,0.6089333597783219
0.457465020757897,0.457465020757897
0.3435344874947079,0.3435344874947079
0.2783372459163511,0.2783372459163511
0.2118228883465124,0.2118228883465124
0.12094188493425746,0.12094188493425746
0.04718338941126797,0.04718338941126797
0.03203655550922549,0.03203655550922549
0.07155003525368414,0.07155003525368414
0.1551869007127883,0.1551869007127883
0.25989762203560374,0.25989762203560374
0.2770201299248692,0.2770201299248692
0.0992094710748052,0.0992094710748052
-0.16882363319177265,-0.16882363319177265
-0.25180194065513584,-0.25180194065513584
-0.07728407178377679,-0.07728407178377679
0.11567342096832964,0.11567342096832964
0.1255517909044443,0.1255517909044443
0.05640320135164166,0.05640320135164166
0.046524831415527,0.046524831415527
0.024792417556074735,0.024792417556074735
-0.09835792764748807,-0.09835792764748807
-0.1826533511023332,-0.1826533511023332
-0.09045523169859634,-0.09045523169859634
0.0550860853601597,0.0550860853601597
0.0610131073218285,0.0610131073218285
-0.026575106111721515,-0.026575106111721515
-0.03645347604783618,-0.03645347604783618
0.05442752736441873,0.05442752736441873
0.15255266872982437,0.15255266872982437
0.24475078813356127,0.24475078813356127
0.3448516034861899,0.3448516034861899
0.4041218231028778,0.4041218231028778
0.3639497853626782,0.3639497853626782
0.3079723557246951,0.3079723557246951
0.29150840583117066,0.29150840583117066
0.2697759919717184,0.2697759919717184
0.21906702629966313,0.21906702629966313
0.22104270028688608,0.22104270028688608
0.2783372459163511,0.2783372459163511
0.25923906403986274,0.25923906403986274
0.14464997278093264,0.14464997278093264
0.0932824491131364,0.0932824491131364
0.14399141478519167,0.14399141478519167
0.13806439282352287,0.13806439282352287
0.052451853377195795,0.052451853377195795
0.10974639900666085,0.10974639900666085
0.3942434531667632,0.3942434531667632
0.7037657111650225,0.7037657111650225
1.0258005710823606,1.0258005710823606
1.7949963101078223,1.7949963101078223
3.281361706495209,3.281361706495209
4.87243782420541,4.87243782420541
5.415089612695977,5.415089612695977
4.391690487314497,4.391690487314497
2.5154587574484517,2.5154587574484517
0.9829943013591971,0.9829943013591971
0.2855813838695019,0.2855813838695019
0.036646461479412334,0.036646461479412334
-0.16948219118751362,-0.16948219118751362
-0.20504432295752642,-0.20504432295752642
0.105136493036474,0.105136493036474
0.45153799879622825,0.45153799879622825
0.3962191271539861,0.3962191271539861
0.010962699645514206,0.010962699645514206
-0.27221723852310614,-0.27221723852310614
-0.2774857024890339,-0.2774857024890339
-0.20899567093197227,-0.20899567093197227
-0.24258212871476215,-0.24258212871476215
-0.33873159609294484,-0.33873159609294484
-0.38944056176500014,-0.38944056176500014
-0.35190275600776444,-0.35190275600776444
-0.217556924876605,-0.217556924876605
-0.04501472999246889,-0.04501472999246889
0.0728671512451661,0.0728671512451661
0.07155003525368414,0.07155003525368414
0.03401222949644842,0.03401222949644842
0.04125636744959917,0.04125636744959917
0.10184370305776912,0.10184370305776912
0.1466256467681556,0.1466256467681556
0.14135718280222775,0.14135718280222775
0.11435630497684768,0.11435630497684768
0.1196247689427755,0.1196247689427755
0.15847969069149317,0.15847969069149317
0.20589586638484358,0.20589586638484358
0.2566048320568989,0.2566048320568989
0.33365611755859326,0.33365611755859326
0.4225614469836252,0.4225614469836252
0.47656320263438534,0.47656320263438534
0.5048811964512474,0.5048811964512474
0.5766640179870139,0.5766640179870139
0.7096927331266913,0.7096927331266913
0.80979354847932,0.80979354847932
0.7966223885645004,0.7966223885645004
0.7261566830202157,0.7261566830202157
0.720229661058547,0.720229661058547
0.7985980625517233,0.7985980625517233
0.8532583761982244,0.8532583761982244
0.7999151785432053,0.7999151785432053
0.6800576233183474,0.6800576233183474
0.6003721058336892,0.6003721058336892
0.6010306638294302,0.6010306638294302
0.6188117297144365,0.6188117297144365
0.5621757420807124,0.5621757420807124
0.4153173090304745,0.4153173090304745
0.24145799815485638,0.24145799815485638
0.11303918898536573,0.11303918898536573
0.043232041436822105,0.043232041436822105
0.005694235679586386,0.005694235679586386
-0.02789222210320347,-0.02789222210320347
-0.07069849182636702,-0.07069849182636702
-0.13128582743453696,-0.13128582743453696
-0.20175153297882154,-0.20175153297882154
-0.25246049865087683,-0.25246049865087683
-0.24982626666791288,-0.24982626666791288
-0.21360557690215912,-0.21360557690215912
-0.18923893105974296,-0.18923893105974296
-0.19187316304270688,-0.19187316304270688
-0.17606777114492342,-0.17606777114492342
-0.11087052956656665,-0.11087052956656665
-0.03974626602654106,-0.03974626602654106
-0.03974626602654106,-0.03974626602654106
-0.10823629758360273,-0.10823629758360273
-0.1503840093110253,-0.1503840093110253
-0.09045523169859634,-0.09045523169859634
0.014914047619960073,0.014914047619960073
0.04981762139423188,0.04981762139423188
-0.004842692252269255,-0.004842692252269255
-0.041721940013763996,-0.041721940013763996
0.019523953590146914,0.019523953590146914
0.12160044292999844,0.12160044292999844
0.1578211326957522,0.1578211326957522
0.12686890689592625,0.12686890689592625
0.12357611691722137,0.12357611691722137
0.193383264465765,0.193383264465765
0.26582464399727257,0.26582464399727257
0.25067781009523005,0.25067781009523005
0.14991843674686048,0.14991843674686048
0.05311041137293677,0.05311041137293677
0.0346707874921894,0.0346707874921894
0.0847211951685037,0.0847211951685037
0.12752746489166725,0.12752746489166725
0.10842928301517889,0.10842928301517889
0.03335367150070744,0.03335367150070744
-0.06279579587747527,-0.06279579587747527
-0.15170112530250726,-0.15170112530250726
-0.21953259886382792,-0.21953259886382792
-0.2610217525955095,-0.2610217525955095
-0.276168586497552,-0.276168586497552
-0.28999830440811253,-0.28999830440811253
-0.30909648628460085,-0.30909648628460085
-0.34992708202054146,-0.34992708202054146
-0.39273335174370505,-0.39273335174370505
-0.394709025730928,-0.394709025730928
-0.32490187818238436,-0.32490187818238436
-0.24192357071902115,-0.24192357071902115
-0.22084971485530988,-0.22084971485530988
-0.22216683084679184,-0.22216683084679184
-0.14182275536639258,-0.14182275536639258
-0.01142827220967903,-0.01142827220967903
0.016231163611442025,0.016231163611442025
-0.09704081165600612,-0.09704081165600612
-0.2142641348979001,-0.2142641348979001
-0.2662902165614373,-0.2662902165614373
-0.3262189941738663,-0.3262189941738663
-0.31173071826756477,-0.31173071826756477
0.16440671265316198,0.16440671265316198
1.3689092868634098,1.3689092868634098
2.8974223949782187,2.8974223949782187
3.829940516947443,3.829940516947443
3.571127224621239,3.571127224621239
2.448944399878613,2.448944399878613
1.3247859011487644,1.3247859011487644
0.6952044572203898,0.6952044572203898
0.3843650832306485,0.3843650832306485
0.09789235508332325,0.09789235508332325
-0.09111378969433731,-0.09111378969433731
0.01030414164977323,0.01030414164977323
0.2697759919717184,0.2697759919717184
0.35999843738823234,0.35999843738823234
0.19535893845298793,0.19535893845298793
-0.029209338094685424,-0.029209338094685424
-0.15762814726417604,-0.15762814726417604
-0.19450739502567077,-0.19450739502567077
-0.18331190909807416,-0.18331190909807416
-0.15696958926843507,-0.15696958926843507
-0.17145786517473657,-0.17145786517473657
-0.2564118466253227,-0.2564118466253227
-0.35387842999498736,-0.35387842999498736
-0.40129460568833775,-0.40129460568833775
-0.3993189317011148,-0.3993189317011148
-0.38285498180759037,-0.38285498180759037
-0.33082890014405314,-0.33082890014405314
-0.2662902165614373,-0.2662902165614373
-0.247192034684949,-0.247192034684949
-0.2965838843655223,-0.2965838843655223
-0.3374144801014629,-0.3374144801014629
-0.2959253263697813,-0.2959253263697813
-0.19450739502567077,-0.19450739502567077
-0.11548043553675348,-0.11548043553675348
-0.07728407178377679,-0.07728407178377679
-0.024599432124498583,-0.024599432124498583
0.08669686915572662,0.08669686915572662
0.22367693226984997,0.22367693226984997
0.33892458152452104,0.33892458152452104
0.4548307887749331,0.4548307887749331
0.6148603817399907,0.6148603817399907
0.7722557427220842,0.7722557427220842
0.8242818243856215,0.8242818243856215
0.776865648692271,0.776865648692271
0.7623773727859695,0.7623773727859695
0.8453556802493327,0.8453556802493327
0.9158213857936174,0.9158213857936174
0.8684052101002669,0.8684052101002669
0.7663287207604155,0.7663287207604155
0.7360350529563304,0.7360350529563304
0.7689629527433793,0.7689629527433793
0.7610602567944876,0.7610602567944876
0.6846675292885342,0.6846675292885342
0.6082748017825809,0.6082748017825809
0.5694198800338632,0.5694198800338632
0.5187109143618079,0.5187109143618079
0.4080731710773237,0.4080731710773237
0.25923906403986274,0.25923906403986274
0.1281860228874082,0.1281860228874082
0.0346707874921894,0.0346707874921894
-0.033819244064872266,-0.033819244064872266
-0.08057686176248167,-0.08057686176248167
-0.09243090568581927,-0.09243090568581927
-0.09638225366026514,-0.09638225366026514
-0.15170112530250726,-0.15170112530250726
-0.2781442604847749,-0.2781442604847749
-0.3854892137905543,-0.3854892137905543
-0.3736351698672167,-0.3736351698672167
-0.2550947306338407,-0.2550947306338407
-0.17475065515344146,-0.17475065515344146
-0.23138664278716553,-0.23138664278716553
-0.3584883359651742,-0.3584883359651742
-0.40985585963297044,-0.40985585963297044
-0.365073915922584,-0.365073915922584
-0.3374144801014629,-0.3374144801014629
-0.3848306557948133,-0.3848306557948133
-0.4026117216798197,-0.4026117216798197
-0.2873640724251486,-0.2873640724251486
-0.09243090568581927,-0.09243090568581927
0.043232041436822105,0.043232041436822105
0.08998965913443152,0.08998965913443152
0.10052658706628716,0.10052658706628716
0.12884458088314918,0.12884458088314918
0.16506527064890295,0.16506527064890295
0.2315796282187417,0.2315796282187417
0.3059966817374722,0.3059966817374722
0.32443630561821957,0.32443630561821957
0.29216696382691165,0.29216696382691165
0.3027038917587673,0.3027038917587673
0.3567056474095274,0.3567056474095274
0.3290462115884064,0.3290462115884064
0.22499404826133193,0.22499404826133193
0.21379856233373531,0.21379856233373531
0.29480119580987557,0.29480119580987557
0.28294715188653796,0.28294715188653796
0.2315796282187417,0.2315796282187417
0.43968395487289064,0.43968395487289064
0.896723203917129,0.896723203917129
1.277369725455414,1.277369725455414
1.717945024606128,1.717945024606128
2.8664701691783927,2.8664701691783927
4.6854073534149725,4.6854073534149725
5.893202717603926,5.893202717603926
5.282060897556299,5.282060897556299
3.2069446529764782,3.2069446529764782
1.1272185024264711,1.1272185024264711
-0.002208460269305345,-0.002208460269305345
-0.35124419801202345,-0.35124419801202345
-0.43817385344983245,-0.43817385344983245
-0.4250026935350129,-0.4250026935350129
-0.23467943276587042,-0.23467943276587042
0.04586627341978602,0.04586627341978602
0.16967517661908982,0.16967517661908982
0.025450975551815712,0.025450975551815712
-0.21031278692345423,-0.21031278692345423
-0.2867055144294076,-0.2867055144294076
-0.17540921314918242,-0.17540921314918242
-0.07201560781784896,-0.07201560781784896
-0.11021197157082567,-0.11021197157082567
-0.2142641348979001,-0.2142641348979001
-0.2406064547275392,-0.2406064547275392
-0.18594614108103807,-0.18594614108103807
-0.129310153447314,-0.129310153447314
-0.09177234769007829,-0.09177234769007829
0.022158185573110827,0.022158185573110827
0.2375066501804105,0.2375066501804105
0.46931906468123463,0.46931906468123463
0.5727126700125681,0.5727126700125681
0.5272721683064406,0.5272721683064406
0.4442938608430775,0.4442938608430775
0.4265127949580711,0.4265127949580711
0.45944069474511995,0.45944069474511995
0.46273348472382486,0.46273348472382486
0.4047803810986188,0.4047803810986188
0.34748583546915374,0.34748583546915374
0.3751452712902748,0.3751452712902748
0.5055397544469884,0.5055397544469884
0.663593673424823,0.663593673424823
0.7538161188413368,0.7538161188413368
0.7472305388839271,0.7472305388839271
0.7031071531692816,0.7031071531692816
0.6991558051948357,0.6991558051948357
0.7465719808881861,0.7465719808881861
0.77620709069653,0.77620709069653
0.7261566830202157,0.7261566830202157
0.633958563616479,0.633958563616479
0.5983964318464662,0.5983964318464662
0.6464711655355576,0.6464711655355576
0.6892774352587211,0.6892774352587211
0.6365927955994429,0.6365927955994429
0.5226622623362538,0.5226622623362538
0.45087944080048725,0.45087944080048725
0.4633920427195658,0.4633920427195658
0.487100130566241,0.487100130566241
0.4429767448515955,0.4429767448515955
0.33299755956285226,0.33299755956285226
0.2289453962357778,0.2289453962357778
0.17033373461483078,0.17033373461483078
0.13608871883629994,0.13608871883629994
0.08669686915572662,0.08669686915572662
0.030060881522002557,0.030060881522002557
-0.008135482230974144,-0.008135482230974144
-0.020648084150052717,-0.020648084150052717
-0.02789222210320347,-0.02789222210320347
-0.026575106111721515,-0.026575106111721515
0.014914047619960073,0.014914047619960073
0.11830765295129354,0.11830765295129354
0.24145799815485638,0.24145799815485638
0.32443630561821957,0.32443630561821957
0.35077862544785865,0.35077862544785865
0.37185248131156995,0.37185248131156995
0.42717135295381203,0.42717135295381203
0.5042226384555064,0.5042226384555064
0.5588829521020076,0.5588829521020076
0.5832495979444238,0.5832495979444238
0.5904937358975745,0.5904937358975745
0.5852252719316466,0.5852252719316466
0.5542730461318207,0.5542730461318207
0.4950028265151327,0.4950028265151327
0.4166344250219564,0.4166344250219564
0.3290462115884064,0.3290462115884064
0.24606790412504323,0.24606790412504323
0.18350489452965035,0.18350489452965035
0.14267429879370971,0.14267429879370971
0.10052658706628716,0.10052658706628716
0.035987903483671355,0.035987903483671355
-0.03974626602654106,-0.03974626602654106
-0.10099215963045198,-0.10099215963045198
-0.13984708137916965,-0.13984708137916965
-0.16355516922584484,-0.16355516922584484
-0.18067767711511024,-0.18067767711511024
-0.1997758589915986,-0.1997758589915986
-0.22084971485530988,-0.22084971485530988
-0.24192357071902115,-0.24192357071902115
-0.2570704046210636,-0.2570704046210636
-0.2847298404421847,-0.2847298404421847
-0.34004871208442683,-0.34004871208442683
-0.40656306965426553,-0.40656306965426553
-0.4322468314881637,-0.4322468314881637
-0.39997748969685576,-0.39997748969685576
-0.35124419801202345,-0.35124419801202345
-0.33939015408868584,-0.33939015408868584
-0.3558541039822103,-0.3558541039822103
-0.35190275600776444,-0.35190275600776444
-0.30448658031441406,-0.30448658031441406
-0.246533476689208,-0.246533476689208
-0.2116299029149362,-0.2116299029149362
-0.19253172103844785,-0.19253172103844785
-0.15301824129398922,-0.15301824129398922
-0.0884795577113734,-0.0884795577113734
-0.03052645408616738,-0.03052645408616738
0.0030600036966224754,0.0030600036966224754
0.03928069346237624,0.03928069346237624
0.11106351499814279,0.11106351499814279
0.2026030764061387,0.2026030764061387
0.2704345499674594,0.2704345499674594
0.29809398578858043,0.29809398578858043
0.31258226169488196,0.31258226169488196
0.3356317915458162,0.3356317915458162
0.35012006745211766,0.35012006745211766
0.31916784165229173,0.31916784165229173
0.24409223013782028,0.24409223013782028
0.15847969069149317,0.15847969069149317
0.0847211951685037,0.0847211951685037
0.011621257641255184,0.011621257641255184
-0.06082012189025235,-0.06082012189025235
-0.09835792764748807,-0.09835792764748807
-0.07135704982210798,-0.07135704982210798
-0.021306642145793694,-0.021306642145793694
-0.03316068606913129,-0.03316068606913129
-0.14248131336213357,-0.14248131336213357
-0.2972424423612633,-0.2972424423612633
-0.3848306557948133,-0.3848306557948133
-0.36112256794813813,-0.36112256794813813
-0.2662902165614373,-0.2662902165614373
-0.2030686489703035,-0.2030686489703035
-0.23072808479142454,-0.23072808479142454
-0.31041360227608283,-0.31041360227608283
-0.3459757340460956,-0.3459757340460956
-0.30316946432293207,-0.30316946432293207
-0.24982626666791288,-0.24982626666791288
-0.25970463660402754,-0.25970463660402754
-0.3156820662420107,-0.3156820662420107
-0.3756108438544396,-0.3756108438544396
-0.422368461552049,-0.422368461552049
-0.42763692551797683,-0.42763692551797683
-0.3446586180546137,-0.3446586180546137
-0.17079930717899558,-0.17079930717899558
0.15057699474260144,0.15057699474260144
0.8618196301428571,0.8618196301428571
2.0808104802594065,2.0808104802594065
3.296508540397251,3.296508540397251
3.6106407043656974,3.6106407043656974
2.742002707983348,2.742002707983348
1.42291104251417,1.42291104251417
0.5259550523149586,0.5259550523149586
0.14399141478519167,0.14399141478519167
-0.1266759214643501,-0.1266759214643501
-0.3868063297820362,-0.3868063297820362
-0.3841720977990723,-0.3841720977990723
-0.06674714385192115,-0.06674714385192115
0.2651660860015316,0.2651660860015316
0.3527542994350816,0.3527542994350816
0.23026251222725977,0.23026251222725977
0.06957436126646122,0.06957436126646122
-0.04040482402228204,-0.04040482402228204
-0.10757773958786175,-0.10757773958786175
-0.14774977732806138,-0.14774977732806138
-0.1563110312726941,-0.1563110312726941
-0.14313987135787454,-0.14313987135787454
-0.14577410334083846,-0.14577410334083846
-0.18001911911936927,-0.18001911911936927
-0.20109297498308054,-0.20109297498308054
-0.19516595302141176,-0.19516595302141176
-0.1964830690128937,-0.1964830690128937
-0.25180194065513584,-0.25180194065513584
-0.30316946432293207,-0.30316946432293207
-0.2873640724251486,-0.2873640724251486
-0.2287524108042016,-0.2287524108042016
-0.20767855494049034,-0.20767855494049034
-0.23599654875735238,-0.23599654875735238
-0.26036319459976853,-0.26036319459976853
-0.2406064547275392,-0.2406064547275392
-0.19055604705122492,-0.19055604705122492
-0.13984708137916965,-0.13984708137916965
-0.11548043553675348,-0.11548043553675348
-0.11087052956656665,-0.11087052956656665
-0.07925974577099971,-0.07925974577099971
0.03137799751348451,0.03137799751348451
0.19206614847428305,0.19206614847428305
0.3145579356821049,0.3145579356821049
0.3580227634010094,0.3580227634010094
0.3869993152136124,0.3869993152136124
0.4759046446386444,0.4759046446386444
0.6161774977314726,0.6161774977314726
0.7478890968796681,0.7478890968796681
0.8433800062621098,0.8433800062621098
0.9079186898447256,0.9079186898447256
0.9309682196956598,0.9309682196956598
0.9006745518915749,0.9006745518915749
0.8512827022110016,0.8512827022110016
0.8446971222535917,0.8446971222535917
0.9033087838745387,0.9033087838745387
0.9770672793975282,0.9770672793975282
0.9902384393123478,0.9902384393123478
0.9039673418702797,0.9039673418702797
0.748547654875409,0.748547654875409
0.5977378738507252,0.5977378738507252
0.5035640804597654,0.5035640804597654
0.45351367278345117,0.45351367278345117
0.3968776851497271,0.3968776851497271
0.3165336096693278,0.3165336096693278
0.24145799815485638,0.24145799815485638
0.1821877785381684,0.1821877785381684
0.11303918898536573,0.11303918898536573
0.020182511585887894,0.020182511585887894
-0.056210215920065504,-0.056210215920065504
-0.08716244171989145,-0.08716244171989145
-0.08716244171989145,-0.08716244171989145
-0.0858453257284095,-0.0858453257284095
-0.07662551378803581,-0.07662551378803581
-0.059503005898770396,-0.059503005898770396
-0.06740570184766212,-0.06740570184766212
-0.13787140739194673,-0.13787140739194673
-0.2379722227445753,-0.2379722227445753
-0.30053523233996815,-0.30053523233996815
-0.30053523233996815,-0.30053523233996815
-0.2906568624038535,-0.2906568624038535
-0.3150235082462697,-0.3150235082462697
-0.3492685240248005,-0.3492685240248005
-0.3288532261568302,-0.3288532261568302
-0.2550947306338407,-0.2550947306338407
-0.19253172103844785,-0.19253172103844785
-0.17672632914066438,-0.17672632914066438
-0.15828670525991703,-0.15828670525991703
-0.09572369566452416,-0.09572369566452416
-0.026575106111721515,-0.026575106111721515
-0.013403946196901963,-0.013403946196901963
-0.04501472999246889,-0.04501472999246889
-0.06147867988599333,-0.06147867988599333
-0.03645347604783618,-0.03645347604783618
0.012279815636996162,0.012279815636996162
0.06430589730053339,0.06430589730053339
0.11238063098962475,0.11238063098962475
0.14004006681074582,0.14004006681074582
0.13806439282352287,0.13806439282352287
0.13016169687463114,0.13016169687463114
0.15057699474260144,0.15057699474260144
0.194041822461506,0.194041822461506
0.21445712032947628,0.21445712032947628
0.17099229261057178,0.17099229261057178
0.08406263717276272,0.08406263717276272
0.016889721607183005,0.016889721607183005
0.012279815636996162,0.012279815636996162
0.044549157428304065,0.044549157428304065
0.052451853377195795,0.052451853377195795
-0.0015499022735643675,-0.0015499022735643675
-0.09704081165600612,-0.09704081165600612
-0.18397046709381515,-0.18397046709381515
-0.22414250483401477,-0.22414250483401477
-0.21097134491919523,-0.21097134491919523
-0.16684795920454973,-0.16684795920454973
-0.11943178351119935,-0.11943178351119935
-0.08716244171989145,-0.08716244171989145
-0.056868773915806484,-0.056868773915806484
-0.050283193958396706,-0.050283193958396706
-0.09440657967304221,-0.09440657967304221
-0.17738488713640535,-0.17738488713640535
-0.23928933873605726,-0.23928933873605726
-0.2577289626168046,-0.2577289626168046
-0.2610217525955095,-0.2610217525955095
-0.23994789673179823,-0.23994789673179823
-0.16421372722158584,-0.16421372722158584
-0.09901648564322904,-0.09901648564322904
-0.159603821251399,-0.159603821251399
-0.3169991822334926,-0.3169991822334926
-0.4144657656031573,-0.4144657656031573
-0.4289540415094588,-0.4289540415094588
-0.5007368630452254,-0.5007368630452254
-0.5639584306363592,-0.5639584306363592
-0.19516595302141176,-0.19516595302141176
0.9164799437893583,0.9164799437893583
2.391649854249148,2.391649854249148
3.334046346154487,3.334046346154487
3.1680897312277607,3.1680897312277607
2.17761850563333,2.17761850563333
1.1265599444307302,1.1265599444307302
0.4554893467706741,0.4554893467706741
0.03993925145811722,0.03993925145811722
-0.33346313212701706,-0.33346313212701706
-0.5593485246661724,-0.5593485246661724
-0.43883241144557344,-0.43883241144557344
-0.10165071762619296,-0.10165071762619296
0.07615994122387099,0.07615994122387099
-0.07925974577099971,-0.07925974577099971
-0.36836670590128884,-0.36836670590128884
-0.5237863928961596,-0.5237863928961596
-0.5204936029174547,-0.5204936029174547
-0.51061523298134,-0.51061523298134
-0.5646169886321002,-0.5646169886321002
-0.6061061423637818,-0.6061061423637818
-0.5777881485469197,-0.5777881485469197
-0.5376161108067201,-0.5376161108067201
-0.5468359227470938,-0.5468359227470938
-0.540250342789684,-0.540250342789684
-0.44805222338594713,-0.44805222338594713
-0.3071208122973779,-0.3071208122973779
-0.2412650127232802,-0.2412650127232802
-0.26299742658273245,-0.26299742658273245
-0.28209560845922077,-0.28209560845922077
-0.2261181788212377,-0.2261181788212377
-0.10823629758360273,-0.10823629758360273
0.012279815636996162,0.012279815636996162
0.07155003525368414,0.07155003525368414
0.043890599432563085,0.043890599432563085
-0.020648084150052717,-0.020648084150052717
-0.01472106218838392,-0.01472106218838392
0.10184370305776912,0.10184370305776912
0.2546291580696759,0.2546291580696759
0.3520957414393406,0.3520957414393406
0.3869993152136124,0.3869993152136124
0.41268307704751056,0.41268307704751056
0.46009925274086094,0.46009925274086094
0.5246379363234768,0.5246379363234768
0.6010306638294302,0.6010306638294302
0.6873017612714981,0.6873017612714981
0.7669872787561564,0.7669872787561564
0.8196719184154346,0.8196719184154346
0.8335016363259952,0.8335016363259952
0.8025494105261692,0.8025494105261692
0.7274737990116977,0.7274737990116977
0.6418612595653708,0.6418612595653708
0.6010306638294302,0.6010306638294302
0.6214459616974004,0.6214459616974004
0.6412027015696298,0.6412027015696298
0.5733712280083091,0.5733712280083091
0.4113659610560286,0.4113659610560286
0.24606790412504323,0.24606790412504323
0.1663823866403849,0.1663823866403849
0.16045536467871613,0.16045536467871613
0.1367472768320409,0.1367472768320409
0.051134737385713835,0.051134737385713835
-0.04435617199672791,-0.04435617199672791
-0.09308946368156025,-0.09308946368156025
-0.10691918159212078,-0.10691918159212078
-0.12733447946009108,-0.12733447946009108
-0.14643266133657942,-0.14643266133657942
-0.1266759214643501,-0.1266759214643501
-0.07794262977951777,-0.07794262977951777
-0.06608858585618017,-0.06608858585618017
-0.11943178351119935,-0.11943178351119935
-0.18528758308529708,-0.18528758308529708
-0.187921815068261,-0.187921815068261
-0.13326150142175988,-0.13326150142175988
-0.09901648564322904,-0.09901648564322904
-0.1352371754089828,-0.1352371754089828
-0.20701999694474935,-0.20701999694474935
-0.26036319459976853,-0.26036319459976853
-0.29197397839533545,-0.29197397839533545
-0.33346313212701706,-0.33346313212701706
-0.3821964238118494,-0.3821964238118494
-0.3973432577138919,-0.3973432577138919
-0.363756799931102,-0.363756799931102
-0.32095053020793846,-0.32095053020793846
-0.31238927626330576,-0.31238927626330576
-0.33346313212701706,-0.33346313212701706
-0.3525613140035054,-0.3525613140035054
-0.364415357926843,-0.364415357926843
-0.38878200376925914,-0.38878200376925914
-0.42170990355630805,-0.42170990355630805
-0.42763692551797683,-0.42763692551797683
-0.39800181570963283,-0.39800181570963283
-0.38087930782036744,-0.38087930782036744
-0.4170999975861212,-0.4170999975861212
-0.4836143551559599,-0.4836143551559599
-0.5204936029174547,-0.5204936029174547
-0.51061523298134,-0.51061523298134
-0.4869071451346648,-0.4869071451346648
-0.4849314711474419,-0.4849314711474419
-0.5040296530239302,-0.5040296530239302
-0.5290548568620874,-0.5290548568620874
-0.5521043867130216,-0.5521043867130216
-0.5665926626193231,-0.5665926626193231
-0.5613241986533953,-0.5613241986533953
-0.5086395589941171,-0.5086395589941171
-0.44212520142427836,-0.44212520142427836
-0.40063604769259675,-0.40063604769259675
-0.3486099660290595,-0.3486099660290595
-0.2057028809532674,-0.2057028809532674
-0.021965200141534674,-0.021965200141534674
0.04257348344108113,0.04257348344108113
-0.02789222210320347,-0.02789222210320347
-0.0799183037667407,-0.0799183037667407
-0.06674714385192115,-0.06674714385192115
-0.1352371754089828,-0.1352371754089828
-0.3196334142164565,-0.3196334142164565
-0.453320687351875,-0.453320687351875
-0.48295579716021897,-0.48295579716021897
-0.5672512206150641,-0.5672512206150641
-0.627838556223234,-0.627838556223234
-0.15828670525991703,-0.15828670525991703
1.1673905401666707,1.1673905401666707
2.829590921416898,2.829590921416898
3.7970126171603944,3.7970126171603944
3.5237110489278884,3.5237110489278884
2.422602080048974,2.422602080048974
1.2918580013617156,1.2918580013617156
0.5114667764086572,0.5114667764086572
-0.04699040397969182,-0.04699040397969182
-0.4836143551559599,-0.4836143551559599
-0.6186187442828603,-0.6186187442828603
-0.3558541039822103,-0.3558541039822103
0.0010843297093995428,0.0010843297093995428
0.059695991330346546,0.059695991330346546
-0.18331190909807416,-0.18331190909807416
-0.42434413553927197,-0.42434413553927197
-0.48954137711762874,-0.48954137711762874
-0.46056482530502574,-0.46056482530502574
-0.44739366539020614,-0.44739366539020614
-0.45990626730928474,-0.45990626730928474
-0.4855900291431829,-0.4855900291431829
-0.5336647628322743,-0.5336647628322743
-0.5883250764787754,-0.5883250764787754
-0.6304727882061979,-0.6304727882061979
-0.6554979920443551,-0.6554979920443551
-0.6719619419378795,-0.6719619419378795
-0.6324484621934209,-0.6324484621934209
-0.5244449508919006,-0.5244449508919006
-0.3762694018501806,-0.3762694018501806
-0.23533799076161138,-0.23533799076161138
-0.11284620355378958,-0.11284620355378958
-0.006818366239492188,-0.006818366239492188
0.07615994122387099,0.07615994122387099
0.1433328567894507,0.1433328567894507
0.223018374274109,0.223018374274109
0.3264119796054425,0.3264119796054425
0.42980558493677595,0.42980558493677595
0.5055397544469884,0.5055397544469884
0.5641514160679354,0.5641514160679354
0.6300072156420331,0.6300072156420331
0.7011314791820586,0.7011314791820586
0.7630359307817105,0.7630359307817105
0.8216475924026575,0.8216475924026575
0.8881619499724963,0.8881619499724963
0.9480907275849252,0.9480907275849252
0.9797015113804921,0.9797015113804921
0.9777258373932692,0.9777258373932692
0.955993423533817,0.955993423533817
0.9224069657510271,0.9224069657510271
0.8835520440023095,0.8835520440023095
0.8433800062621098,0.8433800062621098
0.8038665265176511,0.8038665265176511
0.7518404448541139,0.7518404448541139
0.6787405073268654,0.6787405073268654
0.5865423879231286,0.5865423879231286
0.4732704126556805,0.4732704126556805
0.34814439346489473,0.34814439346489473
0.24277511414633832,0.24277511414633832
0.19601749644872893,0.19601749644872893
0.19206614847428305,0.19206614847428305
0.15584545870852928,0.15584545870852928
0.028085207534779624,0.028085207534779624
-0.1556524732769531,-0.1556524732769531
-0.30448658031441406,-0.30448658031441406
-0.36046400995239714,-0.36046400995239714
-0.3525613140035054,-0.3525613140035054
-0.3407072700801678,-0.3407072700801678
-0.35124419801202345,-0.35124419801202345
-0.36112256794813813,-0.36112256794813813
-0.3558541039822103,-0.3558541039822103
-0.3367559221057219,-0.3367559221057219
-0.31041360227608283,-0.31041360227608283
-0.2649731005699554,-0.2649731005699554
-0.20438576496178543,-0.20438576496178543
-0.15762814726417604,-0.15762814726417604
-0.15104256730676627,-0.15104256730676627
-0.16026237924713996,-0.16026237924713996
-0.13721284939620576,-0.13721284939620576
-0.07135704982210798,-0.07135704982210798
-0.020648084150052717,-0.020648084150052717
-0.043039056005245956,-0.043039056005245956
-0.12009034150694033,-0.12009034150694033
-0.17540921314918242,-0.17540921314918242
-0.16618940120880876,-0.16618940120880876
-0.12272457348990425,-0.12272457348990425
-0.08057686176248167,-0.08057686176248167
-0.03184357007764933,-0.03184357007764933
0.02610953354755669,0.02610953354755669
0.0550860853601597,0.0550860853601597
0.011621257641255184,0.011621257641255184
-0.04567328798820987,-0.04567328798820987
-0.06411291186895723,-0.06411291186895723
-0.04699040397969182,-0.04699040397969182
-0.012745388201160985,-0.012745388201160985
0.04191492544534015,0.04191492544534015
0.06957436126646122,0.06957436126646122
-0.00023278628208241235,-0.00023278628208241235
-0.09901648564322904,-0.09901648564322904
-0.09177234769007829,-0.09177234769007829
-0.042380498009504976,-0.042380498009504976
-0.15104256730676627,-0.15104256730676627
-0.35190275600776444,-0.35190275600776444
-0.3077793702931189,-0.3077793702931189
0.051134737385713835,0.051134737385713835
0.40346326510713687,0.40346326510713687
0.6721549273694557,0.6721549273694557
1.3610065909145181,1.3610065909145181
2.8183954354893017,2.8183954354893017
4.431862525054696,4.431862525054696
5.029833185187504,5.029833185187504
4.117730361086251,4.117730361086251
2.39296697024063,2.39296697024063
0.9645546774784497,0.9645546774784497
0.29480119580987557,0.29480119580987557
0.06957436126646122,0.06957436126646122
-0.08913811570711438,-0.08913811570711438
-0.15235968329824823,-0.15235968329824823
0.02347530156459278,0.02347530156459278
0.2868984998609838,0.2868984998609838
0.35341285743082257,0.35341285743082257
0.19996884442317478,0.19996884442317478
0.03203655550922549,0.03203655550922549
-0.050283193958396706,-0.050283193958396706
-0.11482187754101252,-0.11482187754101252
-0.18001911911936927,-0.18001911911936927
-0.1734335391619595,-0.1734335391619595
-0.09308946368156025,-0.09308946368156025
-0.0621372378817343,-0.0621372378817343
-0.1503840093110253,-0.1503840093110253
-0.28077849246773884,-0.28077849246773884
-0.3025109063271911,-0.3025109063271911
-0.19582451101715273,-0.19582451101715273
-0.04699040397969182,-0.04699040397969182
0.030060881522002557,0.030060881522002557
0.04125636744959917,0.04125636744959917
0.03993925145811722,0.03993925145811722
0.04191492544534015,0.04191492544534015
0.022158185573110827,0.022158185573110827
-0.006818366239492188,-0.006818366239492188
-0.014062504192642942,-0.014062504192642942
0.0004257717136585652,0.0004257717136585652
0.004377119688104431,0.004377119688104431
0.01030414164977323,0.01030414164977323
0.07813561521109391,0.07813561521109391
0.24145799815485638,0.24145799815485638
0.45087944080048725,0.45087944080048725
0.6181531717186955,0.6181531717186955
0.7136440811011372,0.7136440811011372
0.7880611346198677,0.7880611346198677
0.896064645921388,0.896064645921388
1.0231663390993966,1.0231663390993966
1.1114131105286877,1.1114131105286877
1.1311698504009169,1.1311698504009169
1.100876182596832,1.100876182596832
1.0560942388864456,1.0560942388864456
1.0251420130866196,1.0251420130866196
1.0231663390993966,1.0231663390993966
1.0337032670312523,1.0337032670312523
1.0119708531718001,1.0119708531718001
0.9322853356871418,0.9322853356871418
0.8216475924026575,0.8216475924026575
0.720229661058547,0.720229661058547
0.6352756796079609,0.6352756796079609
0.5503216981573749,0.5503216981573749
0.45022088280474626,0.45022088280474626
0.3283876535926654,0.3283876535926654
0.194041822461506,0.194041822461506
0.08669686915572662,0.08669686915572662
0.04784194740700895,0.04784194740700895
0.05311041137293677,0.05311041137293677
0.02413385956033376,0.02413385956033376
-0.08189397775396363,-0.08189397775396363
-0.2030686489703035,-0.2030686489703035
-0.25114338265939484,-0.25114338265939484
-0.2083371129362313,-0.2083371129362313
-0.14379842935361553,-0.14379842935361553
-0.11548043553675348,-0.11548043553675348
-0.11416331954527154,-0.11416331954527154
-0.10165071762619296,-0.10165071762619296
-0.09440657967304221,-0.09440657967304221
-0.12601736346860912,-0.12601736346860912
-0.17804344513214634,-0.17804344513214634
-0.1819947931065922,-0.1819947931065922
-0.13984708137916965,-0.13984708137916965
-0.13194438543027792,-0.13194438543027792
-0.18858037306400197,-0.18858037306400197
-0.21953259886382792,-0.21953259886382792
-0.15170112530250726,-0.15170112530250726
-0.04699040397969182,-0.04699040397969182
-0.01933096815857076,-0.01933096815857076
-0.07333272380933092,-0.07333272380933092
-0.1266759214643501,-0.1266759214643501
-0.11284620355378958,-0.11284620355378958
-0.07530839779655385,-0.07530839779655385
-0.05555165792432453,-0.05555165792432453
-0.03645347604783618,-0.03645347604783618
0.012938373632737138,0.012938373632737138
0.06562301329201535,0.06562301329201535
0.08142840518979881,0.08142840518979881
0.08142840518979881,0.08142840518979881
0.11238063098962475,0.11238063098962475
0.15386978472130633,0.15386978472130633
0.13608871883629994,0.13608871883629994
0.07023291926220218,0.07023291926220218
0.08340407917702174,0.08340407917702174
0.27965436190783305,0.27965436190783305
0.5792982499699779,0.5792982499699779
0.8124277804622838,0.8124277804622838
1.0659726088225603,1.0659726088225603
1.7561413883591046,1.7561413883591046
3.0271583201391916,3.0271583201391916
4.15131681886904,4.15131681886904
4.054508793495116,4.054508793495116
2.610949666830894,2.610949666830894
0.9145042698021354,0.9145042698021354
-0.0015499022735643675,-0.0015499022735643675
-0.20438576496178543,-0.20438576496178543
-0.30053523233996815,-0.30053523233996815
-0.4045873956670426,-0.4045873956670426
-0.2432406867105031,-0.2432406867105031
0.11501486297258866,0.11501486297258866
0.2612147380270857,0.2612147380270857
0.07681849921961197,0.07681849921961197
-0.14248131336213357,-0.14248131336213357
-0.16157949523862192,-0.16157949523862192
-0.07662551378803581,-0.07662551378803581
-0.07333272380933092,-0.07333272380933092
-0.16355516922584484,-0.16355516922584484
-0.22677673681697869,-0.22677673681697869
-0.20636143894900838,-0.20636143894900838
-0.16289661123010388,-0.16289661123010388
-0.18001911911936927,-0.18001911911936927
-0.2261181788212377,-0.2261181788212377
-0.23006952679568357,-0.23006952679568357
-0.16421372722158584,-0.16421372722158584
-0.09506513766878318,-0.09506513766878318
-0.056868773915806484,-0.056868773915806484
-0.05225886794561964,-0.05225886794561964
-0.08057686176248167,-0.08057686176248167
-0.13392005941750085,-0.13392005941750085
-0.158945263255658,-0.158945263255658
-0.10691918159212078,-0.10691918159212078
0.006352793675327363,0.006352793675327363
0.11830765295129354,0.11830765295129354
0.19996884442317478,0.19996884442317478
0.2763615719291282,0.2763615719291282
0.38107229325194364,0.38107229325194364
0.5134424503958801,0.5134424503958801
0.6458126075398166,0.6458126075398166
0.7564503508243008,0.7564503508243008
0.8512827022110016,0.8512827022110016
0.953359191550853,0.953359191550853
1.069923956797006,1.069923956797006
1.1759517941113036,1.1759517941113036
1.2451003836641061,1.2451003836641061
1.2832967474170829,1.2832967474170829
1.305687719272276,1.305687719272276
1.2964679073319023,1.2964679073319023
1.212831041872798,1.212831041872798
1.047532984941813,1.047532984941813
0.8558926081811884,0.8558926081811884
0.7017900371777996,0.7017900371777996
0.5891766199060925,0.5891766199060925
0.47788031862586733,0.47788031862586733
0.35012006745211766,0.35012006745211766
0.2407994401591154,0.2407994401591154
0.18679768450835524,0.18679768450835524
0.16901661862334885,0.16901661862334885
0.1374058348277819,0.1374058348277819
0.06891580327072024,0.06891580327072024
-0.0035255762607873,-0.0035255762607873
-0.051600309949878666,-0.051600309949878666
-0.08518676773266852,-0.08518676773266852
-0.13194438543027792,-0.13194438543027792
-0.18331190909807416,-0.18331190909807416
-0.20636143894900838,-0.20636143894900838
-0.1826533511023332,-0.1826533511023332
-0.1497254513152843,-0.1497254513152843
-0.14709121933232042,-0.14709121933232042
-0.18858037306400197,-0.18858037306400197
-0.2432406867105031,-0.2432406867105031
-0.2873640724251486,-0.2873640724251486
-0.2985595583527452,-0.2985595583527452
-0.2774857024890339,-0.2774857024890339
-0.22084971485530988,-0.22084971485530988
-0.1681650751960317,-0.1681650751960317
-0.13128582743453696,-0.13128582743453696
-0.12470024747712717,-0.12470024747712717
-0.12799303745583207,-0.12799303745583207
-0.09835792764748807,-0.09835792764748807
-0.01472106218838392,-0.01472106218838392
0.05376896936867775,0.05376896936867775
0.03993925145811722,0.03993925145811722
0.02610953354755669,0.02610953354755669
0.13543016084055898,0.13543016084055898
0.2638489700100496,0.2638489700100496
0.20984721435928946,0.20984721435928946
0.10316081904925106,0.10316081904925106
0.30072821777154435,0.30072821777154435
0.778182764683753,0.778182764683753
1.1239257124477662,1.1239257124477662
1.364957938888964,1.364957938888964
2.188813991560927,2.188813991560927
3.8865765045811673,3.8865765045811673
5.520458892014533,5.520458892014533
5.7496370745323935,5.7496370745323935
4.330444593710586,4.330444593710586
2.335013866615424,2.335013866615424
0.9368952416573286,0.9368952416573286
0.39885335913695,0.39885335913695
0.26187329602282666,0.26187329602282666
0.14728420476389656,0.14728420476389656
0.08011128919831685,0.08011128919831685
0.15452834271704732,0.15452834271704732
0.24014088216337443,0.24014088216337443
0.16045536467871613,0.16045536467871613
-0.01801385216708881,-0.01801385216708881
-0.10230927562193394,-0.10230927562193394
-0.07003993383062604,-0.07003993383062604
-0.06147867988599333,-0.06147867988599333
-0.1207488995026813,-0.1207488995026813
-0.16223805323436288,-0.16223805323436288
-0.14709121933232042,-0.14709121933232042
-0.1497254513152843,-0.1497254513152843
-0.21097134491919523,-0.21097134491919523
-0.305803696305896,-0.305803696305896
-0.37034237988851176,-0.37034237988851176
-0.394050467735187,-0.394050467735187
-0.3657324739183249,-0.3657324739183249
-0.3235847621909024,-0.3235847621909024
-0.2867055144294076,-0.2867055144294076
-0.2379722227445753,-0.2379722227445753
-0.14182275536639258,-0.14182275536639258
-0.02591654811598054,-0.02591654811598054
0.035987903483671355,0.035987903483671355
0.015572605615701049,0.015572605615701049
-0.016038178179865872,-0.016038178179865872
0.02084106958162887,0.02084106958162887
0.1262103489001853,0.1262103489001853
0.22960395423151878,0.22960395423151878
0.2934840798183936,0.2934840798183936
0.3468272774734128,0.3468272774734128
0.42914702694103496,0.42914702694103496
0.5239793783277358,0.5239793783277358
0.5878595039146106,0.5878595039146106
0.6168360557272136,0.6168360557272136
0.6523981874972263,0.6523981874972263
0.718253987071324,0.718253987071324
0.7834512286496809,0.7834512286496809
0.8150620124452478,0.8150620124452478
0.8196719184154346,0.8196719184154346
0.8170376864324707,0.8170376864324707
0.7913539245985726,0.7913539245985726
0.7215467770500289,0.7215467770500289
0.63461712161222,0.63461712161222
0.5898351779018335,0.5898351779018335
0.5957621998635023,0.5957621998635023
0.5832495979444238,0.5832495979444238
0.48314878259179517,0.48314878259179517
0.31192370369914096,0.31192370369914096
0.16177248067019806,0.16177248067019806
0.09525812310035933,0.09525812310035933
0.08340407917702174,0.08340407917702174
0.046524831415527,0.046524831415527
-0.04435617199672791,-0.04435617199672791
-0.14709121933232042,-0.14709121933232042
-0.2057028809532674,-0.2057028809532674
-0.21228846091067716,-0.21228846091067716
-0.18989748905548393,-0.18989748905548393
-0.1556524732769531,-0.1556524732769531
-0.09638225366026514,-0.09638225366026514
-0.01472106218838392,-0.01472106218838392
0.06496445529627437,0.06496445529627437
0.12028332693851648,0.12028332693851648
0.15057699474260144,0.15057699474260144
0.15123555273834244,0.15123555273834244
0.11567342096832964,0.11567342096832964
0.0610131073218285,0.0610131073218285
0.035987903483671355,0.035987903483671355
0.052451853377195795,0.052451853377195795
0.06298878130905143,0.06298878130905143
0.03401222949644842,0.03401222949644842
-0.0015499022735643675,-0.0015499022735643675
-0.00023278628208241235,-0.00023278628208241235
0.020182511585887894,0.020182511585887894
0.018865395594405938,0.018865395594405938
0.0010843297093995428,0.0010843297093995428
0.005694235679586386,0.005694235679586386
0.0346707874921894,0.0346707874921894
0.05376896936867775,0.05376896936867775
0.03401222949644842,0.03401222949644842
-0.026575106111721515,-0.026575106111721515
-0.09374802167730123,-0.09374802167730123
-0.1266759214643501,-0.1266759214643501
-0.08321109374544558,-0.08321109374544558
-0.006818366239492188,-0.006818366239492188
0.010962699645514206,0.010962699645514206
-0.0621372378817343,-0.0621372378817343
-0.15762814726417604,-0.15762814726417604
-0.216898366880864,-0.216898366880864
-0.26365598457847345,-0.26365598457847345
-0.31173071826756477,-0.31173071826756477
-0.3202919722121975,-0.3202919722121975
-0.30119379033570914,-0.30119379033570914
-0.33873159609294484,-0.33873159609294484
-0.44014952743705543,-0.44014952743705543
-0.5139080229600449,-0.5139080229600449
-0.5251035088876416,-0.5251035088876416
-0.481638681168737,-0.481638681168737
-0.18923893105974296,-0.18923893105974296
0.6787405073268654,0.6787405073268654
2.0544681604297677,2.0544681604297677
3.2352626467933403,3.2352626467933403
3.4611480393324956,3.4611480393324956
2.66231719049869,2.66231719049869
1.455180384305478,1.455180384305478
0.47722176063012633,0.47722176063012633
-0.07860118777525875,-0.07860118777525875
-0.35124419801202345,-0.35124419801202345
-0.46978463724539943,-0.46978463724539943
-0.4493693393774291,-0.4493693393774291
-0.32226764619942044,-0.32226764619942044
-0.22480106282975573,-0.22480106282975573
-0.2906568624038535,-0.2906568624038535
-0.4967855150707795,-0.4967855150707795
-0.6726204999336205,-0.6726204999336205
-0.7002799357547417,-0.7002799357547417
-0.6344241361806437,-0.6344241361806437
-0.6041304683765588,-0.6041304683765588
-0.6377169261593487,-0.6377169261593487
-0.6528637600613911,-0.6528637600613911
-0.602154794389336,-0.602154794389336
-0.5435431327683888,-0.5435431327683888
-0.5613241986533953,-0.5613241986533953
-0.6337655781849029,-0.6337655781849029
-0.6811817538782533,-0.6811817538782533
-0.6502295280784273,-0.6502295280784273
-0.5949106564361851,-0.5949106564361851
-0.5738368005724739,-0.5738368005724739
-0.5830566125128476,-0.5830566125128476
-0.569226894602287,-0.569226894602287
-0.5066638850068942,-0.5066638850068942
-0.41775855558186215,-0.41775855558186215
-0.33017034214831215,-0.33017034214831215
-0.2438992447062441,-0.2438992447062441
-0.1556524732769531,-0.1556524732769531
-0.08650388372415048,-0.08650388372415048
-0.0476489619754328,-0.0476489619754328
-0.00879404022671512,-0.00879404022671512
0.07352570924090708,0.07352570924090708
0.1907490324828011,0.1907490324828011
0.2882156158524658,0.2882156158524658
0.33233900156711127,0.33233900156711127
0.34748583546915374,0.34748583546915374
0.3876578732093534,0.3876578732093534
0.5042226384555064,0.5042226384555064
0.6780819493311244,0.6780819493311244
0.8065007585006151,0.8065007585006151
0.7913539245985726,0.7913539245985726
0.6826918553013113,0.6826918553013113
0.6240801936803644,0.6240801936803644
0.6497639555142625,0.6497639555142625
0.6352756796079609,0.6352756796079609
0.5272721683064406,0.5272721683064406
0.4350740489027038,0.4350740489027038
0.4377082808856677,0.4377082808856677
0.4337569329112218,0.4337569329112218
0.3250948636139605,0.3250948636139605
0.1907490324828011,0.1907490324828011
0.1459670887724146,0.1459670887724146
0.1459670887724146,0.1459670887724146
0.07089147725794316,0.07089147725794316
-0.07596695579229483,-0.07596695579229483
-0.19911730099585762,-0.19911730099585762
-0.2662902165614373,-0.2662902165614373
-0.32095053020793846,-0.32095053020793846
-0.36309824193536105,-0.36309824193536105
-0.3459757340460956,-0.3459757340460956
-0.2794613764762569,-0.2794613764762569
-0.25443617263809976,-0.25443617263809976
-0.32490187818238436,-0.32490187818238436
-0.40985585963297044,-0.40985585963297044
-0.3874648877777772,-0.3874648877777772
-0.2781442604847749,-0.2781442604847749
-0.23402087477012942,-0.23402087477012942
-0.3275361101653482,-0.3275361101653482
-0.43817385344983245,-0.43817385344983245
-0.43290538948390467,-0.43290538948390467
-0.33873159609294484,-0.33873159609294484
-0.275510028501811,-0.275510028501811
-0.2735343545145881,-0.2735343545145881
-0.2867055144294076,-0.2867055144294076
-0.2972424423612633,-0.2972424423612633
-0.3169991822334926,-0.3169991822334926
-0.32160908820367945,-0.32160908820367945
-0.28077849246773884,-0.28077849246773884
-0.22545962082549673,-0.22545962082549673
-0.2116299029149362,-0.2116299029149362
-0.2379722227445753,-0.2379722227445753
-0.2610217525955095,-0.2610217525955095
-0.2649731005699554,-0.2649731005699554
-0.2682658905486603,-0.2682658905486603
-0.28077849246773884,-0.28077849246773884
-0.29263253639107645,-0.29263253639107645
-0.2932910943868174,-0.2932910943868174
-0.28209560845922077,-0.28209560845922077
-0.24258212871476215,-0.24258212871476215
-0.1971416270086347,-0.1971416270086347
-0.16421372722158584,-0.16421372722158584
-0.11679755152823544,-0.11679755152823544
-0.01998952615431174,-0.01998952615431174
0.07089147725794316,0.07089147725794316
0.05311041137293677,0.05311041137293677
-0.050941751954137686,-0.050941751954137686
-0.10362639161341589,-0.10362639161341589
-0.06147867988599333,-0.06147867988599333
-0.04633184598395084,-0.04633184598395084
-0.14248131336213357,-0.14248131336213357
-0.26233886858699146,-0.26233886858699146
-0.30382802231867306,-0.30382802231867306
-0.30448658031441406,-0.30448658031441406
-0.2794613764762569,-0.2794613764762569
0.022158185573110827,0.022158185573110827
0.9520420755593711,0.9520420755593711
2.4041624561682267,2.4041624561682267
3.596810986455137,3.596810986455137
3.684399199888687,3.684399199888687
2.6419018926307194,2.6419018926307194
1.2918580013617156,1.2918580013617156
0.3942434531667632,0.3942434531667632
-0.023282316133016626,-0.023282316133016626
-0.3084379282888599,-0.3084379282888599
-0.5270791828748644,-0.5270791828748644
-0.4948098410835565,-0.4948098410835565
-0.23994789673179823,-0.23994789673179823
-0.058844447903029416,-0.058844447903029416
-0.12601736346860912,-0.12601736346860912
-0.31304783425904675,-0.31304783425904675
-0.4111729756244524,-0.4111729756244524
-0.37429372786295767,-0.37429372786295767
-0.29790100035700423,-0.29790100035700423
-0.276827144493293,-0.276827144493293
-0.3202919722121975,-0.3202919722121975
-0.3789036338331445,-0.3789036338331445
-0.4019531636840787,-0.4019531636840787
-0.3769279598459216,-0.3769279598459216
-0.31173071826756477,-0.31173071826756477
-0.246533476689208,-0.246533476689208
-0.19911730099585762,-0.19911730099585762
-0.16355516922584484,-0.16355516922584484
-0.08452820973692754,-0.08452820973692754
0.03928069346237624,0.03928069346237624
0.14135718280222775,0.14135718280222775
0.17691931457224058,0.17691931457224058
0.18548056851687328,0.18548056851687328
0.21379856233373531,0.21379856233373531
0.24409223013782028,0.24409223013782028
0.24936069410374812,0.24936069410374812
0.2671417599887545,0.2671417599887545
0.3468272774734128,0.3468272774734128
0.45680646276215603,0.45680646276215603
0.5147595663873621,0.5147595663873621
0.49829561649383763,0.49829561649383763
0.4726118546599395,0.4726118546599395
0.5015884064725425,0.5015884064725425
0.5746883439997911,0.5746883439997911
0.633958563616479,0.633958563616479
0.6497639555142625,0.6497639555142625
0.6471297235312986,0.6471297235312986
0.6563495354716723,0.6563495354716723
0.6675450213992689,0.6675450213992689
0.6491053975185215,0.6491053975185215
0.5977378738507252,0.5977378738507252
0.5404433282212602,0.5404433282212602
0.49105147854068687,0.49105147854068687
0.4258542369623301,0.4258542369623301
0.32707053760118343,0.32707053760118343
0.22762828024429585,0.22762828024429585
0.1729679665977947,0.1729679665977947
0.1406986248064868,0.1406986248064868
0.07089147725794316,0.07089147725794316
-0.034477802060613245,-0.034477802060613245
-0.09111378969433731,-0.09111378969433731
-0.06608858585618017,-0.06608858585618017
-0.03250212807339031,-0.03250212807339031
-0.0621372378817343,-0.0621372378817343
-0.10691918159212078,-0.10691918159212078
-0.08452820973692754,-0.08452820973692754
-0.00615980824375121,-0.00615980824375121
0.04257348344108113,0.04257348344108113
0.03137799751348451,0.03137799751348451
0.006352793675327363,0.006352793675327363
0.008328467662550297,0.008328467662550297
0.016231163611442025,0.016231163611442025
-0.002867018265046323,-0.002867018265046323
-0.04567328798820987,-0.04567328798820987
-0.07069849182636702,-0.07069849182636702
-0.051600309949878666,-0.051600309949878666
-0.00615980824375121,-0.00615980824375121
0.01754827960292398,0.01754827960292398
-0.004842692252269255,-0.004842692252269255
-0.04567328798820987,-0.04567328798820987
-0.06082012189025235,-0.06082012189025235
-0.04369761400098693,-0.04369761400098693
-0.033819244064872266,-0.033819244064872266
-0.07794262977951777,-0.07794262977951777
-0.16750651720029072,-0.16750651720029072
-0.23994789673179823,-0.23994789673179823
-0.246533476689208,-0.246533476689208
-0.21097134491919523,-0.21097134491919523
-0.1938488370299298,-0.1938488370299298
-0.21492269289364108,-0.21492269289364108
-0.21821548287234596,-0.21821548287234596
-0.1681650751960317,-0.1681650751960317
-0.08057686176248167,-0.08057686176248167
-0.03908770803080009,-0.03908770803080009
-0.07267416581358994,-0.07267416581358994
-0.11482187754101252,-0.11482187754101252
-0.09045523169859634,-0.09045523169859634
-0.03974626602654106,-0.03974626602654106
-0.058185889907288436,-0.058185889907288436
-0.11548043553675348,-0.11548043553675348
-0.08979667370285536,-0.08979667370285536
0.005035677683845408,0.005035677683845408
0.02610953354755669,0.02610953354755669
-0.03250212807339031,-0.03250212807339031
0.0070113516710683405,0.0070113516710683405
0.20721298237632554,0.20721298237632554
0.4041218231028778,0.4041218231028778
0.5687613220381222,0.5687613220381222
1.0580699128736686,1.0580699128736686
2.1960581295140775,2.1960581295140775
3.6224947482890353,3.6224947482890353
4.375226537420972,4.375226537420972
3.810183777075214,3.810183777075214
2.331721076636719,2.331721076636719
0.9777258373932692,0.9777258373932692
0.33233900156711127,0.33233900156711127
0.1262103489001853,0.1262103489001853
-0.07925974577099971,-0.07925974577099971
-0.24982626666791288,-0.24982626666791288
-0.15433535728547115,-0.15433535728547115
0.09064821713017249,0.09064821713017249
0.15255266872982437,0.15255266872982437
-0.016696736175606852,-0.016696736175606852
-0.17804344513214634,-0.17804344513214634
-0.20372720696604446,-0.20372720696604446
-0.18594614108103807,-0.18594614108103807
-0.2083371129362313,-0.2083371129362313
-0.24982626666791288,-0.24982626666791288
-0.27485147050607006,-0.27485147050607006
-0.28275416645496176,-0.28275416645496176
-0.25443617263809976,-0.25443617263809976
-0.20438576496178543,-0.20438576496178543
-0.17145786517473657,-0.17145786517473657
-0.1826533511023332,-0.1826533511023332
-0.1701407491832546,-0.1701407491832546
-0.0976993696517471,-0.0976993696517471
0.0030600036966224754,0.0030600036966224754
0.0669401292834973,0.0669401292834973
0.08142840518979881,0.08142840518979881
0.07155003525368414,0.07155003525368414
0.06298878130905143,0.06298878130905143
0.07681849921961197,0.07681849921961197
0.14399141478519167,0.14399141478519167
0.2678003179844955,0.2678003179844955
0.4021461491156549,0.4021461491156549
0.48973436254920494,0.48973436254920494
0.5318820742766275,0.5318820742766275
0.5839081559401648,0.5839081559401648
0.6859846452800161,0.6859846452800161
0.8104521064750609,0.8104521064750609
0.8927718559426832,0.8927718559426832
0.9098943638319485,0.9098943638319485
0.896723203917129,0.896723203917129
0.8993574359000929,0.8993574359000929
0.9237240817425091,0.9237240817425091
0.9507249595678892,0.9507249595678892
0.9645546774784497,0.9645546774784497
0.9573105395252989,0.9573105395252989
0.9184556177765812,0.9184556177765812
0.8473313542365557,0.8473313542365557
0.7630359307817105,0.7630359307817105
0.6761062753439014,0.6761062753439014
0.5687613220381222,0.5687613220381222
0.4225614469836252,0.4225614469836252
0.2638489700100496,0.2638489700100496
0.14728420476389656,0.14728420476389656
0.09657523909184129,0.09657523909184129
0.06496445529627437,0.06496445529627437
-0.00023278628208241235,-0.00023278628208241235
-0.09440657967304221,-0.09440657967304221
-0.158945263255658,-0.158945263255658
-0.1727749811662185,-0.1727749811662185
-0.1701407491832546,-0.1701407491832546
-0.18726325707252003,-0.18726325707252003
-0.20109297498308054,-0.20109297498308054
-0.18660469907677904,-0.18660469907677904
-0.16684795920454973,-0.16684795920454973
-0.19450739502567077,-0.19450739502567077
-0.2550947306338407,-0.2550947306338407
-0.27090012253162415,-0.27090012253162415
-0.187921815068261,-0.187921815068261
-0.06608858585618017,-0.06608858585618017
-0.004842692252269255,-0.004842692252269255
-0.02723366410746249,-0.02723366410746249
-0.050941751954137686,-0.050941751954137686
-0.013403946196901963,-0.013403946196901963
0.05706175934738263,0.05706175934738263
0.10316081904925106,0.10316081904925106
0.12884458088314918,0.12884458088314918
0.16901661862334885,0.16901661862334885
0.21511567832521727,0.21511567832521727
0.22433549026559096,0.22433549026559096
0.1973346124402109,0.1973346124402109
0.16769950263186686,0.16769950263186686
0.16045536467871613,0.16045536467871613
0.1518941107340834,0.1518941107340834
0.14201574079796875,0.14201574079796875
0.11303918898536573,0.11303918898536573
0.060354549326087525,0.060354549326087525
0.008328467662550297,0.008328467662550297
0.0030600036966224754,0.0030600036966224754
0.02413385956033376,0.02413385956033376
0.01030414164977323,0.01030414164977323
-0.023282316133016626,-0.023282316133016626
-0.010111156218197076,-0.010111156218197076
0.0004257717136585652,0.0004257717136585652
-0.08913811570711438,-0.08913811570711438
-0.1938488370299298,-0.1938488370299298
-0.09506513766878318,-0.09506513766878318
0.2026030764061387,0.2026030764061387
0.44758665082178234,0.44758665082178234
0.6306657736377741,0.6306657736377741
1.2075625779068704,1.2075625779068704
2.508873177491042,2.508873177491042
4.025532241682513,4.025532241682513
4.6412839677003275,4.6412839677003275
3.7528892314457485,3.7528892314457485
1.9833438968897419,1.9833438968897419
0.5496631401616339,0.5496631401616339
0.018206837598664958,0.018206837598664958
-0.015379620184124896,-0.015379620184124896
-0.07596695579229483,-0.07596695579229483
-0.12272457348990425,-0.12272457348990425
0.08142840518979881,0.08142840518979881
0.3731695973030519,0.3731695973030519
0.39226777917954025,0.39226777917954025
0.15321122672556536,0.15321122672556536
-0.01933096815857076,-0.01933096815857076
0.0010843297093995428,0.0010843297093995428
0.02610953354755669,0.02610953354755669
-0.07201560781784896,-0.07201560781784896
-0.18528758308529708,-0.18528758308529708
-0.18331190909807416,-0.18331190909807416
-0.11877322551545838,-0.11877322551545838
-0.11877322551545838,-0.11877322551545838
-0.22019115685956892,-0.22019115685956892
-0.3150235082462697,-0.3150235082462697
-0.3163406242377516,-0.3163406242377516
-0.24258212871476215,-0.24258212871476215
-0.21887404086808696,-0.21887404086808696
-0.2735343545145881,-0.2735343545145881
-0.30316946432293207,-0.30316946432293207
-0.22019115685956892,-0.22019115685956892
-0.09440657967304221,-0.09440657967304221
-0.051600309949878666,-0.051600309949878666
-0.08386965174118656,-0.08386965174118656
-0.04567328798820987,-0.04567328798820987
0.12028332693851648,0.12028332693851648
0.2868984998609838,0.2868984998609838
0.30204533376302634,0.30204533376302634
0.20918865636354847,0.20918865636354847
0.1874562425040962,0.1874562425040962
0.32246063163099664,0.32246063163099664
0.5141010083916211,0.5141010083916211
0.6240801936803644,0.6240801936803644
0.6405441435738888,0.6405441435738888
0.6583252094588952,0.6583252094588952
0.7432791909094812,0.7432791909094812
0.8605025141513752,0.8605025141513752
0.9296511037041778,0.9296511037041778
0.9230655237467681,0.9230655237467681
0.8815763700150865,0.8815763700150865
0.8512827022110016,0.8512827022110016
0.8440385642578507,0.8440385642578507
0.838770100291923,0.838770100291923
0.8117692224665429,0.8117692224665429
0.751181886858373,0.751181886858373
0.6721549273694557,0.6721549273694557
0.5990549898422072,0.5990549898422072
0.5272721683064406,0.5272721683064406
0.43309837491548087,0.43309837491548087
0.3283876535926654,0.3283876535926654
0.26055618003134473,0.26055618003134473
0.23421386020170562,0.23421386020170562
0.1821877785381684,0.1821877785381684
0.0491590633984909,0.0491590633984909
-0.12535880547286815,-0.12535880547286815
-0.2570704046210636,-0.2570704046210636
-0.3156820662420107,-0.3156820662420107
-0.34795140803331853,-0.34795140803331853
-0.39141623575222306,-0.39141623575222306
-0.4250026935350129,-0.4250026935350129
-0.40919730163722945,-0.40919730163722945
-0.3696838218927708,-0.3696838218927708
-0.363756799931102,-0.363756799931102
-0.4045873956670426,-0.4045873956670426
-0.42434413553927197,-0.42434413553927197
-0.3677081479055479,-0.3677081479055479
-0.2610217525955095,-0.2610217525955095
-0.19253172103844785,-0.19253172103844785
-0.20043441698733958,-0.20043441698733958
-0.2432406867105031,-0.2432406867105031
-0.2577289626168046,-0.2577289626168046
-0.23467943276587042,-0.23467943276587042
-0.19516595302141176,-0.19516595302141176
-0.15301824129398922,-0.15301824129398922
-0.08913811570711438,-0.08913811570711438
-0.01801385216708881,-0.01801385216708881
0.04191492544534015,0.04191492544534015
0.05640320135164166,0.05640320135164166
0.03730501947515331,0.03730501947515331
0.060354549326087525,0.060354549326087525
0.1762607565764996,0.1762607565764996
0.3027038917587673,0.3027038917587673
0.31192370369914096,0.31192370369914096
0.252653484082453,0.252653484082453
0.2730687819504233,0.2730687819504233
0.3257534216097015,0.3257534216097015
0.22499404826133193,0.22499404826133193
0.06562301329201535,0.06562301329201535
0.17428508258927666,0.17428508258927666
0.5430775602042242,0.5430775602042242
0.8058422005048741,0.8058422005048741
0.9968240192697576,0.9968240192697576
1.7403359964613212,1.7403359964613212
3.245141016729455,3.245141016729455
4.576745284117711,4.576745284117711
4.535914688381771,4.535914688381771
3.044280828028457,3.044280828028457
1.1871472800389,1.1871472800389
-0.016038178179865872,-0.016038178179865872
-0.45002789737317006,-0.45002789737317006
-0.5593485246661724,-0.5593485246661724
-0.6212529762658242,-0.6212529762658242
-0.569226894602287,-0.569226894602287
-0.3663910319140659,-0.3663910319140659
-0.21228846091067716,-0.21228846091067716
-0.305145138310155,-0.305145138310155
-0.5474944807428348,-0.5474944807428348
-0.6864502178441811,-0.6864502178441811
-0.6396926001465716,-0.6396926001465716
-0.5468359227470938,-0.5468359227470938
-0.51061523298134,-0.51061523298134
-0.4934927250920746,-0.4934927250920746
-0.4342225054753866,-0.4342225054753866
-0.36046400995239714,-0.36046400995239714
-0.3137063922547877,-0.3137063922547877
-0.3025109063271911,-0.3025109063271911
-0.2906568624038535,-0.2906568624038535
-0.26892444854440123,-0.26892444854440123
-0.21492269289364108,-0.21492269289364108
-0.12601736346860912,-0.12601736346860912
-0.0035255762607873,-0.0035255762607873
0.1321373708618541,0.1321373708618541
0.23948232416763343,0.23948232416763343
0.29480119580987557,0.29480119580987557
0.3152164936778459,0.3152164936778459
0.340241697516003,0.340241697516003
0.3869993152136124,0.3869993152136124
0.4363911648941857,0.4363911648941857
0.46931906468123463,0.46931906468123463
0.4923685945321688,0.4923685945321688
0.5193694723575489,0.5193694723575489
0.5516388141488568,0.5516388141488568
0.5806153659614598,0.5806153659614598
0.602347779820912,0.602347779820912
0.6227630776888824,0.6227630776888824
0.6412027015696298,0.6412027015696298
0.6451540495440756,0.6451540495440756
0.6313243316335151,0.6313243316335151
0.6142018237442497,0.6142018237442497
0.6155189397357317,0.6155189397357317
0.6201288457059185,0.6201288457059185
0.5825910399486828,0.5825910399486828
0.46931906468123463,0.46931906468123463
0.3027038917587673,0.3027038917587673
0.14991843674686048,0.14991843674686048
0.05706175934738263,0.05706175934738263
0.01754827960292398,0.01754827960292398
-0.004842692252269255,-0.004842692252269255
-0.033819244064872266,-0.033819244064872266
-0.07135704982210798,-0.07135704982210798
-0.11021197157082567,-0.11021197157082567
-0.14182275536639258,-0.14182275536639258
-0.15499391528121215,-0.15499391528121215
-0.15499391528121215,-0.15499391528121215
-0.15762814726417604,-0.15762814726417604
-0.1787020031278873,-0.1787020031278873
-0.20175153297882154,-0.20175153297882154
-0.1971416270086347,-0.1971416270086347
-0.15499391528121215,-0.15499391528121215
-0.11548043553675348,-0.11548043553675348
-0.11548043553675348,-0.11548043553675348
-0.13787140739194673,-0.13787140739194673
-0.1266759214643501,-0.1266759214643501
-0.07728407178377679,-0.07728407178377679
-0.04501472999246889,-0.04501472999246889
-0.05555165792432453,-0.05555165792432453
-0.058185889907288436,-0.058185889907288436
-0.00615980824375121,-0.00615980824375121
0.06825724527497926,0.06825724527497926
0.11238063098962475,0.11238063098962475
0.12225900092573942,0.12225900092573942
0.105136493036474,0.105136493036474
0.03928069346237624,0.03928069346237624
-0.06938137583488506,-0.06938137583488506
-0.15301824129398922,-0.15301824129398922
-0.16026237924713996,-0.16026237924713996
-0.12404168948138619,-0.12404168948138619
-0.11021197157082567,-0.11021197157082567
-0.1062606235963798,-0.1062606235963798
-0.100333601634711,-0.100333601634711
-0.11613899353249446,-0.11613899353249446
-0.19055604705122492,-0.19055604705122492
-0.305803696305896,-0.305803696305896
-0.4019531636840787,-0.4019531636840787
-0.452003571360393,-0.452003571360393
-0.4730774272241043,-0.4730774272241043
-0.49744407306652044,-0.49744407306652044
-0.5323476468407923,-0.5323476468407923
-0.5567142926832085,-0.5567142926832085
-0.5613241986533953,-0.5613241986533953
-0.5362989948152381,-0.5362989948152381
-0.42763692551797683,-0.42763692551797683
-0.20701999694474935,-0.20701999694474935
0.05311041137293677,0.05311041137293677
0.3567056474095274,0.3567056474095274
0.9856285333421609,0.9856285333421609
2.1407392578718354,2.1407392578718354
3.311655374299294,3.311655374299294
3.509881331017328,3.509881331017328
2.4061381301554494,2.4061381301554494
0.8196719184154346,0.8196719184154346
-0.23994789673179823,-0.23994789673179823
-0.6173016282913784,-0.6173016282913784
-0.749671785435315,-0.749671785435315
-0.8122347950307078,-0.8122347950307078
-0.6489124120869453,-0.6489124120869453
-0.305145138310155,-0.305145138310155
-0.09177234769007829,-0.09177234769007829
-0.15828670525991703,-0.15828670525991703
-0.3288532261568302,-0.3288532261568302
-0.4059045116585246,-0.4059045116585246
-0.38878200376925914,-0.38878200376925914
-0.3854892137905543,-0.3854892137905543
-0.4342225054753866,-0.4342225054753866
-0.4855900291431829,-0.4855900291431829
-0.4928341670963336,-0.4928341670963336
-0.481638681168737,-0.481638681168737
-0.5145665809557859,-0.5145665809557859
-0.5883250764787754,-0.5883250764787754
-0.6423268321295356,-0.6423268321295356
-0.6238872082487882,-0.6238872082487882
-0.5744953585682149,-0.5744953585682149
-0.5527629447087625,-0.5527629447087625
-0.5791052645384017,-0.5791052645384017
-0.6304727882061979,-0.6304727882061979
-0.6713033839421385,-0.6713033839421385
-0.6726204999336205,-0.6726204999336205
-0.6166430702956374,-0.6166430702956374
-0.509298116989858,-0.509298116989858
-0.3966846997181509,-0.3966846997181509
-0.33280457413127607,-0.33280457413127607
-0.3176577402292336,-0.3176577402292336
-0.2906568624038535,-0.2906568624038535
-0.1997758589915986,-0.1997758589915986
-0.07003993383062604,-0.07003993383062604
0.0405978094538582,0.0405978094538582
0.11435630497684768,0.11435630497684768
0.1762607565764996,0.1762607565764996
0.2407994401591154,0.2407994401591154
0.3053381237417312,0.3053381237417312
0.3665840173456421,0.3665840173456421
0.42914702694103496,0.42914702694103496
0.49171003653642786,0.49171003653642786
0.5490045821658929,0.5490045821658929
0.5911522938933155,0.5911522938933155
0.604323453808135,0.604323453808135
0.5786396919742369,0.5786396919742369
0.5305649582851455,0.5305649582851455
0.48907580455346394,0.48907580455346394
0.4607578107366019,0.4607578107366019
0.41202451905176957,0.41202451905176957
0.31916784165229173,0.31916784165229173
0.20984721435928946,0.20984721435928946
0.14860132075537852,0.14860132075537852
0.1518941107340834,0.1518941107340834
0.1518941107340834,0.1518941107340834
0.06562301329201535,0.06562301329201535
-0.09243090568581927,-0.09243090568581927
-0.22084971485530988,-0.22084971485530988
-0.25970463660402754,-0.25970463660402754
-0.25311905664661777,-0.25311905664661777
-0.27090012253162415,-0.27090012253162415
-0.3084379282888599,-0.3084379282888599
-0.3229262041951614,-0.3229262041951614
-0.3150235082462697,-0.3150235082462697
-0.3229262041951614,-0.3229262041951614
-0.3486099660290595,-0.3486099660290595
-0.3571712199736922,-0.3571712199736922
-0.33082890014405314,-0.33082890014405314
-0.30053523233996815,-0.30053523233996815
-0.2985595583527452,-0.2985595583527452
-0.3288532261568302,-0.3288532261568302
-0.3670495899098069,-0.3670495899098069
-0.38944056176500014,-0.38944056176500014
-0.394050467735187,-0.394050467735187
-0.4019531636840787,-0.4019531636840787
-0.41907567157334413,-0.41907567157334413
-0.41051441762871144,-0.41051441762871144
-0.34136582807590876,-0.34136582807590876
-0.25377761464235876,-0.25377761464235876
-0.23072808479142454,-0.23072808479142454
-0.2853883984379257,-0.2853883984379257
-0.32490187818238436,-0.32490187818238436
-0.27485147050607006,-0.27485147050607006
-0.18462902508955611,-0.18462902508955611
-0.1648722852173268,-0.1648722852173268
-0.24455780270198507,-0.24455780270198507
-0.34202438607164976,-0.34202438607164976
-0.3657324739183249,-0.3657324739183249
-0.336097364109981,-0.336097364109981
-0.3137063922547877,-0.3137063922547877
-0.3229262041951614,-0.3229262041951614
-0.32226764619942044,-0.32226764619942044
-0.27221723852310614,-0.27221723852310614
-0.1931902790341888,-0.1931902790341888
-0.14840833532380238,-0.14840833532380238
-0.1793605611236283,-0.1793605611236283
-0.23533799076161138,-0.23533799076161138
-0.23994789673179823,-0.23994789673179823
-0.20504432295752642,-0.20504432295752642
-0.1964830690128937,-0.1964830690128937
-0.18462902508955611,-0.18462902508955611
-0.100333601634711,-0.100333601634711
0.005694235679586386,0.005694235679586386
0.10381937704499204,0.10381937704499204
0.49697850050235565,0.49697850050235565
1.5552811996581066,1.5552811996581066
2.9830349344245457,2.9830349344245457
3.779231551275388,3.779231551275388
3.2807031484994678,3.2807031484994678
1.9286835832432407,1.9286835832432407
0.693228783233167,0.693228783233167
0.006352793675327363,0.006352793675327363
-0.35980545195665614,-0.35980545195665614
-0.6324484621934209,-0.6324484621934209
-0.7154267696567841,-0.7154267696567841
-0.5257620668833825,-0.5257620668833825
-0.25246049865087683,-0.25246049865087683
-0.17079930717899558,-0.17079930717899558
-0.32951178415257115,-0.32951178415257115
-0.5316890888450513,-0.5316890888450513
-0.5797638225341426,-0.5797638225341426
-0.481638681168737,-0.481638681168737
-0.4059045116585246,-0.4059045116585246
-0.453320687351875,-0.453320687351875
-0.5461773647513528,-0.5461773647513528
-0.5553971766917265,-0.5553971766917265
-0.4842729131517009,-0.4842729131517009
-0.42961259950519975,-0.42961259950519975
-0.43356394747964566,-0.43356394747964566
-0.4315882734924227,-0.4315882734924227
-0.4144657656031573,-0.4144657656031573
-0.4361981794626095,-0.4361981794626095
-0.5283962988663464,-0.5283962988663464
-0.6028133523850768,-0.6028133523850768
-0.5632998726406182,-0.5632998726406182
-0.43949096944131444,-0.43949096944131444
-0.33280457413127607,-0.33280457413127607
-0.2728757965188471,-0.2728757965188471
-0.20372720696604446,-0.20372720696604446
-0.08518676773266852,-0.08518676773266852
0.05772031734312361,0.05772031734312361
0.1881148004998372,0.1881148004998372
0.28887417384820674,0.28887417384820674
0.3586813213967504,0.3586813213967504
0.4047803810986188,0.4047803810986188
0.4521965567919692,0.4521965567919692
0.5351748642553323,0.5351748642553323
0.6570080934674132,0.6570080934674132
0.777524206688012,0.777524206688012
0.8367944263047,0.8367944263047
0.8196719184154346,0.8196719184154346
0.7636944887774515,0.7636944887774515
0.7156197550883602,0.7156197550883602
0.6840089712927933,0.6840089712927933
0.6603008834461181,0.6603008834461181
0.6392270275824068,0.6392270275824068
0.6135432657485087,0.6135432657485087
0.5542730461318207,0.5542730461318207
0.44758665082178234,0.44758665082178234
0.3231191896267376,0.3231191896267376
0.22565260625707292,0.22565260625707292
0.163748154657421,0.163748154657421
0.11106351499814279,0.11106351499814279
0.05047617938997286,0.05047617938997286
-0.002208460269305345,-0.002208460269305345
-0.031185012081908357,-0.031185012081908357
-0.05555165792432453,-0.05555165792432453
-0.11087052956656665,-0.11087052956656665
-0.2116299029149362,-0.2116299029149362
-0.32160908820367945,-0.32160908820367945
-0.3854892137905543,-0.3854892137905543
-0.3815378658161084,-0.3815378658161084
-0.34992708202054146,-0.34992708202054146
-0.33346313212701706,-0.33346313212701706
-0.32490187818238436,-0.32490187818238436
-0.2788028184805159,-0.2788028184805159
-0.20372720696604446,-0.20372720696604446
-0.15235968329824823,-0.15235968329824823
-0.1444569873493565,-0.1444569873493565
-0.13062726943879596,-0.13062726943879596
-0.08782099971563243,-0.08782099971563243
-0.06674714385192115,-0.06674714385192115
-0.10823629758360273,-0.10823629758360273
-0.15696958926843507,-0.15696958926843507
-0.12865159545157304,-0.12865159545157304
-0.03908770803080009,-0.03908770803080009
0.003718561692363453,0.003718561692363453
-0.06016156389451137,-0.06016156389451137
-0.16355516922584484,-0.16355516922584484
-0.1938488370299298,-0.1938488370299298
-0.1181146675197174,-0.1181146675197174
-0.014062504192642942,-0.014062504192642942
0.0287437655305206,0.0287437655305206
-0.002867018265046323,-0.002867018265046323
-0.04369761400098693,-0.04369761400098693
-0.04501472999246889,-0.04501472999246889
-0.02525799012023956,-0.02525799012023956
-0.031185012081908357,-0.031185012081908357
-0.07333272380933092,-0.07333272380933092
-0.1062606235963798,-0.1062606235963798
-0.11416331954527154,-0.11416331954527154
-0.10691918159212078,-0.10691918159212078
-0.10955341357508469,-0.10955341357508469
-0.12140745749842229,-0.12140745749842229
-0.12535880547286815,-0.12535880547286815
-0.11021197157082567,-0.11021197157082567
-0.09374802167730123,-0.09374802167730123
-0.10428494960915687,-0.10428494960915687
-0.1352371754089828,-0.1352371754089828
-0.1563110312726941,-0.1563110312726941
-0.1826533511023332,-0.1826533511023332
-0.23467943276587042,-0.23467943276587042
-0.24521636069772604,-0.24521636069772604
-0.12865159545157304,-0.12865159545157304
0.0728671512451661,0.0728671512451661
0.33892458152452104,0.33892458152452104
0.9303096616999188,0.9303096616999188
2.101884336123118,2.101884336123118
3.4374399514858203,3.4374399514858203
3.9405782602319275,3.9405782602319275
3.1088195116110726,3.1088195116110726
1.5928190054153424,1.5928190054153424
0.4541722307791921,0.4541722307791921
0.03993925145811722,0.03993925145811722
-0.056868773915806484,-0.056868773915806484
-0.18397046709381515,-0.18397046709381515
-0.24192357071902115,-0.24192357071902115
-0.0654300278604392,-0.0654300278604392
0.19865172843169282,0.19865172843169282
0.26253185401856766,0.26253185401856766
0.0669401292834973,0.0669401292834973
-0.16882363319177265,-0.16882363319177265
-0.23863078074031627,-0.23863078074031627
-0.18067767711511024,-0.18067767711511024
-0.16223805323436288,-0.16223805323436288
-0.23467943276587042,-0.23467943276587042
-0.2959253263697813,-0.2959253263697813
-0.2643145425742144,-0.2643145425742144
-0.19055604705122492,-0.19055604705122492
-0.1451155453450975,-0.1451155453450975
-0.13655429140046477,-0.13655429140046477
-0.12009034150694033,-0.12009034150694033
-0.10165071762619296,-0.10165071762619296
-0.09835792764748807,-0.09835792764748807
-0.11548043553675348,-0.11548043553675348
-0.12535880547286815,-0.12535880547286815
-0.1121876455580486,-0.1121876455580486
-0.09704081165600612,-0.09704081165600612
-0.11416331954527154,-0.11416331954527154
-0.1497254513152843,-0.1497254513152843
-0.1385299653876877,-0.1385299653876877
-0.03908770803080009,-0.03908770803080009
0.10118514506202814,0.10118514506202814
0.20392019239762066,0.20392019239762066
0.2579219480483808,0.2579219480483808
0.3231191896267376,0.3231191896267376
0.43112270092825794,0.43112270092825794
0.5391262122297782,0.5391262122297782
0.604982011803876,0.604982011803876
0.6537153034887083,0.6537153034887083
0.7287909150031797,0.7287909150031797
0.8104521064750609,0.8104521064750609
0.8420628902706279,0.8420628902706279
0.8190133604196936,0.8190133604196936
0.7959638305687594,0.7959638305687594
0.8071593164963561,0.8071593164963561
0.8216475924026575,0.8216475924026575
0.7808169966667169,0.7808169966667169
0.6701792533822327,0.6701792533822327
0.5358334222510733,0.5358334222510733
0.43968395487289064,0.43968395487289064
0.40675605508584173,0.40675605508584173
0.4041218231028778,0.4041218231028778
0.3856821992221305,0.3856821992221305
0.33958313952026203,0.33958313952026203
0.2868984998609838,0.2868984998609838
0.22762828024429585,0.22762828024429585
0.14267429879370971,0.14267429879370971
0.043890599432563085,0.043890599432563085
-0.01735529417134783,-0.01735529417134783
-0.01998952615431174,-0.01998952615431174
-0.004842692252269255,-0.004842692252269255
-0.023940874128757606,-0.023940874128757606
-0.07596695579229483,-0.07596695579229483
-0.1411641973706516,-0.1411641973706516
-0.20175153297882154,-0.20175153297882154
-0.23665510675309334,-0.23665510675309334
-0.20438576496178543,-0.20438576496178543
-0.11416331954527154,-0.11416331954527154
-0.04435617199672791,-0.04435617199672791
-0.06345435387321625,-0.06345435387321625
-0.13326150142175988,-0.13326150142175988
-0.16421372722158584,-0.16421372722158584
-0.11548043553675348,-0.11548043553675348
-0.043039056005245956,-0.043039056005245956
-0.016696736175606852,-0.016696736175606852
-0.04369761400098693,-0.04369761400098693
-0.07333272380933092,-0.07333272380933092
-0.06147867988599333,-0.06147867988599333
-0.012745388201160985,-0.012745388201160985
0.03862213546663527,0.03862213546663527
0.06759868727923828,0.06759868727923828
0.05837887533886459,0.05837887533886459
0.02413385956033376,0.02413385956033376
-0.0008913442778233899,-0.0008913442778233899
0.03335367150070744,0.03335367150070744
0.09591668109610031,0.09591668109610031
0.11896621094703452,0.11896621094703452
0.07155003525368414,0.07155003525368414
0.018865395594405938,0.018865395594405938
0.04257348344108113,0.04257348344108113
0.1374058348277819,0.1374058348277819
0.19535893845298793,0.19535893845298793
0.12884458088314918,0.12884458088314918
-0.0015499022735643675,-0.0015499022735643675
-0.04699040397969182,-0.04699040397969182
0.02413385956033376,0.02413385956033376
0.1262103489001853,0.1262103489001853
0.25989762203560374,0.25989762203560374
0.49895417448957863,0.49895417448957863
0.7696215107391203,0.7696215107391203
0.9922141132995708,0.9922141132995708
1.4709857762032614,1.4709857762032614
2.5852659049969953,2.5852659049969953
3.9050161284619147,3.9050161284619147
4.262613120149266,4.262613120149266
3.1404302954066394,3.1404302954066394
1.4301551804673207,1.4301551804673207
0.3343146755543342,0.3343146755543342
0.021499627577369847,0.021499627577369847
-0.10560206560063883,-0.10560206560063883
-0.29197397839533545,-0.29197397839533545
-0.2669487745571783,-0.2669487745571783
0.059037433334605566,0.059037433334605566
0.36197411137545527,0.36197411137545527
0.38304796723916656,0.38304796723916656
0.2111643303507714,0.2111643303507714
0.06825724527497926,0.06825724527497926
0.03335367150070744,0.03335367150070744
0.04520771542404504,0.04520771542404504
0.030060881522002557,0.030060881522002557
-0.004842692252269255,-0.004842692252269255
-0.012745388201160985,-0.012745388201160985
0.015572605615701049,0.015572605615701049
0.01030414164977323,0.01030414164977323
-0.057527331911547464,-0.057527331911547464
-0.13721284939620576,-0.13721284939620576
-0.13326150142175988,-0.13326150142175988
-0.05225886794561964,-0.05225886794561964
0.0346707874921894,0.0346707874921894
0.05574464335590068,0.05574464335590068
0.022816743568851803,0.022816743568851803
0.01030414164977323,0.01030414164977323
0.06298878130905143,0.06298878130905143
0.13016169687463114,0.13016169687463114
0.14464997278093264,0.14464997278093264
0.12225900092573942,0.12225900092573942
0.1611139226744571,0.1611139226744571
0.30204533376302634,0.30204533376302634
0.47129473866845756,0.47129473866845756
0.5542730461318207,0.5542730461318207
0.545711792187188,0.545711792187188
0.547687466174411,0.547687466174411
0.6412027015696298,0.6412027015696298
0.7669872787561564,0.7669872787561564
0.8157205704409888,0.8157205704409888
0.7834512286496809,0.7834512286496809
0.7821341126581989,0.7821341126581989
0.8605025141513752,0.8605025141513752
0.9362366836615876,0.9362366836615876
0.9289925457084369,0.9289925457084369
0.8782835800363816,0.8782835800363816
0.8572097241726703,0.8572097241726703
0.8532583761982244,0.8532583761982244
0.8216475924026575,0.8216475924026575
0.7887196926156087,0.7887196926156087
0.8018908525304282,0.8018908525304282
0.8321845203345132,0.8321845203345132
0.8065007585006151,0.8065007585006151
0.718912545067065,0.718912545067065
0.6174946137229546,0.6174946137229546
0.5299064002894045,0.5299064002894045
0.4363911648941857,0.4363911648941857
0.33365611755859326,0.33365611755859326
0.23421386020170562,0.23421386020170562
0.14925987875111948,0.14925987875111948
0.07352570924090708,0.07352570924090708
0.004377119688104431,0.004377119688104431
-0.059503005898770396,-0.059503005898770396
-0.11021197157082567,-0.11021197157082567
-0.13457861741324184,-0.13457861741324184
-0.12140745749842229,-0.12140745749842229
-0.10494350760489785,-0.10494350760489785
-0.13260294342601892,-0.13260294342601892
-0.2057028809532674,-0.2057028809532674
-0.25246049865087683,-0.25246049865087683
-0.216898366880864,-0.216898366880864
-0.10560206560063883,-0.10560206560063883
0.008328467662550297,0.008328467662550297
0.0873554271514676,0.0873554271514676
0.09789235508332325,0.09789235508332325
0.05442752736441873,0.05442752736441873
-0.018672410162829785,-0.018672410162829785
-0.07728407178377679,-0.07728407178377679
-0.10165071762619296,-0.10165071762619296
-0.09045523169859634,-0.09045523169859634
-0.06147867988599333,-0.06147867988599333
-0.033819244064872266,-0.033819244064872266
-0.00023278628208241235,-0.00023278628208241235
0.03993925145811722,0.03993925145811722
0.0346707874921894,0.0346707874921894
-0.02789222210320347,-0.02789222210320347
0.007669909666809319,0.007669909666809319
0.2875570578567248,0.2875570578567248
0.6820332973055703,0.6820332973055703
1.042264520975885,1.042264520975885
1.6995054007253807,1.6995054007253807
3.1154050915684826,3.1154050915684826
4.841485598405584,4.841485598405584
5.519800334018792,5.519800334018792
4.406178763220798,4.406178763220798
2.3567462804748764,2.3567462804748764
0.7979395045559824,0.7979395045559824
0.19206614847428305,0.19206614847428305
0.04520771542404504,0.04520771542404504
-0.035136360056354225,-0.035136360056354225
0.013596931628478116,0.013596931628478116
0.21445712032947628,0.21445712032947628
0.340241697516003,0.340241697516003
0.24804357811226616,0.24804357811226616
0.05772031734312361,0.05772031734312361
-0.04040482402228204,-0.04040482402228204
0.009645583654032251,0.009645583654032251
0.12028332693851648,0.12028332693851648
0.1518941107340834,0.1518941107340834
0.04191492544534015,0.04191492544534015
-0.11877322551545838,-0.11877322551545838
-0.18660469907677904,-0.18660469907677904
-0.1503840093110253,-0.1503840093110253
-0.11877322551545838,-0.11877322551545838
-0.16750651720029072,-0.16750651720029072
-0.21294701890641815,-0.21294701890641815
-0.19055604705122492,-0.19055604705122492
-0.12470024747712717,-0.12470024747712717
-0.11679755152823544,-0.11679755152823544
-0.18660469907677904,-0.18660469907677904
-0.2557532886295817,-0.2557532886295817
-0.247192034684949,-0.247192034684949
-0.1793605611236283,-0.1793605611236283
-0.12140745749842229,-0.12140745749842229
-0.11416331954527154,-0.11416331954527154
-0.12865159545157304,-0.12865159545157304
-0.11087052956656665,-0.11087052956656665
-0.03908770803080009,-0.03908770803080009
0.05376896936867775,0.05376896936867775
0.13016169687463114,0.13016169687463114
0.19535893845298793,0.19535893845298793
0.2961183118013575,0.2961183118013575
0.4548307887749331,0.4548307887749331
0.6379099115909249,0.6379099115909249
0.7880611346198677,0.7880611346198677
0.8684052101002669,0.8684052101002669
0.8730151160704538,0.8730151160704538
0.8183548024239526,0.8183548024239526
0.7393278429350354,0.7393278429350354
0.6833504132970523,0.6833504132970523
0.6741306013566787,0.6741306013566787
0.689935993254462,0.689935993254462
0.6879603192672391,0.6879603192672391
0.6438369335525936,0.6438369335525936
0.5766640179870139,0.5766640179870139
0.5226622623362538,0.5226622623362538
0.5048811964512474,0.5048811964512474
0.5147595663873621,0.5147595663873621
0.5233208203319948,0.5233208203319948
0.5048811964512474,0.5048811964512474
0.4607578107366019,0.4607578107366019
0.4133416350432515,0.4133416350432515
0.3817308512476846,0.3817308512476846
0.36065699538397333,0.36065699538397333
0.31916784165229173,0.31916784165229173
0.23948232416763343,0.23948232416763343
0.14860132075537852,0.14860132075537852
0.09459956510461835,0.09459956510461835
0.07945273120257587,0.07945273120257587
0.059037433334605566,0.059037433334605566
-0.01142827220967903,-0.01142827220967903
-0.10494350760489785,-0.10494350760489785
-0.2030686489703035,-0.2030686489703035
-0.276168586497552,-0.276168586497552
-0.3071208122973779,-0.3071208122973779
-0.2649731005699554,-0.2649731005699554
-0.15696958926843507,-0.15696958926843507
-0.034477802060613245,-0.034477802060613245
0.013596931628478116,0.013596931628478116
-0.04501472999246889,-0.04501472999246889
-0.12601736346860912,-0.12601736346860912
-0.11350476154953056,-0.11350476154953056
-0.04106338201802302,-0.04106338201802302
-0.01933096815857076,-0.01933096815857076
0.012938373632737138,0.012938373632737138
0.21577423632095824,0.21577423632095824
0.5108082184129162,0.5108082184129162
0.7729143007178252,0.7729143007178252
1.3577138009358132,1.3577138009358132
2.7637351218428003,2.7637351218428003
4.515499390513801,4.515499390513801
5.183935756190893,5.183935756190893
4.0558259094865985,4.0558259094865985
2.126909539961275,2.126909539961275
0.8479899122322967,0.8479899122322967
0.48973436254920494,0.48973436254920494
0.3850236412263895,0.3850236412263895
0.19601749644872893,0.19601749644872893
0.13608871883629994,0.13608871883629994
0.2559462740611579,0.2559462740611579
0.2757030139333872,0.2757030139333872
0.08801398514720858,0.08801398514720858
-0.09308946368156025,-0.09308946368156025
-0.09704081165600612,-0.09704081165600612
-0.0035255762607873,-0.0035255762607873
0.03730501947515331,0.03730501947515331
-0.01472106218838392,-0.01472106218838392
-0.09045523169859634,-0.09045523169859634
-0.11152908756230762,-0.11152908756230762
-0.08189397775396363,-0.08189397775396363
-0.09704081165600612,-0.09704081165600612
-0.19516595302141176,-0.19516595302141176
-0.276168586497552,-0.276168586497552
-0.20438576496178543,-0.20438576496178543
-0.058844447903029416,-0.058844447903029416
-0.01735529417134783,-0.01735529417134783
-0.10889485557934371,-0.10889485557934371
-0.14709121933232042,-0.14709121933232042
-0.03184357007764933,-0.03184357007764933
0.09130677512591347,0.09130677512591347
0.052451853377195795,0.052451853377195795
-0.08123541975822265,-0.08123541975822265
-0.1358957334047238,-0.1358957334047238
-0.08123541975822265,-0.08123541975822265
-0.021306642145793694,-0.021306642145793694
-0.005501250248010233,-0.005501250248010233
0.002401445700881498,0.002401445700881498
0.026768091543297668,0.026768091543297668
0.05640320135164166,0.05640320135164166
0.10579505103221498,0.10579505103221498
0.1848220105211323,0.1848220105211323
0.25989762203560374,0.25989762203560374
0.2934840798183936,0.2934840798183936
0.3138993776863639,0.3138993776863639
0.38041373525620265,0.38041373525620265
0.4923685945321688,0.4923685945321688
0.576005459991273,0.576005459991273
0.5740297860040501,0.5740297860040501
0.5187109143618079,0.5187109143618079
0.49171003653642786,0.49171003653642786
0.5154181243831031,0.5154181243831031
0.5312235162808865,0.5312235162808865
0.4851244565790181,0.4851244565790181
0.40675605508584173,0.40675605508584173
0.3547299734223045,0.3547299734223045
0.3356317915458162,0.3356317915458162
0.3073137977289541,0.3073137977289541
0.25989762203560374,0.25989762203560374
0.22762828024429585,0.22762828024429585
0.23092107022300074,0.23092107022300074
0.23618953418892855,0.23618953418892855
0.20194451841039773,0.20194451841039773
0.13938150881500483,0.13938150881500483
0.10381937704499204,0.10381937704499204
0.12950313887889017,0.12950313887889017
0.19140759047854208,0.19140759047854208
0.23355530220596465,0.23355530220596465
0.24475078813356127,0.24475078813356127
0.2638489700100496,0.2638489700100496
0.3138993776863639,0.3138993776863639
0.34155881350748496,0.34155881350748496
0.2842642678780199,0.2842642678780199
0.1762607565764996,0.1762607565764996
0.1281860228874082,0.1281860228874082
0.1762607565764996,0.1762607565764996
0.22104270028688608,0.22104270028688608
0.1551869007127883,0.1551869007127883
0.012938373632737138,0.012938373632737138
-0.07925974577099971,-0.07925974577099971
-0.06345435387321625,-0.06345435387321625
-0.006818366239492188,-0.006818366239492188
0.0010843297093995428,0.0010843297093995428
-0.057527331911547464,-0.057527331911547464
-0.12799303745583207,-0.12799303745583207
-0.1563110312726941,-0.1563110312726941
-0.14248131336213357,-0.14248131336213357
-0.14182275536639258,-0.14182275536639258
-0.18923893105974296,-0.18923893105974296
-0.24916770867217192,-0.24916770867217192
-0.2412650127232802,-0.2412650127232802
-0.18726325707252003,-0.18726325707252003
-0.1793605611236283,-0.1793605611236283
-0.24455780270198507,-0.24455780270198507
-0.28933974641237153,-0.28933974641237153
-0.25114338265939484,-0.25114338265939484
-0.17475065515344146,-0.17475065515344146
-0.11416331954527154,-0.11416331954527154
-0.0535759839371016,-0.0535759839371016
0.006352793675327363,0.006352793675327363
0.008987025658291273,0.008987025658291273
-0.0621372378817343,-0.0621372378817343
-0.11745610952397642,-0.11745610952397642
-0.08650388372415048,-0.08650388372415048
-0.02723366410746249,-0.02723366410746249
0.004377119688104431,0.004377119688104431
0.194041822461506,0.194041822461506
0.8690637680960079,0.8690637680960079
2.0050763107491942,2.0050763107491942
2.9448385706715694,2.9448385706715694
2.919813366833412,2.919813366833412
1.924732235268795,1.924732235268795
0.7669872787561564,0.7669872787561564
0.1367472768320409,0.1367472768320409
-0.050283193958396706,-0.050283193958396706
-0.19780018500437566,-0.19780018500437566
-0.33280457413127607,-0.33280457413127607
-0.2142641348979001,-0.2142641348979001
0.10974639900666085,0.10974639900666085
0.28953273184394773,0.28953273184394773
0.15123555273834244,0.15123555273834244
-0.12865159545157304,-0.12865159545157304
-0.3071208122973779,-0.3071208122973779
-0.3262189941738663,-0.3262189941738663
-0.27221723852310614,-0.27221723852310614
-0.24916770867217192,-0.24916770867217192
-0.3025109063271911,-0.3025109063271911
-0.39075767775648207,-0.39075767775648207
-0.43290538948390467,-0.43290538948390467
-0.4138072076074163,-0.4138072076074163
-0.38087930782036744,-0.38087930782036744
-0.37100093788425276,-0.37100093788425276
-0.35124419801202345,-0.35124419801202345
-0.3202919722121975,-0.3202919722121975
-0.3071208122973779,-0.3071208122973779
-0.32160908820367945,-0.32160908820367945
-0.3163406242377516,-0.3163406242377516
-0.2735343545145881,-0.2735343545145881
-0.22809385280846065,-0.22809385280846065
-0.18726325707252003,-0.18726325707252003
-0.09177234769007829,-0.09177234769007829
0.07089147725794316,0.07089147725794316
0.2085300983678075,0.2085300983678075
0.2407994401591154,0.2407994401591154
0.22367693226984997,0.22367693226984997
0.2671417599887545,0.2671417599887545
0.37975517726046165,0.37975517726046165
0.4745875286471624,0.4745875286471624
0.5101496604171752,0.5101496604171752
0.5364919802468143,0.5364919802468143
0.6082748017825809,0.6082748017825809
0.7057413851522455,0.7057413851522455
0.7610602567944876,0.7610602567944876
0.7426206329137403,0.7426206329137403
0.6846675292885342,0.6846675292885342
0.6425198175611118,0.6425198175611118
0.6293486576462921,0.6293486576462921
0.6221045196931414,0.6221045196931414
0.5970793158549843,0.5970793158549843
0.5404433282212602,0.5404433282212602
0.4449524188388184,0.4449524188388184
0.3165336096693278,0.3165336096693278
0.1848220105211323,0.1848220105211323
0.07945273120257587,0.07945273120257587
0.0070113516710683405,0.0070113516710683405
-0.03908770803080009,-0.03908770803080009
-0.058844447903029416,-0.058844447903029416
-0.06147867988599333,-0.06147867988599333
-0.06938137583488506,-0.06938137583488506
-0.100333601634711,-0.100333601634711
-0.14248131336213357,-0.14248131336213357
-0.18528758308529708,-0.18528758308529708
-0.22941096879994258,-0.22941096879994258
-0.28209560845922077,-0.28209560845922077
-0.3176577402292336,-0.3176577402292336
-0.2965838843655223,-0.2965838843655223
-0.20767855494049034,-0.20767855494049034
-0.09638225366026514,-0.09638225366026514
-0.023940874128757606,-0.023940874128757606
-0.018672410162829785,-0.018672410162829785
-0.04896607796691475,-0.04896607796691475
-0.06411291186895723,-0.06411291186895723
-0.03974626602654106,-0.03974626602654106
0.003718561692363453,0.003718561692363453
0.0346707874921894,0.0346707874921894
0.043890599432563085,0.043890599432563085
0.03862213546663527,0.03862213546663527
0.018865395594405938,0.018865395594405938
-0.021965200141534674,-0.021965200141534674
-0.07794262977951777,-0.07794262977951777
-0.11613899353249446,-0.11613899353249446
-0.11548043553675348,-0.11548043553675348
-0.09177234769007829,-0.09177234769007829
-0.09572369566452416,-0.09572369566452416
-0.13260294342601892,-0.13260294342601892
-0.19055604705122492,-0.19055604705122492
-0.23533799076161138,-0.23533799076161138
-0.23665510675309334,-0.23665510675309334
-0.19055604705122492,-0.19055604705122492
-0.14577410334083846,-0.14577410334083846
-0.1536767992897302,-0.1536767992897302
-0.20175153297882154,-0.20175153297882154
-0.24587491869346703,-0.24587491869346703
-0.2853883984379257,-0.2853883984379257
-0.33543880611424,-0.33543880611424
-0.3380730380972039,-0.3380730380972039
-0.19516595302141176,-0.19516595302141176
0.08669686915572662,0.08669686915572662
0.37053536532008796,0.37053536532008796
0.6089333597783219,0.6089333597783219
1.046215868950331,1.046215868950331
2.0287843985958696,2.0287843985958696
3.4031949357072895,3.4031949357072895
4.266564468123711,4.266564468123711
3.7324739335777783,3.7324739335777783
2.0208817026469776,2.0208817026469776
0.35407141542656356,0.35407141542656356
-0.3841720977990723,-0.3841720977990723
-0.44805222338594713,-0.44805222338594713
-0.47768733319429113,-0.47768733319429113
-0.5343233208280151,-0.5343233208280151
-0.33148745813979413,-0.33148745813979413
0.029402323526261577,0.029402323526261577
0.15452834271704732,0.15452834271704732
-0.026575106111721515,-0.026575106111721515
-0.23138664278716553,-0.23138664278716553
-0.30975504428034184,-0.30975504428034184
-0.363756799931102,-0.363756799931102
-0.46780896325817645,-0.46780896325817645
-0.5553971766917265,-0.5553971766917265
-0.5705440105937689,-0.5705440105937689
-0.5481530387385757,-0.5481530387385757
-0.5191764869259727,-0.5191764869259727
-0.48888281912188775,-0.48888281912188775
-0.4460765493987242,-0.4460765493987242
-0.40327027967556067,-0.40327027967556067
-0.35387842999498736,-0.35387842999498736
-0.3163406242377516,-0.3163406242377516
-0.29197397839533545,-0.29197397839533545
-0.2774857024890339,-0.2774857024890339
-0.2590460786082866,-0.2590460786082866
-0.23006952679568357,-0.23006952679568357
-0.1931902790341888,-0.1931902790341888
-0.16684795920454973,-0.16684795920454973
-0.16948219118751362,-0.16948219118751362
-0.19845874300011665,-0.19845874300011665
-0.22019115685956892,-0.22019115685956892
-0.19845874300011665,-0.19845874300011665
-0.12535880547286815,-0.12535880547286815
-0.018672410162829785,-0.018672410162829785
0.09723379708758227,0.09723379708758227
0.2111643303507714,0.2111643303507714
0.3059966817374722,0.3059966817374722
0.3468272774734128,0.3468272774734128
0.3316804435713703,0.3316804435713703
0.33958313952026203,0.33958313952026203
0.45153799879622825,0.45153799879622825
0.6234216356846234,0.6234216356846234
0.7083756171352094,0.7083756171352094
0.6504225135100035,0.6504225135100035
0.5648099740636764,0.5648099740636764
0.5687613220381222,0.5687613220381222
0.606299127795358,0.606299127795358
0.5391262122297782,0.5391262122297782
0.3553885314180455,0.3553885314180455
0.20655442438058455,0.20655442438058455
0.20918865636354847,0.20918865636354847
0.3066552397332132,0.3066552397332132
0.34814439346489473,0.34814439346489473
0.28228859389079697,0.28228859389079697
0.1848220105211323,0.1848220105211323
0.12884458088314918,0.12884458088314918
0.08669686915572662,0.08669686915572662
0.002401445700881498,0.002401445700881498
-0.10757773958786175,-0.10757773958786175
-0.17804344513214634,-0.17804344513214634
-0.19911730099585762,-0.19911730099585762
-0.22809385280846065,-0.22809385280846065
-0.2965838843655223,-0.2965838843655223
-0.3677081479055479,-0.3677081479055479
-0.3960261417224099,-0.3960261417224099
-0.3960261417224099,-0.3960261417224099
-0.4170999975861212,-0.4170999975861212
-0.47110175323688136,-0.47110175323688136
-0.51061523298134,-0.51061523298134
-0.4928341670963336,-0.4928341670963336
-0.4342225054753866,-0.4342225054753866
-0.40392883767130167,-0.40392883767130167
-0.43290538948390467,-0.43290538948390467
-0.4651747312752126,-0.4651747312752126
-0.43027115750094075,-0.43027115750094075
-0.3565126619779513,-0.3565126619779513
-0.33017034214831215,-0.33017034214831215
-0.3756108438544396,-0.3756108438544396
-0.3841720977990723,-0.3841720977990723
-0.3110721602718238,-0.3110721602718238
-0.23072808479142454,-0.23072808479142454
-0.20767855494049034,-0.20767855494049034
-0.1938488370299298,-0.1938488370299298
-0.16684795920454973,-0.16684795920454973
-0.1964830690128937,-0.1964830690128937
-0.2676073325529193,-0.2676073325529193
-0.27155868052736515,-0.27155868052736515
-0.23928933873605726,-0.23928933873605726
-0.3380730380972039,-0.3380730380972039
-0.49744407306652044,-0.49744407306652044
-0.41183153362019337,-0.41183153362019337
-0.03711203404357716,-0.03711203404357716
0.2974354277928395,0.2974354277928395
0.5338577482638505,0.5338577482638505
1.1805617000814903,1.1805617000814903
2.559582143163097,2.559582143163097
4.025532241682513,4.025532241682513
4.443716568978034,4.443716568978034
3.4124147476476634,3.4124147476476634
1.687651356802043,1.687651356802043
0.32443630561821957,0.32443630561821957
-0.32226764619942044,-0.32226764619942044
-0.6113746063297095,-0.6113746063297095
-0.8622852027070221,-0.8622852027070221
-0.9709472720042834,-0.9709472720042834
-0.7944537291457014,-0.7944537291457014
-0.5507872707215397,-0.5507872707215397
-0.5547386186959855,-0.5547386186959855
-0.7766726632606951,-0.7766726632606951
-0.9446049521746444,-0.9446049521746444
-0.9571175540937229,-0.9571175540937229
-0.9281410022811198,-0.9281410022811198
-0.924848212302415,-0.924848212302415
-0.8932374285068481,-0.8932374285068481
-0.8221131649668225,-0.8221131649668225
-0.7793068952436589,-0.7793068952436589
-0.7786483372479179,-0.7786483372479179
-0.7746969892734721,-0.7746969892734721
-0.7417690894864232,-0.7417690894864232
-0.7226709076099349,-0.7226709076099349
-0.7325492775460495,-0.7325492775460495
-0.7621843873543935,-0.7621843873543935
-0.7786483372479179,-0.7786483372479179
-0.7602087133671706,-0.7602087133671706
-0.7141096536653021,-0.7141096536653021
-0.656815108035837,-0.656815108035837
-0.5955692144319261,-0.5955692144319261
-0.5211521609131956,-0.5211521609131956
-0.43027115750094075,-0.43027115750094075
-0.32951178415257115,-0.32951178415257115
-0.22545962082549673,-0.22545962082549673
-0.11877322551545838,-0.11877322551545838
-0.010111156218197076,-0.010111156218197076
0.0992094710748052,0.0992094710748052
0.18943191649131916,0.18943191649131916
0.23092107022300074,0.23092107022300074
0.20523730838910262,0.20523730838910262
0.15716257470001121,0.15716257470001121
0.15386978472130633,0.15386978472130633
0.20523730838910262,0.20523730838910262
0.24738502011652516,0.24738502011652516
0.23421386020170562,0.23421386020170562
0.1973346124402109,0.1973346124402109
0.1881148004998372,0.1881148004998372
0.19865172843169282,0.19865172843169282
0.1881148004998372,0.1881148004998372
0.13938150881500483,0.13938150881500483
0.07220859324942512,0.07220859324942512
-0.0015499022735643675,-0.0015499022735643675
-0.07267416581358994,-0.07267416581358994
-0.12535880547286815,-0.12535880547286815
-0.1451155453450975,-0.1451155453450975
-0.15433535728547115,-0.15433535728547115
-0.20043441698733958,-0.20043441698733958
-0.29263253639107645,-0.29263253639107645
-0.37034237988851176,-0.37034237988851176
-0.364415357926843,-0.364415357926843
-0.28275416645496176,-0.28275416645496176
-0.21097134491919523,-0.21097134491919523
-0.21097134491919523,-0.21097134491919523
-0.2662902165614373,-0.2662902165614373
-0.334121690122758,-0.334121690122758
-0.40656306965426553,-0.40656306965426553
-0.4849314711474419,-0.4849314711474419
-0.5376161108067201,-0.5376161108067201
-0.5362989948152381,-0.5362989948152381
-0.5053467690154122,-0.5053467690154122
-0.4954683990792975,-0.4954683990792975
-0.5165422549430088,-0.5165422549430088
-0.5343233208280151,-0.5343233208280151
-0.5283962988663464,-0.5283962988663464
-0.5145665809557859,-0.5145665809557859
-0.5172008129387498,-0.5172008129387498
-0.5382746688024611,-0.5382746688024611
-0.5672512206150641,-0.5672512206150641
-0.5935935404447031,-0.5935935404447031
-0.6153259543041555,-0.6153259543041555
-0.6186187442828603,-0.6186187442828603
-0.598862004410631,-0.598862004410631
-0.5718611265852509,-0.5718611265852509
-0.5712025685895099,-0.5712025685895099
-0.6034719103808178,-0.6034719103808178
-0.6350826941763847,-0.6350826941763847
-0.6317899041976799,-0.6317899041976799
-0.6067647003595227,-0.6067647003595227
-0.5942520984404441,-0.5942520984404441
-0.6126917223211915,-0.6126917223211915
-0.6383754841550897,-0.6383754841550897
-0.6482538540912043,-0.6482538540912043
-0.6528637600613911,-0.6528637600613911
-0.65879078202306,-0.65879078202306
-0.6653763619804698,-0.6653763619804698
-0.6554979920443551,-0.6554979920443551
-0.6396926001465716,-0.6396926001465716
-0.6469367380997224,-0.6469367380997224
-0.6805231958825123,-0.6805231958825123
-0.6943529137930728,-0.6943529137930728
-0.6304727882061979,-0.6304727882061979
-0.5178593709344907,-0.5178593709344907
-0.4664918472666945,-0.4664918472666945
-0.5514458287172807,-0.5514458287172807
-0.7253051395928988,-0.7253051395928988
-0.8952131024940709,-0.8952131024940709
-1.0348273975911582,-1.0348273975911582
-1.188271410598806,-1.188271410598806
-1.2844208779769888,-1.2844208779769888
-1.0256075856507845,-1.0256075856507845
-0.06608858585618017,-0.06608858585618017
1.5052307919817922,1.5052307919817922
2.9639367525480576,2.9639367525480576
3.452586785387863,3.452586785387863
2.8012729276000363,2.8012729276000363
1.6336496011512829,1.6336496011512829
0.63461712161222,0.63461712161222
-0.06411291186895723,-0.06411291186895723
-0.6298142302104569,-0.6298142302104569
-1.0308760496167124,-1.0308760496167124
-1.073023761344135,-1.073023761344135
-0.8135519110221897,-0.8135519110221897
-0.5764710325554377,-0.5764710325554377
-0.5883250764787754,-0.5883250764787754
-0.7760141052649541,-0.7760141052649541
-0.9472391841576082,-0.9472391841576082
-1.00914363575726,-1.00914363575726
-0.9999238238168864,-0.9999238238168864
-0.985435547910585,-0.985435547910585
-0.9966310338381815,-0.9966310338381815
-1.014412099723188,-1.014412099723188
-1.007826519765778,-1.007826519765778
-0.9558004381022409,-0.9558004381022409
-0.8583338547325763,-0.8583338547325763
-0.747037553452351,-0.747037553452351
-0.6620835720017648,-0.6620835720017648
-0.6495709700826863,-0.6495709700826863
-0.6844745438569582,-0.6844745438569582
-0.7035727257334465,-0.7035727257334465
-0.6647178039847288,-0.6647178039847288
-0.5896421924702573,-0.5896421924702573
-0.5244449508919006,-0.5244449508919006
-0.4783458911900321,-0.4783458911900321
-0.423685577543531,-0.423685577543531
-0.3367559221057219,-0.3367559221057219
-0.24192357071902115,-0.24192357071902115
-0.17804344513214634,-0.17804344513214634
-0.15499391528121215,-0.15499391528121215
-0.1385299653876877,-0.1385299653876877
-0.100333601634711,-0.100333601634711
-0.04501472999246889,-0.04501472999246889
0.007669909666809319,0.007669909666809319
0.0669401292834973,0.0669401292834973
0.14991843674686048,0.14991843674686048
0.24475078813356127,0.24475078813356127
0.2934840798183936,0.2934840798183936
0.26319041201430865,0.26319041201430865
0.1788949885594635,0.1788949885594635
0.10250226105351008,0.10250226105351008
0.07418426723664805,0.07418426723664805
0.09591668109610031,0.09591668109610031
0.1374058348277819,0.1374058348277819
0.14991843674686048,0.14991843674686048
0.08142840518979881,0.08142840518979881
-0.0654300278604392,-0.0654300278604392
-0.22150827285105085,-0.22150827285105085
-0.2972424423612633,-0.2972424423612633
-0.2880226304208896,-0.2880226304208896
-0.2906568624038535,-0.2906568624038535
-0.39009911976074113,-0.39009911976074113
-0.542226016776907,-0.542226016776907
-0.6186187442828603,-0.6186187442828603
-0.5764710325554377,-0.5764710325554377
-0.5158836969472679,-0.5158836969472679
-0.539591784793943,-0.539591784793943
-0.6113746063297095,-0.6113746063297095
-0.6212529762658242,-0.6212529762658242
-0.540250342789684,-0.540250342789684
-0.44805222338594713,-0.44805222338594713
-0.42302701954779,-0.42302701954779
-0.45924770931354375,-0.45924770931354375
-0.4954683990792975,-0.4954683990792975
-0.481638681168737,-0.481638681168737
-0.41775855558186215,-0.41775855558186215
-0.35058564001628245,-0.35058564001628245
-0.3275361101653482,-0.3275361101653482
-0.3492685240248005,-0.3492685240248005
-0.3736351698672167,-0.3736351698672167
-0.3663910319140659,-0.3663910319140659
-0.33939015408868584,-0.33939015408868584
-0.3163406242377516,-0.3163406242377516
-0.3071208122973779,-0.3071208122973779
-0.30382802231867306,-0.30382802231867306
-0.3169991822334926,-0.3169991822334926
-0.37100093788425276,-0.37100093788425276
-0.47176031123262235,-0.47176031123262235
-0.5606656406576543,-0.5606656406576543
-0.5731782425767329,-0.5731782425767329
-0.5257620668833825,-0.5257620668833825
-0.5027125370324482,-0.5027125370324482
-0.5468359227470938,-0.5468359227470938
-0.5922764244532213,-0.5922764244532213
-0.6173016282913784,-0.6173016282913784
-0.6660349199762107,-0.6660349199762107
-0.7397934154992003,-0.7397934154992003
-0.7503303434310559,-0.7503303434310559
-0.6811817538782533,-0.6811817538782533
-0.6410097161380536,-0.6410097161380536
-0.6772304059038075,-0.6772304059038075
-0.690401565818627,-0.690401565818627
-0.6238872082487882,-0.6238872082487882
-0.5672512206150641,-0.5672512206150641
-0.5771295905511787,-0.5771295905511787
-0.5547386186959855,-0.5547386186959855
-0.4111729756244524,-0.4111729756244524
-0.21097134491919523,-0.21097134491919523
0.029402323526261577,0.029402323526261577
0.5766640179870139,0.5766640179870139
1.749555808401695,1.749555808401695
3.3123139322950346,3.3123139322950346
4.334395941685032,4.334395941685032
3.9912872259039824,3.9912872259039824
2.5292884753590124,2.5292884753590124
1.067948282809783,1.067948282809783
0.37119392331582896,0.37119392331582896
0.19535893845298793,0.19535893845298793
0.012938373632737138,0.012938373632737138
-0.16355516922584484,-0.16355516922584484
-0.051600309949878666,-0.051600309949878666
0.2177499103081812,0.2177499103081812
0.2467264621207842,0.2467264621207842
-0.023940874128757606,-0.023940874128757606
-0.28209560845922077,-0.28209560845922077
-0.3453171760503546,-0.3453171760503546
-0.3229262041951614,-0.3229262041951614
-0.34202438607164976,-0.34202438607164976
-0.3756108438544396,-0.3756108438544396
-0.3729766118714757,-0.3729766118714757
-0.3677081479055479,-0.3677081479055479
-0.40985585963297044,-0.40985585963297044
-0.4941512830878156,-0.4941512830878156
-0.5573728506789494,-0.5573728506789494
-0.5771295905511787,-0.5771295905511787
-0.5652755466278412,-0.5652755466278412
-0.5632998726406182,-0.5632998726406182
-0.5494701547300577,-0.5494701547300577
-0.49810263106226144,-0.49810263106226144
-0.4342225054753866,-0.4342225054753866
-0.422368461552049,-0.422368461552049
-0.4612233833007667,-0.4612233833007667
-0.4757116592070682,-0.4757116592070682
-0.394709025730928,-0.394709025730928
-0.2379722227445753,-0.2379722227445753
-0.08189397775396363,-0.08189397775396363
0.018206837598664958,0.018206837598664958
0.08076984719405783,0.08076984719405783
0.16308959666168002,0.16308959666168002
0.2855813838695019,0.2855813838695019
0.41004884506454664,0.41004884506454664
0.48841724655772295,0.48841724655772295
0.5239793783277358,0.5239793783277358
0.5615171840849714,0.5615171840849714
0.6286900996505512,0.6286900996505512
0.7031071531692816,0.7031071531692816
0.7531575608455958,0.7531575608455958
0.776865648692271,0.776865648692271
0.8058422005048741,0.8058422005048741
0.8512827022110016,0.8512827022110016
0.8842106019980505,0.8842106019980505
0.8644538621258211,0.8644538621258211
0.7887196926156087,0.7887196926156087
0.6846675292885342,0.6846675292885342
0.5799568079657188,0.5799568079657188
0.4752460866429034,0.4752460866429034
0.3639497853626782,0.3639497853626782
0.2612147380270857,0.2612147380270857
0.1874562425040962,0.1874562425040962
0.14201574079796875,0.14201574079796875
0.0932824491131364,0.0932824491131364
0.014914047619960073,0.014914047619960073
-0.08452820973692754,-0.08452820973692754
-0.1727749811662185,-0.1727749811662185
-0.2412650127232802,-0.2412650127232802
-0.2992181163484862,-0.2992181163484862
-0.35058564001628245,-0.35058564001628245
-0.37956219182888545,-0.37956219182888545
-0.38944056176500014,-0.38944056176500014
-0.4111729756244524,-0.4111729756244524
-0.46912607924965843,-0.46912607924965843
-0.5244449508919006,-0.5244449508919006
-0.5060053270111532,-0.5060053270111532
-0.3881234457735182,-0.3881234457735182
-0.2406064547275392,-0.2406064547275392
-0.15301824129398922,-0.15301824129398922
-0.14840833532380238,-0.14840833532380238
-0.16948219118751362,-0.16948219118751362
-0.1727749811662185,-0.1727749811662185
-0.16882363319177265,-0.16882363319177265
-0.16948219118751362,-0.16948219118751362
-0.14248131336213357,-0.14248131336213357
-0.07069849182636702,-0.07069849182636702
0.007669909666809319,0.007669909666809319
0.026768091543297668,0.026768091543297668
-0.002867018265046323,-0.002867018265046323
-0.009452598222456098,-0.009452598222456098
0.07023291926220218,0.07023291926220218
0.16967517661908982,0.16967517661908982
0.1848220105211323,0.1848220105211323
0.12884458088314918,0.12884458088314918
0.11567342096832964,0.11567342096832964
0.15452834271704732,0.15452834271704732
0.12752746489166725,0.12752746489166725
0.03730501947515331,0.03730501947515331
0.027426649539038644,0.027426649539038644
0.105136493036474,0.105136493036474
0.11172207299388377,0.11172207299388377
0.06957436126646122,0.06957436126646122
0.22104270028688608,0.22104270028688608
0.5713955540210861,0.5713955540210861
0.8137448964537658,0.8137448964537658
0.9428222636189975,0.9428222636189975
1.4999623280158645,1.4999623280158645
2.770979259795951,2.770979259795951
4.052533119507894,4.052533119507894
4.2191482924303605,4.2191482924303605
2.977766470458618,2.977766470458618
1.2016355559452017,1.2016355559452017
-0.026575106111721515,-0.026575106111721515
-0.42961259950519975,-0.42961259950519975
-0.4671504052624355,-0.4671504052624355
-0.5297134148578284,-0.5297134148578284
-0.5244449508919006,-0.5244449508919006
-0.27419291251032907,-0.27419291251032907
0.05837887533886459,0.05837887533886459
0.1762607565764996,0.1762607565764996
0.07813561521109391,0.07813561521109391
-0.012745388201160985,-0.012745388201160985
-0.00615980824375121,-0.00615980824375121
0.005694235679586386,0.005694235679586386
-0.012745388201160985,-0.012745388201160985
-0.006818366239492188,-0.006818366239492188
0.0287437655305206,0.0287437655305206
0.03269511350496647,0.03269511350496647
0.004377119688104431,0.004377119688104431
-0.021306642145793694,-0.021306642145793694
-0.024599432124498583,-0.024599432124498583
-0.02262375813727565,-0.02262375813727565
0.02610953354755669,0.02610953354755669
0.12950313887889017,0.12950313887889017
0.24211655615059735,0.24211655615059735
0.3059966817374722,0.3059966817374722
0.3250948636139605,0.3250948636139605
0.3468272774734128,0.3468272774734128
0.39819480114120903,0.39819480114120903
0.4726118546599395,0.4726118546599395
0.5569072781147846,0.5569072781147846
0.6392270275824068,0.6392270275824068
0.7083756171352094,0.7083756171352094
0.751181886858373,0.751181886858373
0.7729143007178252,0.7729143007178252
0.7860854606326447,0.7860854606326447
0.8032079685219101,0.8032079685219101
0.8242818243856215,0.8242818243856215
0.8427214482663689,0.8427214482663689
0.8446971222535917,0.8446971222535917
0.8229647083941395,0.8229647083941395
0.7715971847263432,0.7715971847263432
0.6991558051948357,0.6991558051948357
0.6247387516761053,0.6247387516761053
0.5713955540210861,0.5713955540210861
0.546370350182929,0.546370350182929
0.5358334222510733,0.5358334222510733
0.5154181243831031,0.5154181243831031
0.4647091587110478,0.4647091587110478
0.37053536532008796,0.37053536532008796
0.2500192520994891,0.2500192520994891
0.15847969069149317,0.15847969069149317
0.15123555273834244,0.15123555273834244
0.21314000433799435,0.21314000433799435
0.2671417599887545,0.2671417599887545
0.25331204207819397,0.25331204207819397
0.20918865636354847,0.20918865636354847
0.2085300983678075,0.2085300983678075
0.2645075280057906,0.2645075280057906
0.2967768697970985,0.2967768697970985
0.24409223013782028,0.24409223013782028
0.14925987875111948,0.14925987875111948
0.11896621094703452,0.11896621094703452
0.1788949885594635,0.1788949885594635
0.24606790412504323,0.24606790412504323
0.2348724181974466,0.2348724181974466
0.17230940860205374,0.17230940860205374
0.14267429879370971,0.14267429879370971
0.1736265245935357,0.1736265245935357
