ECG,PPG
-0.3180824412091865,-0.3180824412091865
0.11563806971402583,0.11563806971402583
-0.3180824412091865,-0.3180824412091865
-0.5579386163774596,-0.5579386163774596
-0.3180824412091865,-0.3180824412091865
-0.1090815507106184,-0.1090815507106184
-0.14925163829947968,-0.14925163829947968
-0.18301779888142103,-0.18301779888142103
-0.06483623684462626,-0.06483623684462626
0.07197493103048097,0.07197493103048097
0.18840996751993394,0.18840996751993394
0.3339537631317501,0.3339537631317501
0.4410739967020469,0.4410739967020469
0.3723773251732696,0.3723773251732696
0.18840996751993394,0.18840996751993394
0.0713927558480337,0.0713927558480337
0.10399456606508053,0.10399456606508053
0.18025951496567222,0.18025951496567222
0.18840996751993394,0.18840996751993394
0.10981631788955318,0.10981631788955318
0.019579164610227132,0.019579164610227132
-0.03747400326960482,-0.03747400326960482
-0.06483623684462626,-0.06483623684462626
-0.10849937552817113,-0.10849937552817113
-0.14925163829947968,-0.14925163829947968
-0.1870930251585519,-0.1870930251585519
-0.23366703975433306,-0.23366703975433306
-0.32390419303365914,-0.32390419303365914
-0.40191566748159263,-0.40191566748159263
-0.407155244123618,-0.407155244123618
-0.3180824412091865,-0.3180824412091865
-0.23599574048412214,-0.23599574048412214
-0.23366703975433306,-0.23366703975433306
-0.29712413464108495,-0.29712413464108495
-0.3180824412091865,-0.3180824412091865
-0.30236371128311035,-0.30236371128311035
-0.3180824412091865,-0.3180824412091865
-0.418216572590116,-0.418216572590116
-0.486331068936446,-0.486331068936446
-0.47294103974015894,-0.47294103974015894
-0.40191566748159263,-0.40191566748159263
-0.3640742806225204,-0.3640742806225204
-0.3180824412091865,-0.3180824412091865
-0.2814054047150088,-0.2814054047150088
-0.3180824412091865,-0.3180824412091865
-0.4368461784284285,-0.4368461784284285
-0.486331068936446,-0.486331068936446
-0.4502362076247156,-0.4502362076247156
-0.486331068936446,-0.486331068936446
-0.6836884557860687,-0.6836884557860687
-0.8239926747558596,-0.8239926747558596
-0.7448168499430315,-0.7448168499430315
-0.486331068936446,-0.486331068936446
-0.07473321494622977,-0.07473321494622977
0.6943202010666071,0.6943202010666071
1.835383558663246,1.835383558663246
3.0562049162551603,3.0562049162551603
4.101209368748001,4.101209368748001
4.996012624169447,4.996012624169447
5.526956390561353,5.526956390561353
5.164843427079155,5.164843427079155
3.7414251059955914,3.7414251059955914
1.9593868725245136,1.9593868725245136
0.634938332456986,0.634938332456986
-0.06483623684462626,-0.06483623684462626
-0.42636702514437774,-0.42636702514437774
-0.486331068936446,-0.486331068936446
-0.16264166749576675,-0.16264166749576675
0.35724077042964075,0.35724077042964075
0.6745262448634001,0.6745262448634001
0.6943202010666071,0.6943202010666071
0.5912751937734412,0.5912751937734412
0.5254893981569003,0.5254893981569003
0.48124408429090815,0.48124408429090815
0.4410739967020469,0.4410739967020469
0.3758703762679532,0.3758703762679532
0.2728253689747873,0.2728253689747873
0.14183595292415274,0.14183595292415274
0.10399456606508053,0.10399456606508053
0.1726912375938578,0.1726912375938578
0.2728253689747873,0.2728253689747873
0.26583926678542014,0.26583926678542014
0.18840996751993394,0.18840996751993394
0.08944018650389891,0.08944018650389891
0.019579164610227132,0.019579164610227132
-0.04504228064141926,-0.04504228064141926
-0.06483623684462626,-0.06483623684462626
-0.0130226456068197,-0.0130226456068197
0.10399456606508053,0.10399456606508053
0.18608126679014486,0.18608126679014486
0.18840996751993394,0.18840996751993394
0.12902809891031292,0.12902809891031292
0.10399456606508053,0.10399456606508053
0.10806979234221138,0.10806979234221138
0.10399456606508053,0.10399456606508053
0.0731392813953755,0.0731392813953755
0.10399456606508053,0.10399456606508053
0.19481389452685385,0.19481389452685385
0.2728253689747873,0.2728253689747873
0.2704966682449983,0.2704966682449983
0.2728253689747873,0.2728253689747873
0.31532415729343766,0.31532415729343766
0.35724077042964075,0.35724077042964075
0.34210421568601185,0.34210421568601185
0.35724077042964075,0.35724077042964075
0.41836916458660356,0.41836916458660356
0.4410739967020469,0.4410739967020469
0.3485081426929318,0.3485081426929318
0.2728253689747873,0.2728253689747873
0.3188172083881213,0.3188172083881213
0.4410739967020469,0.4410739967020469
0.4771688580137773,0.4771688580137773
0.4410739967020469,0.4410739967020469
0.43641659524246873,0.43641659524246873
0.5254893981569003,0.5254893981569003
0.6046652229697282,0.6046652229697282
0.6099047996117537,0.6099047996117537
0.5516872813670272,0.5516872813670272
0.5254893981569003,0.5254893981569003
0.54470117917766,0.54470117917766
0.6099047996117537,0.6099047996117537
0.7059637047155524,0.7059637047155524
0.8631510039763138,0.8631510039763138
1.0028730477636574,1.0028730477636574
1.0319818068860207,1.0319818068860207
0.9231150477683822,0.9231150477683822
0.8631510039763138,0.8631510039763138
0.997633471121632,0.997633471121632
1.2846458360681337,1.2846458360681337
1.476763646275731,1.476763646275731
1.4534766389778404,1.4534766389778404
1.2893032375277118,1.2893032375277118
1.2002304346132802,1.2002304346132802
1.2759132083314246,1.2759132083314246
1.4534766389778404,1.4534766389778404
1.5355633397029047,1.5355633397029047
1.4534766389778404,1.4534766389778404
1.3283089747516785,1.3283089747516785
1.369061237522987,1.369061237522987
1.5349811645204574,1.5349811645204574
1.6223074418875472,1.6223074418875472
1.5355633397029047,1.5355633397029047
1.4534766389778404,1.4534766389778404
1.465702317809233,1.465702317809233
1.4534766389778404,1.4534766389778404
1.2893032375277118,1.2893032375277118
1.115815033158427,1.115815033158427
1.0570153397312532,1.0570153397312532
1.0319818068860207,1.0319818068860207
0.8835271353619681,0.8835271353619681
0.6943202010666071,0.6943202010666071
0.584289091584074,0.584289091584074
0.5254893981569003,0.5254893981569003
0.3805277777275313,0.3805277777275313
0.18840996751993394,0.18840996751993394
0.03646224490119781,0.03646224490119781
-0.06483623684462626,-0.06483623684462626
-0.19407912734791907,-0.19407912734791907
-0.3180824412091865,-0.3180824412091865
-0.40948394485340706,-0.40948394485340706
-0.486331068936446,-0.486331068936446
-0.5922869521418482,-0.5922869521418482
-0.6551618718461528,-0.6551618718461528
-0.6609836236706255,-0.6609836236706255
-0.6551618718461528,-0.6551618718461528
-0.6813597550562798,-0.6813597550562798
-0.6551618718461528,-0.6551618718461528
-0.5841364995875865,-0.5841364995875865
-0.5707464703912994,-0.5707464703912994
-0.6726271273195708,-0.6726271273195708
-0.7395772733010062,-0.7395772733010062
-0.6999893608945922,-0.6999893608945922
-0.6551618718461528,-0.6551618718461528
-0.7320089959291918,-0.7320089959291918
-0.8239926747558596,-0.8239926747558596
-0.8129313462893616,-0.8129313462893616
-0.7395772733010062,-0.7395772733010062
-0.750056426585057,-0.750056426585057
-0.8239926747558596,-0.8239926747558596
-0.8606697112500373,-0.8606697112500373
-0.8239926747558596,-0.8239926747558596
-0.8012878426404163,-0.8012878426404163
-0.8239926747558596,-0.8239926747558596
-0.8723132148989826,-0.8723132148989826
-0.9084080762107131,-0.9084080762107131
-0.9532355652591524,-0.9532355652591524
-0.9928234776655664,-0.9928234776655664
-0.9899126017533301,-0.9899126017533301
-0.9084080762107131,-0.9084080762107131
-0.8257392003032014,-0.8257392003032014
-0.8239926747558596,-0.8239926747558596
-0.8938536966495314,-0.8938536966495314
-0.9084080762107131,-0.9084080762107131
-0.8501905579659865,-0.8501905579659865
-0.8239926747558596,-0.8239926747558596
-0.9095724265756076,-0.9095724265756076
-0.9928234776655664,-0.9928234776655664
-0.9776869229219375,-0.9776869229219375
-0.9084080762107131,-0.9084080762107131
-0.8967645725617677,-0.8967645725617677
-0.9084080762107131,-0.9084080762107131
-0.8804636674532443,-0.8804636674532443
-0.8239926747558596,-0.8239926747558596
-0.8135135214718089,-0.8135135214718089
-0.8239926747558596,-0.8239926747558596
-0.8257392003032014,-0.8257392003032014
-0.8239926747558596,-0.8239926747558596
-0.8426222805941721,-0.8426222805941721
-0.8239926747558596,-0.8239926747558596
-0.7663573316935804,-0.7663573316935804
-0.7395772733010062,-0.7395772733010062
-0.7943017404510491,-0.7943017404510491
-0.8239926747558596,-0.8239926747558596
-0.7558781784095296,-0.7558781784095296
-0.6551618718461528,-0.6551618718461528
-0.6557440470286001,-0.6557440470286001
-0.7395772733010062,-0.7395772733010062
-0.8187530981138342,-0.8187530981138342
-0.8239926747558596,-0.8239926747558596
-0.7646108061462386,-0.7646108061462386
-0.6551618718461528,-0.6551618718461528
-0.5922869521418482,-0.5922869521418482
-0.6551618718461528,-0.6551618718461528
-0.7954660908159437,-0.7954660908159437
-0.8239926747558596,-0.8239926747558596
-0.7203654922802465,-0.7203654922802465
-0.6551618718461528,-0.6551618718461528
-0.7424881492132426,-0.7424881492132426
-0.8239926747558596,-0.8239926747558596
-0.7663573316935804,-0.7663573316935804
-0.6551618718461528,-0.6551618718461528
-0.6638944995828617,-0.6638944995828617
-0.7395772733010062,-0.7395772733010062
-0.7407416236659008,-0.7407416236659008
-0.6551618718461528,-0.6551618718461528
-0.6406074922849712,-0.6406074922849712
-0.7395772733010062,-0.7395772733010062
-0.8426222805941721,-0.8426222805941721
-0.8239926747558596,-0.8239926747558596
-0.7494742514026097,-0.7494742514026097
-0.7395772733010062,-0.7395772733010062
-0.8106026455595725,-0.8106026455595725
-0.8239926747558596,-0.8239926747558596
-0.741323798848348,-0.741323798848348
-0.6551618718461528,-0.6551618718461528
-0.6551618718461528,-0.6551618718461528
-0.6551618718461528,-0.6551618718461528
-0.6056769813381353,-0.6056769813381353
-0.5707464703912994,-0.5707464703912994
-0.6231422368115532,-0.6231422368115532
-0.6551618718461528,-0.6551618718461528
-0.6103343827977135,-0.6103343827977135
-0.5707464703912994,-0.5707464703912994
-0.6231422368115532,-0.6231422368115532
-0.6551618718461528,-0.6551618718461528
-0.6062591565205826,-0.6062591565205826
-0.5707464703912994,-0.5707464703912994
-0.6330392149131567,-0.6330392149131567
-0.6551618718461528,-0.6551618718461528
-0.5649247185668268,-0.5649247185668268
-0.486331068936446,-0.486331068936446
-0.5381446601742526,-0.5381446601742526
-0.5707464703912994,-0.5707464703912994
-0.46246188645610814,-0.46246188645610814
-0.3180824412091865,-0.3180824412091865
-0.30178153610066305,-0.30178153610066305
-0.3180824412091865,-0.3180824412091865
-0.22609876238251864,-0.22609876238251864
-0.06483623684462626,-0.06483623684462626
0.013757412785754482,0.013757412785754482
0.019579164610227132,0.019579164610227132
-0.0025434923227689323,-0.0025434923227689323
-0.06483623684462626,-0.06483623684462626
-0.18243562369897376,-0.18243562369897376
-0.23366703975433306,-0.23366703975433306
-0.1835999740638683,-0.1835999740638683
-0.14925163829947968,-0.14925163829947968
-0.23366703975433306,-0.23366703975433306
-0.3180824412091865,-0.3180824412091865
-0.29654195945863765,-0.29654195945863765
-0.23366703975433306,-0.23366703975433306
-0.25986492296446,-0.25986492296446
-0.3180824412091865,-0.3180824412091865
-0.30352806164800483,-0.30352806164800483
-0.23366703975433306,-0.23366703975433306
-0.2610292733293545,-0.2610292733293545
-0.40191566748159263,-0.40191566748159263
-0.523590280613071,-0.523590280613071
-0.486331068936446,-0.486331068936446
-0.3664029813523095,-0.3664029813523095
-0.3180824412091865,-0.3180824412091865
-0.4001691419342508,-0.4001691419342508
-0.486331068936446,-0.486331068936446
-0.5288298572550963,-0.5288298572550963
-0.5707464703912994,-0.5707464703912994
-0.6557440470286001,-0.6557440470286001
-0.6551618718461528,-0.6551618718461528
-0.5829721492226919,-0.5829721492226919
-0.5707464703912994,-0.5707464703912994
-0.6918389083403305,-0.6918389083403305
-0.7395772733010062,-0.7395772733010062
-0.6213957112642114,-0.6213957112642114
-0.486331068936446,-0.486331068936446
-0.48516671857155147,-0.48516671857155147
-0.486331068936446,-0.486331068936446
-0.43393530251619217,-0.43393530251619217
-0.486331068936446,-0.486331068936446
-0.7209476674626938,-0.7209476674626938
-0.8239926747558596,-0.8239926747558596
-0.5620138426545904,-0.5620138426545904
-0.06483623684462626,-0.06483623684462626
0.4818262594733554,0.4818262594733554
1.2846458360681337,1.2846458360681337
2.553787733803171,2.553787733803171
4.068025383348507,4.068025383348507
5.281278463568607,5.281278463568607
5.839584463535534,5.839584463535534
5.615447018293337,5.615447018293337
4.658351018350033,4.658351018350033
3.2355148724489182,3.2355148724489182
1.8749714710696601,1.8749714710696601
0.9242793981332766,0.9242793981332766
0.35724077042964075,0.35724077042964075
0.00618913541394004,0.00618913541394004
-0.06483623684462626,-0.06483623684462626
0.19830694562153744,0.19830694562153744
0.6099047996117537,0.6099047996117537
0.8311313689417144,0.8311313689417144
0.7787356025214605,0.7787356025214605
0.593021719320783,0.593021719320783
0.4410739967020469,0.4410739967020469
0.3362824638615392,0.3362824638615392
0.2728253689747873,0.2728253689747873
0.24429878503487135,0.24429878503487135
0.2728253689747873,0.2728253689747873
0.2914549748130998,0.2914549748130998
0.2728253689747873,0.2728253689747873
0.2052930478109046,0.2052930478109046
0.18840996751993394,0.18840996751993394
0.2204296025545335,0.2204296025545335
0.2728253689747873,0.2728253689747873
0.2745718945221291,0.2745718945221291
0.2728253689747873,0.2728253689747873
0.27573624488702364,0.27573624488702364
0.2728253689747873,0.2728253689747873
0.24895618649444948,0.24895618649444948
0.2728253689747873,0.2728253689747873
0.30775587992162323,0.30775587992162323
0.2728253689747873,0.2728253689747873
0.17094471204651598,0.17094471204651598
0.18840996751993394,0.18840996751993394
0.34035769013867007,0.34035769013867007
0.4410739967020469,0.4410739967020469
0.35724077042964075,0.35724077042964075
0.2728253689747873,0.2728253689747873
0.3333715879493029,0.3333715879493029
0.4410739967020469,0.4410739967020469
0.4189513397690508,0.4189513397690508
0.35724077042964075,0.35724077042964075
0.3758703762679532,0.3758703762679532
0.4410739967020469,0.4410739967020469
0.43816312078981057,0.43816312078981057
0.4410739967020469,0.4410739967020469
0.49579846385208975,0.49579846385208975
0.5254893981569003,0.5254893981569003
0.45621055144567574,0.45621055144567574
0.4410739967020469,0.4410739967020469
0.562166434651078,0.562166434651078
0.6943202010666071,0.6943202010666071
0.6733618944985056,0.6733618944985056
0.6099047996117537,0.6099047996117537
0.6279522302676189,0.6279522302676189
0.6943202010666071,0.6943202010666071
0.6908271499719235,0.6908271499719235
0.6943202010666071,0.6943202010666071
0.7670920988725152,0.7670920988725152
0.8631510039763138,0.8631510039763138
0.8910954127337826,0.8910954127337826
0.9475664054311673,0.9475664054311673
1.0773914711169073,1.0773914711169073
1.2002304346132802,1.2002304346132802
1.2077987119850946,1.2077987119850946
1.2002304346132802,1.2002304346132802
1.2450579236617196,1.2450579236617196
1.2846458360681337,1.2846458360681337
1.2299213689180908,1.2299213689180908
1.2002304346132802,1.2002304346132802
1.2927962886223954,1.2927962886223954
1.4534766389778404,1.4534766389778404
1.5285772375135376,1.5285772375135376
1.537892040432694,1.537892040432694
1.557685996635901,1.557685996635901
1.6223074418875472,1.6223074418875472
1.6665527557535393,1.6665527557535393
1.7067228433424007,1.7067228433424007
1.75795425939776,1.75795425939776
1.791138244797254,1.791138244797254
1.6846001864094045,1.6846001864094045
1.4534766389778404,1.4534766389778404
1.2584479528580066,1.2584479528580066
1.2846458360681337,1.2846458360681337
1.433100507592186,1.433100507592186
1.4534766389778404,1.4534766389778404
1.22584614264096,1.22584614264096
0.9475664054311673,0.9475664054311673
0.7816464784336968,0.7816464784336968
0.6943202010666071,0.6943202010666071
0.562166434651078,0.562166434651078
0.4410739967020469,0.4410739967020469
0.36830209889613874,0.36830209889613874
0.2728253689747873,0.2728253689747873
0.0812897339496372,0.0812897339496372
-0.06483623684462626,-0.06483623684462626
-0.08055496677070242,-0.08055496677070242
-0.06483623684462626,-0.06483623684462626
-0.17195647041492299,-0.17195647041492299
-0.3180824412091865,-0.3180824412091865
-0.3902721638326473,-0.3902721638326473
-0.40191566748159263,-0.40191566748159263
-0.45256490835450464,-0.45256490835450464
-0.486331068936446,-0.486331068936446
-0.4548936090842937,-0.4548936090842937
-0.40191566748159263,-0.40191566748159263
-0.43102442660395585,-0.43102442660395585
-0.486331068936446,-0.486331068936446
-0.5003032733151803,-0.5003032733151803
-0.486331068936446,-0.486331068936446
-0.5474594630934089,-0.5474594630934089
-0.6551618718461528,-0.6551618718461528
-0.7122150397259848,-0.7122150397259848
-0.6551618718461528,-0.6551618718461528
-0.5788969229455612,-0.5788969229455612
-0.5707464703912994,-0.5707464703912994
-0.6330392149131567,-0.6330392149131567
-0.6551618718461528,-0.6551618718461528
-0.6144096090748443,-0.6144096090748443
-0.5707464703912994,-0.5707464703912994
-0.6016017550610044,-0.6016017550610044
-0.6551618718461528,-0.6551618718461528
-0.6749558280493598,-0.6749558280493598
-0.6551618718461528,-0.6551618718461528
-0.6528331711163637,-0.6528331711163637
-0.6551618718461528,-0.6551618718461528
-0.6563262222110473,-0.6563262222110473
-0.6551618718461528,-0.6551618718461528
-0.6691340762248872,-0.6691340762248872
-0.6551618718461528,-0.6551618718461528
-0.631292689365815,-0.631292689365815
-0.6551618718461528,-0.6551618718461528
-0.754713828044635,-0.754713828044635
-0.8239926747558596,-0.8239926747558596
-0.8047808937350999,-0.8047808937350999
-0.7395772733010062,-0.7395772733010062
-0.7052289375366176,-0.7052289375366176
-0.6551618718461528,-0.6551618718461528
-0.5649247185668268,-0.5649247185668268
-0.486331068936446,-0.486331068936446
-0.503796324409864,-0.503796324409864
-0.5707464703912994,-0.5707464703912994
-0.6295461638184732,-0.6295461638184732
-0.6551618718461528,-0.6551618718461528
-0.6516688207514693,-0.6516688207514693
-0.5707464703912994,-0.5707464703912994
-0.4735232149226062,-0.4735232149226062
-0.486331068936446,-0.486331068936446
-0.6388609667376294,-0.6388609667376294
-0.7395772733010062,-0.7395772733010062
-0.6813597550562798,-0.6813597550562798
-0.5707464703912994,-0.5707464703912994
-0.5788969229455612,-0.5788969229455612
-0.6551618718461528,-0.6551618718461528
-0.6883458572456469,-0.6883458572456469
-0.6551618718461528,-0.6551618718461528
-0.6225600616291059,-0.6225600616291059
-0.5707464703912994,-0.5707464703912994
-0.5067072003221003,-0.5067072003221003
-0.486331068936446,-0.486331068936446
-0.5468772879109616,-0.5468772879109616
-0.5707464703912994,-0.5707464703912994
-0.49681022222049676,-0.49681022222049676
-0.40191566748159263,-0.40191566748159263
-0.4170522222252215,-0.4170522222252215
-0.486331068936446,-0.486331068936446
-0.4927349959433659,-0.4927349959433659
-0.40191566748159263,-0.40191566748159263
-0.3273972441283427,-0.3273972441283427
-0.3180824412091865,-0.3180824412091865
-0.339040747777288,-0.339040747777288
-0.3180824412091865,-0.3180824412091865
-0.290720207634165,-0.290720207634165
-0.3180824412091865,-0.3180824412091865
-0.41588787186032694,-0.41588787186032694
-0.486331068936446,-0.486331068936446
-0.47585191565239526,-0.47585191565239526
-0.40191566748159263,-0.40191566748159263
-0.3471912003315497,-0.3471912003315497
-0.3180824412091865,-0.3180824412091865
-0.3122606893847138,-0.3122606893847138
-0.3180824412091865,-0.3180824412091865
-0.3355476966826044,-0.3355476966826044
-0.3180824412091865,-0.3180824412091865
-0.29479543391129587,-0.29479543391129587
-0.3180824412091865,-0.3180824412091865
-0.39434739010977815,-0.39434739010977815
-0.40191566748159263,-0.40191566748159263
-0.3157537404793974,-0.3157537404793974
-0.23366703975433306,-0.23366703975433306
-0.25986492296446,-0.25986492296446
-0.3180824412091865,-0.3180824412091865
-0.3326368207703681,-0.3326368207703681
-0.3180824412091865,-0.3180824412091865
-0.3320546455879208,-0.3320546455879208
-0.3180824412091865,-0.3180824412091865
-0.2616114485118018,-0.2616114485118018
-0.23366703975433306,-0.23366703975433306
-0.2942132587288486,-0.2942132587288486
-0.3180824412091865,-0.3180824412091865
-0.19931870398994445,-0.19931870398994445
0.019579164610227132,0.019579164610227132
0.18666344197259213,0.18666344197259213
0.2728253689747873,0.2728253689747873
0.29553020109023065,0.29553020109023065
0.2728253689747873,0.2728253689747873
0.20762174854069368,0.20762174854069368
0.18840996751993394,0.18840996751993394
0.23090875583858428,0.23090875583858428
0.2728253689747873,0.2728253689747873
0.2384770332103987,0.2384770332103987
0.18840996751993394,0.18840996751993394
0.1540616317555453,0.1540616317555453
0.10399456606508053,0.10399456606508053
-0.0007969667754271379,-0.0007969667754271379
-0.06483623684462626,-0.06483623684462626
-0.038056178452052086,-0.038056178452052086
0.019579164610227132,0.019579164610227132
-0.0025434923227689323,-0.0025434923227689323
-0.06483623684462626,-0.06483623684462626
-0.09219847041964771,-0.09219847041964771
-0.06483623684462626,-0.06483623684462626
-0.054939258743022766,-0.054939258743022766
-0.06483623684462626,-0.06483623684462626
-0.07415103976378251,-0.07415103976378251
-0.06483623684462626,-0.06483623684462626
-0.08754106896006959,-0.08754106896006959
-0.14925163829947968,-0.14925163829947968
-0.24356401785593657,-0.24356401785593657
-0.3180824412091865,-0.3180824412091865
-0.378628660183702,-0.378628660183702
-0.40191566748159263,-0.40191566748159263
-0.3931830397448836,-0.3931830397448836
-0.3180824412091865,-0.3180824412091865
-0.270926251430958,-0.270926251430958
-0.3180824412091865,-0.3180824412091865
-0.4449966309826902,-0.4449966309826902
-0.486331068936446,-0.486331068936446
-0.40890176967095976,-0.40890176967095976
-0.3180824412091865,-0.3180824412091865
-0.3099319886549248,-0.3099319886549248
-0.3180824412091865,-0.3180824412091865
-0.34835555069644425,-0.34835555069644425
-0.486331068936446,-0.486331068936446
-0.6924210835227778,-0.6924210835227778
-0.6551618718461528,-0.6551618718461528
-0.22435223683517683,-0.22435223683517683
0.4410739967020469,0.4410739967020469
1.1530742448350517,1.1530742448350517
2.043802273979367,2.043802273979367
3.2098991644212385,3.2098991644212385
4.40568698916792,4.40568698916792
5.181144332187678,5.181144332187678
5.333674229988861,5.333674229988861
4.853379704469868,4.853379704469868
3.8153613541663938,3.8153613541663938
2.397764784907304,2.397764784907304
1.0319818068860207,1.0319818068860207
0.0929332375985825,0.0929332375985825
-0.3180824412091865,-0.3180824412091865
-0.3407872733246298,-0.3407872733246298
-0.06483623684462626,-0.06483623684462626
0.40032173393073833,0.40032173393073833
0.8631510039763138,0.8631510039763138
1.08321322294138,1.08321322294138
1.0319818068860207,1.0319818068860207
0.8445213981380014,0.8445213981380014
0.6943202010666071,0.6943202010666071
0.6011721718750447,0.6011721718750447
0.5254893981569003,0.5254893981569003
0.42302656604618166,0.42302656604618166
0.35724077042964075,0.35724077042964075
0.3613159967067716,0.3613159967067716
0.4410739967020469,0.4410739967020469
0.4847371353855917,0.4847371353855917
0.4410739967020469,0.4410739967020469
0.2803936463466018,0.2803936463466018
0.10399456606508053,0.10399456606508053
0.017832639062885337,0.017832639062885337
0.10399456606508053,0.10399456606508053
0.24313443466997683,0.24313443466997683
0.2728253689747873,0.2728253689747873
0.16337643467470153,0.16337643467470153
0.10399456606508053,0.10399456606508053
0.1738555879587523,0.1738555879587523
0.2728253689747873,0.2728253689747873
0.2751540697045764,0.2751540697045764
0.2728253689747873,0.2728253689747873
0.3217280843003576,0.3217280843003576
0.35724077042964075,0.35724077042964075
0.3001876025498088,0.3001876025498088
0.2728253689747873,0.2728253689747873
0.3246389602125939,0.3246389602125939
0.35724077042964075,0.35724077042964075
0.28563322298862714,0.28563322298862714
0.2728253689747873,0.2728253689747873
0.397410858018502,0.397410858018502
0.5254893981569003,0.5254893981569003
0.49812716458187883,0.49812716458187883
0.4410739967020469,0.4410739967020469
0.4730936317366464,0.4730936317366464
0.5254893981569003,0.5254893981569003
0.4748401572839882,0.4748401572839882
0.4410739967020469,0.4410739967020469
0.5167567704201913,0.5167567704201913
0.6099047996117537,0.6099047996117537
0.5714812375702342,0.5714812375702342
0.5254893981569003,0.5254893981569003
0.632609631727197,0.632609631727197
0.8631510039763138,0.8631510039763138
0.9900651937498176,0.9900651937498176
0.9475664054311673,0.9475664054311673
0.8060978360964819,0.8060978360964819
0.6943202010666071,0.6943202010666071
0.6442531353761423,0.6442531353761423
0.6943202010666071,0.6943202010666071
0.8101730623736128,0.8101730623736128
0.9475664054311673,0.9475664054311673
1.0383857338929405,1.0383857338929405
1.115815033158427,1.115815033158427
1.195573033153702,1.195573033153702
1.2846458360681337,1.2846458360681337
1.335877252123493,1.335877252123493
1.369061237522987,1.369061237522987
1.3993343470102448,1.3993343470102448
1.4534766389778404,1.4534766389778404
1.4779279966406256,1.4779279966406256
1.4534766389778404,1.4534766389778404
1.3894373689086412,1.3894373689086412
1.369061237522987,1.369061237522987
1.4010808725575865,1.4010808725575865
1.4534766389778404,1.4534766389778404
1.463373617079444,1.463373617079444
1.4534766389778404,1.4534766389778404
1.4226213543081354,1.4226213543081354
1.369061237522987,1.369061237522987
1.2776597338787665,1.2776597338787665
1.2002304346132802,1.2002304346132802
1.1297872375371611,1.1297872375371611
1.0319818068860207,1.0319818068860207
0.8846914857268626,0.8846914857268626
0.7787356025214605,0.7787356025214605
0.7344902886554684,0.7344902886554684
0.6943202010666071,0.6943202010666071
0.5778851645771541,0.5778851645771541
0.4410739967020469,0.4410739967020469
0.318235033205674,0.318235033205674
0.18840996751993394,0.18840996751993394
0.00502478504904551,0.00502478504904551
-0.14925163829947968,-0.14925163829947968
-0.2214413609229405,-0.2214413609229405
-0.23366703975433306,-0.23366703975433306
-0.27034407624851076,-0.27034407624851076
-0.3180824412091865,-0.3180824412091865
-0.3803751857310438,-0.3803751857310438
-0.486331068936446,-0.486331068936446
-0.6702984265897817,-0.6702984265897817
-0.8239926747558596,-0.8239926747558596
-0.8472796820537503,-0.8472796820537503
-0.7395772733010062,-0.7395772733010062
-0.6475935944743384,-0.6475935944743384
-0.6551618718461528,-0.6551618718461528
-0.7506386017675042,-0.7506386017675042
-0.8239926747558596,-0.8239926747558596
-0.8426222805941721,-0.8426222805941721
-0.8239926747558596,-0.8239926747558596
-0.8228283243909651,-0.8228283243909651
-0.8239926747558596,-0.8239926747558596
-0.829232251397885,-0.829232251397885
-0.8239926747558596,-0.8239926747558596
-0.7820760616196566,-0.7820760616196566
-0.6551618718461528,-0.6551618718461528
-0.5387268353566999,-0.5387268353566999
-0.5707464703912994,-0.5707464703912994
-0.7389950981185589,-0.7389950981185589
-0.8239926747558596,-0.8239926747558596
-0.7686860324233694,-0.7686860324233694
-0.7395772733010062,-0.7395772733010062
-0.8437866309590666,-0.8437866309590666
-0.9084080762107131,-0.9084080762107131
-0.8461153316888557,-0.8461153316888557
-0.8239926747558596,-0.8239926747558596
-0.9701186455501231,-0.9701186455501231
-1.0766567039379726,-1.0766567039379726
-0.9776869229219375,-0.9776869229219375
-0.8239926747558596,-0.8239926747558596
-0.8362183535872522,-0.8362183535872522
-0.9084080762107131,-0.9084080762107131
-0.8804636674532443,-0.8804636674532443
-0.8239926747558596,-0.8239926747558596
-0.8938536966495314,-0.8938536966495314
-0.9928234776655664,-0.9928234776655664
-0.9846730251113047,-0.9846730251113047
-0.9084080762107131,-0.9084080762107131
-0.8758062659936662,-0.8758062659936662
-0.8239926747558596,-0.8239926747558596
-0.7355020470238753,-0.7355020470238753
-0.7395772733010062,-0.7395772733010062
-0.9177228791298693,-0.9177228791298693
-1.0766567039379726,-1.0766567039379726
-1.0679240762012636,-1.0679240762012636
-0.9928234776655664,-0.9928234776655664
-1.024843112700166,-1.024843112700166
-1.0766567039379726,-1.0766567039379726
-0.9968987039426973,-0.9968987039426973
-0.8239926747558596,-0.8239926747558596
-0.7552960032270823,-0.7552960032270823
-0.8239926747558596,-0.8239926747558596
-0.9124833024878438,-0.9124833024878438
-0.9084080762107131,-0.9084080762107131
-0.8356361784048049,-0.8356361784048049
-0.7395772733010062,-0.7395772733010062
-0.6743736528669125,-0.6743736528669125
-0.6551618718461528,-0.6551618718461528
-0.690674557975436,-0.690674557975436
-0.7395772733010062,-0.7395772733010062
-0.7913908645388128,-0.7913908645388128
-0.8239926747558596,-0.8239926747558596
-0.820499623661176,-0.820499623661176
-0.7395772733010062,-0.7395772733010062
-0.6260531127237896,-0.6260531127237896
-0.5707464703912994,-0.5707464703912994
-0.659819273305731,-0.659819273305731
-0.8239926747558596,-0.8239926747558596
-0.9124833024878438,-0.9124833024878438
-0.8239926747558596,-0.8239926747558596
-0.6807775798738325,-0.6807775798738325
-0.6551618718461528,-0.6551618718461528
-0.7657751565111331,-0.7657751565111331
-0.8239926747558596,-0.8239926747558596
-0.7506386017675042,-0.7506386017675042
-0.6551618718461528,-0.6551618718461528
-0.6539975214812582,-0.6539975214812582
-0.6551618718461528,-0.6551618718461528
-0.5771503973982193,-0.5771503973982193
-0.486331068936446,-0.486331068936446
-0.5049606747747585,-0.5049606747747585
-0.5707464703912994,-0.5707464703912994
-0.5917047769594009,-0.5917047769594009
-0.5707464703912994,-0.5707464703912994
-0.5794790981280084,-0.5794790981280084
-0.5707464703912994,-0.5707464703912994
-0.5212615798832819,-0.5212615798832819
-0.486331068936446,-0.486331068936446
-0.5334872587146745,-0.5334872587146745
-0.5707464703912994,-0.5707464703912994
-0.5375624849918054,-0.5375624849918054
-0.486331068936446,-0.486331068936446
-0.514857652876362,-0.514857652876362
-0.5707464703912994,-0.5707464703912994
-0.6103343827977135,-0.6103343827977135
-0.6551618718461528,-0.6551618718461528
-0.7331733462940863,-0.7331733462940863
-0.7395772733010062,-0.7395772733010062
-0.6307105141833677,-0.6307105141833677
-0.486331068936446,-0.486331068936446
-0.40482654339382895,-0.40482654339382895
-0.3180824412091865,-0.3180824412091865
-0.18418214924631557,-0.18418214924631557
-0.06483623684462626,-0.06483623684462626
-0.02641267480310679,-0.02641267480310679
0.019579164610227132,0.019579164610227132
0.09700846387571335,0.09700846387571335
0.10399456606508053,0.10399456606508053
-0.02990572589779038,-0.02990572589779038
-0.14925163829947968,-0.14925163829947968
-0.1370259594680871,-0.1370259594680871
-0.06483623684462626,-0.06483623684462626
-0.05901448502015362,-0.05901448502015362
-0.06483623684462626,-0.06483623684462626
-0.040967054364288415,-0.040967054364288415
-0.06483623684462626,-0.06483623684462626
-0.20281175508462804,-0.20281175508462804
-0.3180824412091865,-0.3180824412091865
-0.3250685433985537,-0.3250685433985537
-0.3180824412091865,-0.3180824412091865
-0.4100661200358543,-0.4100661200358543
-0.486331068936446,-0.486331068936446
-0.4327709521512976,-0.4327709521512976
-0.3180824412091865,-0.3180824412091865
-0.31167851420226655,-0.31167851420226655
-0.40191566748159263,-0.40191566748159263
-0.4979745725853913,-0.4979745725853913
-0.5707464703912994,-0.5707464703912994
-0.6959141346174613,-0.6959141346174613
-0.8239926747558596,-0.8239926747558596
-0.8571766601553537,-0.8571766601553537
-0.7395772733010062,-0.7395772733010062
-0.6324570397307094,-0.6324570397307094
-0.6551618718461528,-0.6551618718461528
-0.7849869375318929,-0.7849869375318929
-0.8239926747558596,-0.8239926747558596
-0.7419059740307953,-0.7419059740307953
-0.6551618718461528,-0.6551618718461528
-0.6365322660078403,-0.6365322660078403
-0.5707464703912994,-0.5707464703912994
-0.4612975360912136,-0.4612975360912136
-0.486331068936446,-0.486331068936446
-0.72385854337493,-0.72385854337493
-0.9084080762107131,-0.9084080762107131
-0.8385470543170412,-0.8385470543170412
-0.5707464703912994,-0.5707464703912994
-0.1801069229691847,-0.1801069229691847
0.5254893981569003,0.5254893981569003
1.6060065367790237,1.6060065367790237
2.8029587118906,2.8029587118906
3.8473809892009934,3.8473809892009934
4.7427664198048864,4.7427664198048864
5.313880273785654,5.313880273785654
5.080428025624301,5.080428025624301
3.83108008409247,3.83108008409247
2.1282176754342204,2.1282176754342204
0.6949023762490544,0.6949023762490544
-0.23366703975433306,-0.23366703975433306
-0.7855691127143402,-0.7855691127143402
-0.9084080762107131,-0.9084080762107131
-0.5334872587146745,-0.5334872587146745
0.10399456606508053,0.10399456606508053
0.564495135380867,0.564495135380867
0.6943202010666071,0.6943202010666071
0.6040830477872811,0.6040830477872811
0.4410739967020469,0.4410739967020469
0.24546313539976589,0.24546313539976589
0.10399456606508053,0.10399456606508053
0.09118671205124071,0.09118671205124071
0.18840996751993394,0.18840996751993394
0.2151900259125081,0.2151900259125081
0.10399456606508053,0.10399456606508053
-0.034563127357368495,-0.034563127357368495
0.019579164610227132,0.019579164610227132
0.1971425952566429,0.1971425952566429
0.2728253689747873,0.2728253689747873
0.13717855146457464,0.13717855146457464
0.019579164610227132,0.019579164610227132
0.05218097482727396,0.05218097482727396
0.10399456606508053,0.10399456606508053
0.01725046388043807,0.01725046388043807
-0.06483623684462626,-0.06483623684462626
-0.003707842687663462,-0.003707842687663462
0.10399456606508053,0.10399456606508053
0.0812897339496372,0.0812897339496372
0.019579164610227132,0.019579164610227132
0.0399552959958814,0.0399552959958814
0.10399456606508053,0.10399456606508053
0.09584411351081883,0.09584411351081883
0.10399456606508053,0.10399456606508053
0.1936495441619593,0.1936495441619593
0.2728253689747873,0.2728253689747873
0.2052930478109046,0.2052930478109046
0.10399456606508053,0.10399456606508053
0.10515891642997506,0.10515891642997506
0.18840996751993394,0.18840996751993394
0.2087860989055882,0.2087860989055882
0.18840996751993394,0.18840996751993394
0.20179999671622104,0.20179999671622104
0.2728253689747873,0.2728253689747873
0.3217280843003576,0.3217280843003576
0.35724077042964075,0.35724077042964075
0.3944999821062657,0.3944999821062657
0.4410739967020469,0.4410739967020469
0.44806009889141407,0.44806009889141407
0.4410739967020469,0.4410739967020469
0.4323413689653379,0.4323413689653379
0.4410739967020469,0.4410739967020469
0.4573749018105703,0.4573749018105703
0.5254893981569003,0.5254893981569003
0.6198017777133572,0.6198017777133572
0.6943202010666071,0.6943202010666071
0.6960667266139489,0.6960667266139489
0.6943202010666071,0.6943202010666071
0.7443872667570719,0.7443872667570719
0.8631510039763138,0.8631510039763138
0.9691068871817161,0.9691068871817161
1.0319818068860207,1.0319818068860207
1.0383857338929405,1.0383857338929405
1.0319818068860207,1.0319818068860207
1.0162630769599446,1.0162630769599446
1.0319818068860207,1.0319818068860207
1.0896171499482998,1.0896171499482998
1.2002304346132802,1.2002304346132802
1.2805706097910028,1.2805706097910028
1.2846458360681337,1.2846458360681337
1.2450579236617196,1.2450579236617196
1.2846458360681337,1.2846458360681337
1.3929304200033248,1.3929304200033248
1.4534766389778404,1.4534766389778404
1.3801225659894851,1.3801225659894851
1.2846458360681337,1.2846458360681337
1.2607766535877958,1.2607766535877958
1.2846458360681337,1.2846458360681337
1.2572836024931122,1.2572836024931122
1.2002304346132802,1.2002304346132802
1.1321159382669501,1.1321159382669501
1.0319818068860207,1.0319818068860207
0.8794519090848373,0.8794519090848373
0.7787356025214605,0.7787356025214605
0.7478803178517555,0.7478803178517555
0.6943202010666071,0.6943202010666071
0.5301467996164784,0.5301467996164784
0.35724077042964075,0.35724077042964075
0.2349839821157151,0.2349839821157151
0.10399456606508053,0.10399456606508053
-0.11548547771753831,-0.11548547771753831
-0.3180824412091865,-0.3180824412091865
-0.42636702514437774,-0.42636702514437774
-0.486331068936446,-0.486331068936446
-0.5893760762296119,-0.5893760762296119
-0.6551618718461528,-0.6551618718461528
-0.6243065871764478,-0.6243065871764478
-0.5707464703912994,-0.5707464703912994
-0.651086645569022,-0.651086645569022
-0.8239926747558596,-0.8239926747558596
-0.9398455360628654,-0.9398455360628654
-0.9084080762107131,-0.9084080762107131
-0.8362183535872522,-0.8362183535872522
-0.8239926747558596,-0.8239926747558596
-0.8804636674532443,-0.8804636674532443
-0.9084080762107131,-0.9084080762107131
-0.8990932732915567,-0.8990932732915567
-0.9084080762107131,-0.9084080762107131
-0.9916591273006718,-0.9916591273006718
-1.0766567039379726,-1.0766567039379726
-1.104018937512994,-1.104018937512994
-1.0766567039379726,-1.0766567039379726
-1.0696706017486053,-1.0696706017486053
-1.0766567039379726,-1.0766567039379726
-1.0818962805799979,-1.0818962805799979
-1.0766567039379726,-1.0766567039379726
-1.0848071564922344,-1.0848071564922344
-1.0766567039379726,-1.0766567039379726
-1.0679240762012636,-1.0679240762012636
-1.0766567039379726,-1.0766567039379726
-1.0807319302151035,-1.0807319302151035
-0.9928234776655664,-0.9928234776655664
-0.879881492270797,-0.879881492270797
-0.9084080762107131,-0.9084080762107131
-1.1051832878778884,-1.1051832878778884
-1.2454875068476794,-1.2454875068476794
-1.2187074484551053,-1.2187074484551053
-1.161072105392826,-1.161072105392826
-1.2146322221779744,-1.2146322221779744
-1.2454875068476794,-1.2454875068476794
-1.1342920470002518,-1.1342920470002518
-0.9928234776655664,-0.9928234776655664
-0.9980630543075918,-0.9980630543075918
-1.0766567039379726,-1.0766567039379726
-1.0987793608709686,-1.0987793608709686
-1.0766567039379726,-1.0766567039379726
-1.0941219594113905,-1.0941219594113905
-1.0766567039379726,-1.0766567039379726
-0.9805977988341739,-0.9805977988341739
-0.9084080762107131,-0.9084080762107131
-0.9747760470097012,-0.9747760470097012
-1.0766567039379726,-1.0766567039379726
-1.1011080616007576,-1.1011080616007576
-1.0766567039379726,-1.0766567039379726
-1.0900467331342596,-1.0900467331342596
-1.0766567039379726,-1.0766567039379726
-0.9904947769357774,-0.9904947769357774
-0.9084080762107131,-0.9084080762107131
-0.9346059594208399,-0.9346059594208399
-0.9928234776655664,-0.9928234776655664
-0.9788512732868321,-0.9788512732868321
-0.9084080762107131,-0.9084080762107131
-0.8897784703724005,-0.8897784703724005
-0.9084080762107131,-0.9084080762107131
-0.8915249959197423,-0.8915249959197423
-0.8239926747558596,-0.8239926747558596
-0.8135135214718089,-0.8135135214718089
-0.9084080762107131,-0.9084080762107131
-1.0434727185384784,-1.0434727185384784
-1.0766567039379726,-1.0766567039379726
-0.9782690981043848,-0.9782690981043848
-0.8239926747558596,-0.8239926747558596
-0.7378307477536644,-0.7378307477536644
-0.7395772733010062,-0.7395772733010062
-0.7908086893563655,-0.7908086893563655
-0.8239926747558596,-0.8239926747558596
-0.8129313462893616,-0.8129313462893616
-0.7395772733010062,-0.7395772733010062
-0.6662232003126508,-0.6662232003126508
-0.6551618718461528,-0.6551618718461528
-0.7145437404557738,-0.7145437404557738
-0.7395772733010062,-0.7395772733010062
-0.7005715360770395,-0.7005715360770395
-0.6551618718461528,-0.6551618718461528
-0.6627301492179672,-0.6627301492179672
-0.6551618718461528,-0.6551618718461528
-0.605094806155688,-0.605094806155688
-0.5707464703912994,-0.5707464703912994
-0.6144096090748443,-0.6144096090748443
-0.6551618718461528,-0.6551618718461528
-0.6522509959339164,-0.6522509959339164
-0.6551618718461528,-0.6551618718461528
-0.7174546163680101,-0.7174546163680101
-0.7395772733010062,-0.7395772733010062
-0.6685519010424399,-0.6685519010424399
-0.5707464703912994,-0.5707464703912994
-0.5352337842620163,-0.5352337842620163
-0.486331068936446,-0.486331068936446
-0.3861969375555165,-0.3861969375555165
-0.3180824412091865,-0.3180824412091865
-0.3809573609134911,-0.3809573609134911
-0.486331068936446,-0.486331068936446
-0.545712937546067,-0.545712937546067
-0.5707464703912994,-0.5707464703912994
-0.6091700324328189,-0.6091700324328189
-0.5707464703912994,-0.5707464703912994
-0.4170522222252215,-0.4170522222252215
-0.23366703975433306,-0.23366703975433306
-0.13527943392074532,-0.13527943392074532
-0.06483623684462626,-0.06483623684462626
0.03180484344161969,0.03180484344161969
0.10399456606508053,0.10399456606508053
0.04868792373259037,0.04868792373259037
-0.06483623684462626,-0.06483623684462626
-0.11432112735264378,-0.11432112735264378
-0.06483623684462626,-0.06483623684462626
-0.030487901080237644,-0.030487901080237644
-0.06483623684462626,-0.06483623684462626
-0.13003985727871994,-0.13003985727871994
-0.14925163829947968,-0.14925163829947968
-0.16497036822555583,-0.16497036822555583
-0.23366703975433306,-0.23366703975433306
-0.32797941931079,-0.32797941931079
-0.3180824412091865,-0.3180824412091865
-0.21096220763888973,-0.21096220763888973
-0.14925163829947968,-0.14925163829947968
-0.22784528792986042,-0.22784528792986042
-0.3180824412091865,-0.3180824412091865
-0.30352806164800483,-0.30352806164800483
-0.23366703975433306,-0.23366703975433306
-0.24356401785593657,-0.24356401785593657
-0.3180824412091865,-0.3180824412091865
-0.40424436821138165,-0.40424436821138165
-0.486331068936446,-0.486331068936446
-0.5736573463035357,-0.5736573463035357
-0.5707464703912994,-0.5707464703912994
-0.5049606747747585,-0.5049606747747585
-0.486331068936446,-0.486331068936446
-0.59403347768919,-0.59403347768919
-0.6551618718461528,-0.6551618718461528
-0.5887939010471647,-0.5887939010471647
-0.486331068936446,-0.486331068936446
-0.506125025139653,-0.506125025139653
-0.5707464703912994,-0.5707464703912994
-0.5596851419248013,-0.5596851419248013
-0.486331068936446,-0.486331068936446
-0.5102002514167838,-0.5102002514167838
-0.6551618718461528,-0.6551618718461528
-0.8065274192824416,-0.8065274192824416
-0.8239926747558596,-0.8239926747558596
-0.7221120178275883,-0.7221120178275883
-0.486331068936446,-0.486331068936446
0.03122266825917243,0.03122266825917243
1.0319818068860207,1.0319818068860207
2.402422186366882,2.402422186366882
3.8153613541663938,3.8153613541663938
5.05306579204928,5.05306579204928
6.092248492717647,6.092248492717647
6.635417937940945,6.635417937940945
6.176663894172501,6.176663894172501
4.652529266525561,4.652529266525561
2.8029587118906,2.8029587118906
1.3894373689086412,1.3894373689086412
0.5254893981569003,0.5254893981569003
-0.07473321494622977,-0.07473321494622977
-0.40191566748159263,-0.40191566748159263
-0.30003501055332127,-0.30003501055332127
0.10399456606508053,0.10399456606508053
0.40497913539031644,0.40497913539031644
0.4410739967020469,0.4410739967020469
0.3432685660509064,0.3432685660509064
0.2728253689747873,0.2728253689747873
0.2041286974460101,0.2041286974460101
0.10399456606508053,0.10399456606508053
-0.010111769694583375,-0.010111769694583375
-0.06483623684462626,-0.06483623684462626
-0.07473321494622977,-0.07473321494622977
-0.06483623684462626,-0.06483623684462626
-0.10209544852125121,-0.10209544852125121
-0.14925163829947968,-0.14925163829947968
-0.1835999740638683,-0.1835999740638683
-0.14925163829947968,-0.14925163829947968
-0.10325979888614575,-0.10325979888614575
-0.06483623684462626,-0.06483623684462626
-0.03572747772226303,-0.03572747772226303
0.019579164610227132,0.019579164610227132
0.029476142711830633,0.029476142711830633
-0.06483623684462626,-0.06483623684462626
-0.20863350690910068,-0.20863350690910068
-0.23366703975433306,-0.23366703975433306
-0.15914861640108316,-0.15914861640108316
-0.14925163829947968,-0.14925163829947968
-0.27034407624851076,-0.27034407624851076
-0.3180824412091865,-0.3180824412091865
-0.19757217844260266,-0.19757217844260266
-0.06483623684462626,-0.06483623684462626
-0.09510934633188405,-0.09510934633188405
-0.14925163829947968,-0.14925163829947968
-0.06308971129728448,-0.06308971129728448
0.10399456606508053,0.10399456606508053
0.15464380693799257,0.15464380693799257
0.10399456606508053,0.10399456606508053
0.05043444927993217,0.05043444927993217
0.019579164610227132,0.019579164610227132
-0.043877930276524736,-0.043877930276524736
-0.06483623684462626,-0.06483623684462626
0.003278259501703716,0.003278259501703716
0.10399456606508053,0.10399456606508053
0.11854894562626216,0.11854894562626216
0.10399456606508053,0.10399456606508053
0.14823987993107265,0.14823987993107265
0.2728253689747873,0.2728253689747873
0.3799456025450841,0.3799456025450841
0.4410739967020469,0.4410739967020469
0.4486422740738613,0.4486422740738613
0.4410739967020469,0.4410739967020469
0.445731398161625,0.445731398161625
0.5254893981569003,0.5254893981569003
0.6361026828218805,0.6361026828218805
0.6943202010666071,0.6943202010666071
0.645999660923484,0.645999660923484
0.6099047996117537,0.6099047996117537
0.6844232229650036,0.6844232229650036
0.8631510039763138,0.8631510039763138
0.997633471121632,0.997633471121632
1.0319818068860207,1.0319818068860207
1.0052017484934466,1.0052017484934466
1.0319818068860207,1.0319818068860207
1.111739806881296,1.111739806881296
1.2002304346132802,1.2002304346132802
1.2421470477494834,1.2421470477494834
1.2846458360681337,1.2846458360681337
1.3550890331442527,1.3550890331442527
1.4534766389778404,1.4534766389778404
1.5169337338645923,1.5169337338645923
1.537892040432694,1.537892040432694
1.507618930945436,1.507618930945436
1.4534766389778404,1.4534766389778404
1.3911838944559831,1.3911838944559831
1.369061237522987,1.369061237522987
1.351595982049569,1.351595982049569
1.2846458360681337,1.2846458360681337
1.14492379228079,1.14492379228079
1.0319818068860207,1.0319818068860207
0.9830790915604505,0.9830790915604505
0.9475664054311673,0.9475664054311673
0.836953120766187,0.836953120766187
0.6943202010666071,0.6943202010666071
0.5604199091037362,0.5604199091037362
0.4410739967020469,0.4410739967020469
0.30309847846204513,0.30309847846204513
0.18840996751993394,0.18840996751993394
0.07896103321984814,0.07896103321984814
-0.06483623684462626,-0.06483623684462626
-0.23948879157880573,-0.23948879157880573
-0.3180824412091865,-0.3180824412091865
-0.3011993609182158,-0.3011993609182158
-0.3180824412091865,-0.3180824412091865
-0.4572223098140828,-0.4572223098140828
-0.5707464703912994,-0.5707464703912994
-0.5532812149178815,-0.5532812149178815
-0.486331068936446,-0.486331068936446
-0.5369803098093581,-0.5369803098093581
-0.6551618718461528,-0.6551618718461528
-0.710468514178643,-0.710468514178643
-0.6551618718461528,-0.6551618718461528
-0.5951978280540845,-0.5951978280540845
-0.5707464703912994,-0.5707464703912994
-0.5707464703912994,-0.5707464703912994
-0.5707464703912994,-0.5707464703912994
-0.6307105141833677,-0.6307105141833677
-0.7395772733010062,-0.7395772733010062
-0.8111848207420198,-0.8111848207420198
-0.7395772733010062,-0.7395772733010062
-0.6062591565205826,-0.6062591565205826
-0.5707464703912994,-0.5707464703912994
-0.6947497842525668,-0.6947497842525668
-0.8239926747558596,-0.8239926747558596
-0.8525192586957756,-0.8525192586957756
-0.8239926747558596,-0.8239926747558596
-0.8333074776750159,-0.8333074776750159
-0.8239926747558596,-0.8239926747558596
-0.7448168499430315,-0.7448168499430315
-0.6551618718461528,-0.6551618718461528
-0.6679697258599926,-0.6679697258599926
-0.7395772733010062,-0.7395772733010062
-0.7948839156334964,-0.7948839156334964
-0.8239926747558596,-0.8239926747558596
-0.8769706163585607,-0.8769706163585607
-0.9084080762107131,-0.9084080762107131
-0.8810458426356915,-0.8810458426356915
-0.8239926747558596,-0.8239926747558596
-0.8123491711069143,-0.8123491711069143
-0.8239926747558596,-0.8239926747558596
-0.8286500762154377,-0.8286500762154377
-0.8239926747558596,-0.8239926747558596
-0.8344718280399104,-0.8344718280399104
-0.8239926747558596,-0.8239926747558596
-0.8047808937350999,-0.8047808937350999
-0.8239926747558596,-0.8239926747558596
-0.8938536966495314,-0.8938536966495314
-0.9084080762107131,-0.9084080762107131
-0.829232251397885,-0.829232251397885
-0.7395772733010062,-0.7395772733010062
-0.7523851273148461,-0.7523851273148461
-0.8239926747558596,-0.8239926747558596
-0.8845388937303752,-0.8845388937303752
-0.9084080762107131,-0.9084080762107131
-0.9043328499335822,-0.9043328499335822
-0.8239926747558596,-0.8239926747558596
-0.7058111127190648,-0.7058111127190648
-0.6551618718461528,-0.6551618718461528
-0.7110506893610903,-0.7110506893610903
-0.7395772733010062,-0.7395772733010062
-0.6871815068807524,-0.6871815068807524
-0.6551618718461528,-0.6551618718461528
-0.7395772733010062,-0.7395772733010062
-0.8239926747558596,-0.8239926747558596
-0.8047808937350999,-0.8047808937350999
-0.7395772733010062,-0.7395772733010062
-0.7616999302340023,-0.7616999302340023
-0.8239926747558596,-0.8239926747558596
-0.8170065725664925,-0.8170065725664925
-0.7395772733010062,-0.7395772733010062
-0.73026247038185,-0.73026247038185
-0.8239926747558596,-0.8239926747558596
-0.9229624557718946,-0.9229624557718946
-0.9084080762107131,-0.9084080762107131
-0.840293579864383,-0.840293579864383
-0.8239926747558596,-0.8239926747558596
-0.8624162367973791,-0.8624162367973791
-0.8239926747558596,-0.8239926747558596
-0.7110506893610903,-0.7110506893610903
-0.6551618718461528,-0.6551618718461528
-0.7197833170977992,-0.7197833170977992
-0.7395772733010062,-0.7395772733010062
-0.6219778864466587,-0.6219778864466587
-0.486331068936446,-0.486331068936446
-0.49448152149070773,-0.49448152149070773
-0.5707464703912994,-0.5707464703912994
-0.613827433892397,-0.613827433892397
-0.6551618718461528,-0.6551618718461528
-0.7651929813286859,-0.7651929813286859
-0.8239926747558596,-0.8239926747558596
-0.7337555214765336,-0.7337555214765336
-0.5707464703912994,-0.5707464703912994
-0.49564587185560227,-0.49564587185560227
-0.486331068936446,-0.486331068936446
-0.4810914922944206,-0.4810914922944206
-0.486331068936446,-0.486331068936446
-0.5451307623636198,-0.5451307623636198
-0.5707464703912994,-0.5707464703912994
-0.5276655068902019,-0.5276655068902019
-0.486331068936446,-0.486331068936446
-0.5305763828024381,-0.5305763828024381
-0.5707464703912994,-0.5707464703912994
-0.5387268353566999,-0.5387268353566999
-0.486331068936446,-0.486331068936446
-0.5171863536061511,-0.5171863536061511
-0.5707464703912994,-0.5707464703912994
-0.563178193019485,-0.563178193019485
-0.486331068936446,-0.486331068936446
-0.41123047040074884,-0.41123047040074884
-0.3180824412091865,-0.3180824412091865
-0.19233260180057726,-0.19233260180057726
-0.06483623684462626,-0.06483623684462626
-0.004872193052557992,-0.004872193052557992
0.019579164610227132,0.019579164610227132
0.0515987996448267,0.0515987996448267
0.10399456606508053,0.10399456606508053
0.12145982153849848,0.12145982153849848
0.10399456606508053,0.10399456606508053
0.06324230329377199,0.06324230329377199
0.019579164610227132,0.019579164610227132
-0.05668578429036456,-0.05668578429036456
-0.14925163829947968,-0.14925163829947968
-0.2249344120176241,-0.2249344120176241
-0.23366703975433306,-0.23366703975433306
-0.21853048501070418,-0.21853048501070418
-0.23366703975433306,-0.23366703975433306
-0.29188455799905955,-0.29188455799905955
-0.3180824412091865,-0.3180824412091865
-0.30702111274268845,-0.30702111274268845
-0.3180824412091865,-0.3180824412091865
-0.40133349229914533,-0.40133349229914533
-0.486331068936446,-0.486331068936446
-0.534651609079569,-0.534651609079569
-0.5707464703912994,-0.5707464703912994
-0.6342035652780513,-0.6342035652780513
-0.6551618718461528,-0.6551618718461528
-0.613827433892397,-0.613827433892397
-0.5707464703912994,-0.5707464703912994
-0.6103343827977135,-0.6103343827977135
-0.6551618718461528,-0.6551618718461528
-0.640025317102524,-0.640025317102524
-0.5707464703912994,-0.5707464703912994
-0.5759860470333248,-0.5759860470333248
-0.6551618718461528,-0.6551618718461528
-0.7616999302340023,-0.7616999302340023
-0.8239926747558596,-0.8239926747558596
-0.8734775652638771,-0.8734775652638771
-0.9084080762107131,-0.9084080762107131
-0.9043328499335822,-0.9043328499335822
-0.8239926747558596,-0.8239926747558596
-0.7378307477536644,-0.7378307477536644
-0.7395772733010062,-0.7395772733010062
-0.8694023389867462,-0.8694023389867462
-0.9928234776655664,-0.9928234776655664
-0.9538177404415996,-0.9538177404415996
-0.6551618718461528,-0.6551618718461528
-0.11373895217019651,-0.11373895217019651
0.6943202010666071,0.6943202010666071
1.7981243469866213,1.7981243469866213
3.140620317710014,3.140620317710014
4.403358288438131,4.403358288438131
5.164843427079155,5.164843427079155
5.116522886936031,5.116522886936031
4.321271587713067,4.321271587713067
3.0911354272019964,3.0911354272019964
1.791138244797254,1.791138244797254
0.6110691499766482,0.6110691499766482
-0.3180824412091865,-0.3180824412091865
-0.8461153316888557,-0.8461153316888557
-0.8239926747558596,-0.8239926747558596
-0.3640742806225204,-0.3640742806225204
0.18840996751993394,0.18840996751993394
0.49579846385208975,0.49579846385208975
0.5254893981569003,0.5254893981569003
0.4096365368498946,0.4096365368498946
0.2728253689747873,0.2728253689747873
0.12961027409276019,0.12961027409276019
0.019579164610227132,0.019579164610227132
-0.044460105458972,-0.044460105458972
-0.06483623684462626,-0.06483623684462626
-0.08171931713559695,-0.08171931713559695
-0.06483623684462626,-0.06483623684462626
-0.049117506918550116,-0.049117506918550116
-0.06483623684462626,-0.06483623684462626
-0.13469725873829805,-0.13469725873829805
-0.14925163829947968,-0.14925163829947968
-0.10209544852125121,-0.10209544852125121
-0.06483623684462626,-0.06483623684462626
-0.10966372589306567,-0.10966372589306567
-0.14925163829947968,-0.14925163829947968
-0.12247157990690549,-0.12247157990690549
-0.06483623684462626,-0.06483623684462626
-0.060761010567495416,-0.060761010567495416
-0.06483623684462626,-0.06483623684462626
-0.02990572589779038,-0.02990572589779038
0.019579164610227132,0.019579164610227132
-0.028159200350448586,-0.028159200350448586
-0.14925163829947968,-0.14925163829947968
-0.22377006165272956,-0.22377006165272956
-0.14925163829947968,-0.14925163829947968
-0.02408397407331773,-0.02408397407331773
0.019579164610227132,0.019579164610227132
-0.03922052881694662,-0.03922052881694662
-0.06483623684462626,-0.06483623684462626
-0.04329575509407747,-0.04329575509407747
-0.06483623684462626,-0.06483623684462626
-0.15856644121863592,-0.15856644121863592
-0.14925163829947968,-0.14925163829947968
0.019579164610227132,0.019579164610227132
0.18840996751993394,0.18840996751993394
0.1790951646007777,0.1790951646007777
0.10399456606508053,0.10399456606508053
0.10981631788955318,0.10981631788955318
0.18840996751993394,0.18840996751993394
0.22799787992634793,0.22799787992634793
0.2728253689747873,0.2728253689747873
0.338028989408881,0.338028989408881
0.35724077042964075,0.35724077042964075
0.28388669744128536,0.28388669744128536
0.2728253689747873,0.2728253689747873
0.3723773251732696,0.3723773251732696
0.4410739967020469,0.4410739967020469
0.3514190186051681,0.3514190186051681
0.2728253689747873,0.2728253689747873
0.3531655441525099,0.3531655441525099
0.5254893981569003,0.5254893981569003
0.6186374273484626,0.6186374273484626
0.6943202010666071,0.6943202010666071
0.848014449232685,0.848014449232685
1.0319818068860207,1.0319818068860207
1.085541923671169,1.085541923671169
1.0319818068860207,1.0319818068860207
0.9656138360870324,0.9656138360870324
0.9475664054311673,0.9475664054311673
0.9568812083503235,0.9568812083503235
1.0319818068860207,1.0319818068860207
1.1408485660036591,1.1408485660036591
1.2002304346132802,1.2002304346132802
1.1548207703823936,1.1548207703823936
1.115815033158427,1.115815033158427
1.1478346681930265,1.1478346681930265
1.2002304346132802,1.2002304346132802
1.1961552083361493,1.1961552083361493
1.2002304346132802,1.2002304346132802
1.2287570185531962,1.2287570185531962
1.2002304346132802,1.2002304346132802
1.041878784987624,1.041878784987624
0.8631510039763138,0.8631510039763138
0.7350724638379156,0.7350724638379156
0.6099047996117537,0.6099047996117537
0.4224443908637344,0.4224443908637344
0.2728253689747873,0.2728253689747873
0.19656042007419564,0.19656042007419564
0.10399456606508053,0.10399456606508053
-0.08346584268293875,-0.08346584268293875
-0.23366703975433306,-0.23366703975433306
-0.27558365289053616,-0.27558365289053616
-0.3180824412091865,-0.3180824412091865
-0.48574889375399877,-0.48574889375399877
-0.6551618718461528,-0.6551618718461528
-0.6953319594350141,-0.6953319594350141
-0.6551618718461528,-0.6551618718461528
-0.704064587171723,-0.704064587171723
-0.8239926747558596,-0.8239926747558596
-0.9089902513931603,-0.9089902513931603
-0.9084080762107131,-0.9084080762107131
-0.9043328499335822,-0.9043328499335822
-0.9084080762107131,-0.9084080762107131
-0.8886141200075061,-0.8886141200075061
-0.8239926747558596,-0.8239926747558596
-0.8140956966542561,-0.8140956966542561
-0.9084080762107131,-0.9084080762107131
-1.0423083681735839,-1.0423083681735839
-1.0766567039379726,-1.0766567039379726
-1.0452192440858203,-1.0452192440858203
-1.0766567039379726,-1.0766567039379726
-1.2018243681641345,-1.2018243681641345
-1.2454875068476794,-1.2454875068476794
-1.1558325287508007,-1.1558325287508007
-1.0766567039379726,-1.0766567039379726
-1.128470295175779,-1.128470295175779
-1.161072105392826,-1.161072105392826
-1.0498766455453983,-1.0498766455453983
-0.9084080762107131,-0.9084080762107131
-0.9375168353330763,-0.9375168353330763
-1.0766567039379726,-1.0766567039379726
-1.1424424995545135,-1.1424424995545135
-1.0766567039379726,-1.0766567039379726
-1.0056313316794063,-1.0056313316794063
-0.9928234776655664,-0.9928234776655664
-1.027171813429955,-1.027171813429955
-1.0766567039379726,-1.0766567039379726
-1.1406959740071716,-1.1406959740071716
-1.161072105392826,-1.161072105392826
-1.1057654630603357,-1.1057654630603357
-0.9928234776655664,-0.9928234776655664
-0.9119011273053966,-0.9119011273053966
-0.9084080762107131,-0.9084080762107131
-0.9829264995639629,-0.9829264995639629
-1.0766567039379726,-1.0766567039379726
-1.1488464265614333,-1.1488464265614333
-1.161072105392826,-1.161072105392826
-1.1290524703582263,-1.1290524703582263
-1.0766567039379726,-1.0766567039379726
-1.0609379740118965,-1.0609379740118965
-1.0766567039379726,-1.0766567039379726
-1.0760745287555253,-1.0760745287555253
-0.9928234776655664,-0.9928234776655664
-0.8990932732915567,-0.8990932732915567
-0.9084080762107131,-0.9084080762107131
-1.0236787623352714,-1.0236787623352714
-1.0766567039379726,-1.0766567039379726
-1.0003917550373809,-1.0003917550373809
-0.9084080762107131,-0.9084080762107131
-0.9322772586910508,-0.9322772586910508
-0.9928234776655664,-0.9928234776655664
-0.9817621491990683,-0.9817621491990683
-0.9084080762107131,-0.9084080762107131
-0.8589231857026955,-0.8589231857026955
-0.8239926747558596,-0.8239926747558596
-0.8210817988436233,-0.8210817988436233
-0.9084080762107131,-0.9084080762107131
-1.0568627477347656,-1.0568627477347656
-1.0766567039379726,-1.0766567039379726
-0.9363524849681817,-0.9363524849681817
-0.8239926747558596,-0.8239926747558596
-0.868820163804299,-0.868820163804299
-0.9084080762107131,-0.9084080762107131
-0.8443688061415139,-0.8443688061415139
-0.8239926747558596,-0.8239926747558596
-0.9683721200027813,-0.9683721200027813
-1.0766567039379726,-1.0766567039379726
-0.987583901023541,-0.987583901023541
-0.8239926747558596,-0.8239926747558596
-0.7727612587005003,-0.7727612587005003
-0.7395772733010062,-0.7395772733010062
-0.631292689365815,-0.631292689365815
-0.5707464703912994,-0.5707464703912994
-0.690674557975436,-0.690674557975436
-0.8239926747558596,-0.8239926747558596
-0.8082739448297834,-0.8082739448297834
-0.7395772733010062,-0.7395772733010062
-0.7826582368021038,-0.7826582368021038
-0.8239926747558596,-0.8239926747558596
-0.72385854337493,-0.72385854337493
-0.5707464703912994,-0.5707464703912994
-0.5602673171072486,-0.5602673171072486
-0.6551618718461528,-0.6551618718461528
-0.7279337696520609,-0.7279337696520609
-0.7395772733010062,-0.7395772733010062
-0.7320089959291918,-0.7320089959291918
-0.6551618718461528,-0.6551618718461528
-0.5352337842620163,-0.5352337842620163
-0.486331068936446,-0.486331068936446
-0.5526990397354342,-0.5526990397354342
-0.5707464703912994,-0.5707464703912994
-0.49448152149070773,-0.49448152149070773
-0.486331068936446,-0.486331068936446
-0.6668053754950981,-0.6668053754950981
-0.8239926747558596,-0.8239926747558596
-0.7419059740307953,-0.7419059740307953
-0.486331068936446,-0.486331068936446
-0.3198289667565283,-0.3198289667565283
-0.3180824412091865,-0.3180824412091865
-0.4036621930289344,-0.4036621930289344
-0.486331068936446,-0.486331068936446
-0.5410555360864889,-0.5410555360864889
-0.486331068936446,-0.486331068936446
-0.30236371128311035,-0.30236371128311035
-0.06483623684462626,-0.06483623684462626
0.07837885803740088,0.07837885803740088
0.10399456606508053,0.10399456606508053
0.0614957777464302,0.0614957777464302
0.019579164610227132,0.019579164610227132
-0.02757702516800132,-0.02757702516800132
-0.06483623684462626,-0.06483623684462626
-0.07997279158825515,-0.07997279158825515
-0.06483623684462626,-0.06483623684462626
-0.10442414925104028,-0.10442414925104028
-0.23366703975433306,-0.23366703975433306
-0.3617455798927313,-0.3617455798927313
-0.3180824412091865,-0.3180824412091865
-0.14634076238724333,-0.14634076238724333
-0.06483623684462626,-0.06483623684462626
-0.18534649961121008,-0.18534649961121008
-0.3180824412091865,-0.3180824412091865
-0.30876763829003023,-0.30876763829003023
-0.23366703975433306,-0.23366703975433306
-0.25346099595754007,-0.25346099595754007
-0.3180824412091865,-0.3180824412091865
-0.3320546455879208,-0.3320546455879208
-0.3180824412091865,-0.3180824412091865
-0.3623277550751786,-0.3623277550751786
-0.40191566748159263,-0.40191566748159263
-0.39434739010977815,-0.39434739010977815
-0.40191566748159263,-0.40191566748159263
-0.5247546309779655,-0.5247546309779655
-0.6551618718461528,-0.6551618718461528
-0.6970784849823559,-0.6970784849823559
-0.6551618718461528,-0.6551618718461528
-0.6528331711163637,-0.6528331711163637
-0.6551618718461528,-0.6551618718461528
-0.6021839302434517,-0.6021839302434517
-0.486331068936446,-0.486331068936446
-0.4106482952183016,-0.4106482952183016
-0.40191566748159263,-0.40191566748159263
-0.43917487915821757,-0.43917487915821757
-0.486331068936446,-0.486331068936446
-0.5882117258647174,-0.5882117258647174
-0.7395772733010062,-0.7395772733010062
-0.8723132148989826,-0.8723132148989826
-0.8239926747558596,-0.8239926747558596
-0.506125025139653,-0.506125025139653
0.10399456606508053,0.10399456606508053
0.9574633835327708,0.9574633835327708
2.043802273979367,2.043802273979367
3.2669523323010705,3.2669523323010705
4.40568698916792,4.40568698916792
5.099057631462613,5.099057631462613
5.080428025624301,5.080428025624301
4.2904163030433615,4.2904163030433615
2.971789514800307,2.971789514800307
1.5256663616013013,1.5256663616013013
0.35724077042964075,0.35724077042964075
-0.36814950689965126,-0.36814950689965126
-0.6551618718461528,-0.6551618718461528
-0.5678355944790631,-0.5678355944790631
-0.14925163829947968,-0.14925163829947968
0.37703472663284776,0.37703472663284776
0.6943202010666071,0.6943202010666071
0.6483283616532731,0.6483283616532731
0.4410739967020469,0.4410739967020469
0.3048450040093869,0.3048450040093869
0.2728253689747873,0.2728253689747873
0.23149093102103152,0.23149093102103152
0.18840996751993394,0.18840996751993394
0.1558081573028871,0.1558081573028871
0.10399456606508053,0.10399456606508053
-0.01185829524192517,-0.01185829524192517
-0.06483623684462626,-0.06483623684462626
-0.0019613171403216677,-0.0019613171403216677
0.10399456606508053,0.10399456606508053
0.09526193832837156,0.09526193832837156
0.019579164610227132,0.019579164610227132
-0.04329575509407747,-0.04329575509407747
-0.06483623684462626,-0.06483623684462626
-0.08812324414251686,-0.08812324414251686
-0.06483623684462626,-0.06483623684462626
0.016668288697990807,0.016668288697990807
0.10399456606508053,0.10399456606508053
0.11622024489647309,0.11622024489647309
0.10399456606508053,0.10399456606508053
0.10108369015284421,0.10108369015284421
0.10399456606508053,0.10399456606508053
0.0812897339496372,0.0812897339496372
0.10399456606508053,0.10399456606508053
0.18549909160769762,0.18549909160769762
0.2728253689747873,0.2728253689747873
0.2833045222588381,0.2833045222588381
0.2728253689747873,0.2728253689747873
0.27631842006947094,0.27631842006947094
0.2728253689747873,0.2728253689747873
0.19015649306727572,0.19015649306727572
0.10399456606508053,0.10399456606508053
0.11971329599115668,0.11971329599115668
0.2728253689747873,0.2728253689747873
0.41487611349191994,0.41487611349191994
0.4410739967020469,0.4410739967020469
0.3723773251732696,0.3723773251732696
0.35724077042964075,0.35724077042964075
0.4108008872147891,0.4108008872147891
0.4410739967020469,0.4410739967020469
0.35898729597698253,0.35898729597698253
0.2728253689747873,0.2728253689747873
0.29553020109023065,0.29553020109023065
0.4410739967020469,0.4410739967020469
0.5901108434085467,0.5901108434085467
0.6943202010666071,0.6943202010666071
0.7222646098240758,0.7222646098240758
0.6943202010666071,0.6943202010666071
0.6465818361059313,0.6465818361059313
0.6943202010666071,0.6943202010666071
0.8264739674821362,0.8264739674821362
0.9475664054311673,0.9475664054311673
0.9819147411955559,0.9819147411955559
1.0319818068860207,1.0319818068860207
1.1286228871722666,1.1286228871722666
1.2002304346132802,1.2002304346132802
1.1833473543223096,1.1833473543223096
1.2002304346132802,1.2002304346132802
1.296289339717079,1.296289339717079
1.369061237522987,1.369061237522987
1.320740697379864,1.320740697379864
1.2846458360681337,1.2846458360681337
1.3533425075969108,1.3533425075969108
1.4534766389778404,1.4534766389778404
1.4825853981002037,1.4825853981002037
1.537892040432694,1.537892040432694
1.654909252104594,1.654909252104594
1.7067228433424007,1.7067228433424007
1.5838838798460277,1.5838838798460277
1.4534766389778404,1.4534766389778404
1.4406687849640005,1.4406687849640005
1.4534766389778404,1.4534766389778404
1.3422811791304128,1.3422811791304128
1.2002304346132802,1.2002304346132802
1.1198902594355578,1.1198902594355578
1.0319818068860207,1.0319818068860207
0.821816566022558,0.821816566022558
0.6099047996117537,0.6099047996117537
0.5033667412239042,0.5033667412239042
0.4410739967020469,0.4410739967020469
0.2827223470763908,0.2827223470763908
0.10399456606508053,0.10399456606508053
0.020161339792674395,0.020161339792674395
0.019579164610227132,0.019579164610227132
-0.038056178452052086,-0.038056178452052086
-0.14925163829947968,-0.14925163829947968
-0.231338339024544,-0.231338339024544
-0.23366703975433306,-0.23366703975433306
-0.2464748937681729,-0.2464748937681729
-0.3180824412091865,-0.3180824412091865
-0.4281135506917195,-0.4281135506917195
-0.486331068936446,-0.486331068936446
-0.495063696673155,-0.495063696673155
-0.486331068936446,-0.486331068936446
-0.4985567477678386,-0.4985567477678386
-0.486331068936446,-0.486331068936446
-0.4694479886454753,-0.4694479886454753
-0.486331068936446,-0.486331068936446
-0.554445565282776,-0.554445565282776
-0.5707464703912994,-0.5707464703912994
-0.5195150543359401,-0.5195150543359401
-0.486331068936446,-0.486331068936446
-0.5614316674721431,-0.5614316674721431
-0.6551618718461528,-0.6551618718461528
-0.684270630968516,-0.684270630968516
-0.6551618718461528,-0.6551618718461528
-0.6295461638184732,-0.6295461638184732
-0.5707464703912994,-0.5707464703912994
-0.49564587185560227,-0.49564587185560227
-0.486331068936446,-0.486331068936446
-0.585300849952481,-0.585300849952481
-0.6551618718461528,-0.6551618718461528
-0.6231422368115532,-0.6231422368115532
-0.5707464703912994,-0.5707464703912994
-0.6080056820679244,-0.6080056820679244
-0.6551618718461528,-0.6551618718461528
-0.6289639886360259,-0.6289639886360259
-0.5707464703912994,-0.5707464703912994
-0.5934513025067427,-0.5934513025067427
-0.6551618718461528,-0.6551618718461528
-0.6767023535967016,-0.6767023535967016
-0.6551618718461528,-0.6551618718461528
-0.6813597550562798,-0.6813597550562798
-0.7395772733010062,-0.7395772733010062
-0.7471455506728206,-0.7471455506728206
-0.6551618718461528,-0.6551618718461528
-0.5672534192966158,-0.5672534192966158
-0.5707464703912994,-0.5707464703912994
-0.6435183681972075,-0.6435183681972075
-0.6551618718461528,-0.6551618718461528
-0.5998552295136627,-0.5998552295136627
-0.5707464703912994,-0.5707464703912994
-0.6277996382711314,-0.6277996382711314
-0.6551618718461528,-0.6551618718461528
-0.5858830251349283,-0.5858830251349283
-0.486331068936446,-0.486331068936446
-0.4694479886454753,-0.4694479886454753
-0.486331068936446,-0.486331068936446
-0.48400236820665693,-0.48400236820665693
-0.486331068936446,-0.486331068936446
-0.543384236816278,-0.543384236816278
-0.5707464703912994,-0.5707464703912994
-0.5305763828024381,-0.5305763828024381
-0.486331068936446,-0.486331068936446
-0.5020497988625222,-0.5020497988625222
-0.486331068936446,-0.486331068936446
-0.418216572590116,-0.418216572590116
-0.40191566748159263,-0.40191566748159263
-0.5055428499572058,-0.5055428499572058
-0.5707464703912994,-0.5707464703912994
-0.5026319740449694,-0.5026319740449694
-0.40191566748159263,-0.40191566748159263
-0.3990047915693563,-0.3990047915693563
-0.40191566748159263,-0.40191566748159263
-0.34544467478420793,-0.34544467478420793
-0.3180824412091865,-0.3180824412091865
-0.4123948207656434,-0.4123948207656434
-0.486331068936446,-0.486331068936446
-0.42636702514437774,-0.42636702514437774
-0.3180824412091865,-0.3180824412091865
-0.3058567623777939,-0.3058567623777939
-0.3180824412091865,-0.3180824412091865
-0.27267277697829984,-0.27267277697829984
-0.23366703975433306,-0.23366703975433306
-0.3093498134724775,-0.3093498134724775
-0.40191566748159263,-0.40191566748159263
-0.39667609083956723,-0.39667609083956723
-0.3180824412091865,-0.3180824412091865
-0.29479543391129587,-0.29479543391129587
-0.3180824412091865,-0.3180824412091865
-0.330308120040579,-0.330308120040579
-0.3180824412091865,-0.3180824412091865
-0.32856159449323724,-0.32856159449323724
-0.3180824412091865,-0.3180824412091865
-0.24880359449796197,-0.24880359449796197
-0.14925163829947968,-0.14925163829947968
-0.14110118574521796,-0.14110118574521796
-0.23366703975433306,-0.23366703975433306
-0.3326368207703681,-0.3326368207703681
-0.3180824412091865,-0.3180824412091865
-0.2464748937681729,-0.2464748937681729
-0.23366703975433306,-0.23366703975433306
-0.30527458719534667,-0.30527458719534667
-0.3180824412091865,-0.3180824412091865
-0.22900963829475496,-0.22900963829475496
-0.14925163829947968,-0.14925163829947968
-0.2068869813617589,-0.2068869813617589
-0.3180824412091865,-0.3180824412091865
-0.36523863098741494,-0.36523863098741494
-0.3180824412091865,-0.3180824412091865
-0.22435223683517683,-0.22435223683517683
-0.06483623684462626,-0.06483623684462626
0.10981631788955318,0.10981631788955318
0.18840996751993394,0.18840996751993394
0.13019244927520746,0.13019244927520746
0.10399456606508053,0.10399456606508053
0.19190301861461753,0.19190301861461753
0.2728253689747873,0.2728253689747873
0.18433474124280308,0.18433474124280308
0.019579164610227132,0.019579164610227132
-0.07065798866909892,-0.07065798866909892
-0.06483623684462626,-0.06483623684462626
-0.06425406166217901,-0.06425406166217901
-0.06483623684462626,-0.06483623684462626
-0.057850134655259094,-0.057850134655259094
-0.06483623684462626,-0.06483623684462626
-0.09860239742656764,-0.09860239742656764
-0.06483623684462626,-0.06483623684462626
0.01608611351554354,0.01608611351554354
0.019579164610227132,0.019579164610227132
-0.0956915215143313,-0.0956915215143313
-0.14925163829947968,-0.14925163829947968
-0.08463019304783327,-0.08463019304783327
-0.06483623684462626,-0.06483623684462626
-0.20630480617931163,-0.20630480617931163
-0.3180824412091865,-0.3180824412091865
-0.2581183974171182,-0.2581183974171182
-0.14925163829947968,-0.14925163829947968
-0.2016474047197335,-0.2016474047197335
-0.3180824412091865,-0.3180824412091865
-0.3570881784331532,-0.3570881784331532
-0.3180824412091865,-0.3180824412091865
-0.35010207624378603,-0.35010207624378603
-0.40191566748159263,-0.40191566748159263
-0.3902721638326473,-0.3902721638326473
-0.3180824412091865,-0.3180824412091865
-0.3011993609182158,-0.3011993609182158
-0.3180824412091865,-0.3180824412091865
-0.2942132587288486,-0.2942132587288486
-0.23366703975433306,-0.23366703975433306
-0.28489845580969236,-0.28489845580969236
-0.486331068936446,-0.486331068936446
-0.6976606601648031,-0.6976606601648031
-0.6551618718461528,-0.6551618718461528
-0.26219362369424903,-0.26219362369424903
0.4410739967020469,0.4410739967020469
1.3906017192735358,1.3906017192735358
2.6341279089808936,2.6341279089808936
4.083744113274583,4.083744113274583
5.4175074562612675,5.4175074562612675
6.187725222638998,6.187725222638998
6.176663894172501,6.176663894172501
5.416343105896373,5.416343105896373
4.15244078480336,4.15244078480336
2.7150502593410635,2.7150502593410635
1.4534766389778404,1.4534766389778404
0.5016202156765625,0.5016202156765625
-0.14925163829947968,-0.14925163829947968
-0.47061233901036986,-0.47061233901036986
-0.3180824412091865,-0.3180824412091865
0.20179999671622104,0.20179999671622104
0.6943202010666071,0.6943202010666071
0.8253096171172417,0.8253096171172417
0.6943202010666071,0.6943202010666071
0.5400437777180819,0.5400437777180819
0.4410739967020469,0.4410739967020469
0.32987853685461926,0.32987853685461926
0.2728253689747873,0.2728253689747873
0.3310428872195138,0.3310428872195138
0.4410739967020469,0.4410739967020469
0.43641659524246873,0.43641659524246873
0.35724077042964075,0.35724077042964075
0.30600935437428145,0.30600935437428145
0.35724077042964075,0.35724077042964075
0.4113830623972364,0.4113830623972364
0.4410739967020469,0.4410739967020469
0.43758094560736327,0.43758094560736327
0.4410739967020469,0.4410739967020469
0.4410739967020469,0.4410739967020469
0.4410739967020469,0.4410739967020469
0.3892604054642403,0.3892604054642403
0.2728253689747873,0.2728253689747873
0.13484985073478556,0.13484985073478556
0.10399456606508053,0.10399456606508053
0.17851298941833044,0.17851298941833044
0.2728253689747873,0.2728253689747873
0.30717370473917593,0.30717370473917593
0.35724077042964075,0.35724077042964075
0.44806009889141407,0.44806009889141407
0.5254893981569003,0.5254893981569003
0.5010380404941152,0.5010380404941152
0.4410739967020469,0.4410739967020469
0.4166226390392617,0.4166226390392617
0.4410739967020469,0.4410739967020469
0.44282052224938867,0.44282052224938867
0.4410739967020469,0.4410739967020469
0.465525354364832,0.465525354364832
0.5254893981569003,0.5254893981569003
0.5417903032654237,0.5417903032654237
0.5254893981569003,0.5254893981569003
0.5487764054547909,0.5487764054547909
0.6943202010666071,0.6943202010666071
0.8451035733204486,0.8451035733204486
0.8631510039763138,0.8631510039763138
0.7461337923044137,0.7461337923044137
0.6943202010666071,0.6943202010666071
0.7484624930342026,0.7484624930342026
0.7787356025214605,0.7787356025214605
0.6989776025261852,0.6989776025261852
0.6943202010666071,0.6943202010666071
0.8526718506922631,0.8526718506922631
1.0319818068860207,1.0319818068860207
1.0511935879067804,1.0511935879067804
1.0319818068860207,1.0319818068860207
1.0983497776850089,1.0983497776850089
1.2002304346132802,1.2002304346132802
1.2235174419111707,1.2235174419111707
1.2846458360681337,1.2846458360681337
1.4552231645251823,1.4552231645251823
1.6223074418875472,1.6223074418875472
1.6362796462662816,1.6362796462662816
1.6223074418875472,1.6223074418875472
1.696825865240797,1.696825865240797
1.791138244797254,1.791138244797254
1.7631938360397854,1.7631938360397854
1.7067228433424007,1.7067228433424007
1.727098974728055,1.727098974728055
1.791138244797254,1.791138244797254
1.788809544067465,1.788809544067465
1.791138244797254,1.791138244797254
1.8452805367648497,1.8452805367648497
1.8749714710696601,1.8749714710696601
1.7695977630467052,1.7695977630467052
1.6223074418875472,1.6223074418875472
1.5245020112364067,1.5245020112364067
1.4534766389778404,1.4534766389778404
1.3236515732921004,1.3236515732921004
1.2002304346132802,1.2002304346132802
1.1204724346180048,1.1204724346180048
1.0319818068860207,1.0319818068860207
0.8584936025167358,0.8584936025167358
0.6943202010666071,0.6943202010666071
0.5976791207803611,0.5976791207803611
0.5254893981569003,0.5254893981569003
0.3921712813764766,0.3921712813764766
0.2728253689747873,0.2728253689747873
0.21926525218963897,0.21926525218963897
0.18840996751993394,0.18840996751993394
0.07430363176027002,0.07430363176027002
-0.06483623684462626,-0.06483623684462626
-0.1457585872047961,-0.1457585872047961
-0.14925163829947968,-0.14925163829947968
-0.1737029959622648,-0.1737029959622648
-0.23366703975433306,-0.23366703975433306
-0.29537760909374317,-0.29537760909374317
-0.3180824412091865,-0.3180824412091865
-0.37338908354167666,-0.37338908354167666
-0.486331068936446,-0.486331068936446
-0.5957800032365318,-0.5957800032365318
-0.5707464703912994,-0.5707464703912994
-0.45780448499653004,-0.45780448499653004
-0.40191566748159263,-0.40191566748159263
-0.48400236820665693,-0.48400236820665693
-0.5707464703912994,-0.5707464703912994
-0.580643448492903,-0.580643448492903
-0.5707464703912994,-0.5707464703912994
-0.6277996382711314,-0.6277996382711314
-0.6551618718461528,-0.6551618718461528
-0.5812256236753501,-0.5812256236753501
-0.486331068936446,-0.486331068936446
-0.52591898134286,-0.52591898134286
-0.6551618718461528,-0.6551618718461528
-0.7471455506728206,-0.7471455506728206
-0.7395772733010062,-0.7395772733010062
-0.6994071857121449,-0.6994071857121449
-0.6551618718461528,-0.6551618718461528
-0.6376966163727349,-0.6376966163727349
-0.6551618718461528,-0.6551618718461528
-0.6900923827929887,-0.6900923827929887
-0.6551618718461528,-0.6551618718461528
-0.5788969229455612,-0.5788969229455612
-0.5707464703912994,-0.5707464703912994
-0.6726271273195708,-0.6726271273195708
-0.7395772733010062,-0.7395772733010062
-0.704064587171723,-0.704064587171723
-0.6551618718461528,-0.6551618718461528
-0.6982428353472504,-0.6982428353472504
-0.7395772733010062,-0.7395772733010062
-0.6831062806036216,-0.6831062806036216
-0.5707464703912994,-0.5707464703912994
-0.5358159594444635,-0.5358159594444635
-0.5707464703912994,-0.5707464703912994
-0.6155739594397388,-0.6155739594397388
-0.6551618718461528,-0.6551618718461528
-0.7424881492132426,-0.7424881492132426
-0.8239926747558596,-0.8239926747558596
-0.8047808937350999,-0.8047808937350999
-0.6551618718461528,-0.6551618718461528
-0.5119467769641257,-0.5119467769641257
-0.486331068936446,-0.486331068936446
-0.5556099156476705,-0.5556099156476705
-0.5707464703912994,-0.5707464703912994
-0.514857652876362,-0.514857652876362
-0.486331068936446,-0.486331068936446
-0.5445485871811725,-0.5445485871811725
-0.5707464703912994,-0.5707464703912994
-0.5189328791534928,-0.5189328791534928
-0.486331068936446,-0.486331068936446
-0.5678355944790631,-0.5678355944790631
-0.6551618718461528,-0.6551618718461528
-0.6679697258599926,-0.6679697258599926
-0.6551618718461528,-0.6551618718461528
-0.6615657988530728,-0.6615657988530728
-0.5707464703912994,-0.5707464703912994
-0.38968998865020005,-0.38968998865020005
-0.3180824412091865,-0.3180824412091865
-0.4781806163821843,-0.4781806163821843
-0.6551618718461528,-0.6551618718461528
-0.6563262222110473,-0.6563262222110473
-0.5707464703912994,-0.5707464703912994
-0.5928691273242954,-0.5928691273242954
-0.6551618718461528,-0.6551618718461528
-0.6144096090748443,-0.6144096090748443
-0.486331068936446,-0.486331068936446
-0.41879874777256326,-0.41879874777256326
-0.40191566748159263,-0.40191566748159263
-0.36523863098741494,-0.36523863098741494
-0.3180824412091865,-0.3180824412091865
-0.36756733171720396,-0.36756733171720396
-0.486331068936446,-0.486331068936446
-0.5515346893705396,-0.5515346893705396
-0.486331068936446,-0.486331068936446
-0.4001691419342508,-0.4001691419342508
-0.40191566748159263,-0.40191566748159263
-0.4793449667470788,-0.4793449667470788
-0.486331068936446,-0.486331068936446
-0.39609391565711993,-0.39609391565711993
-0.3180824412091865,-0.3180824412091865
-0.37513560908901844,-0.37513560908901844
-0.486331068936446,-0.486331068936446
-0.5119467769641257,-0.5119467769641257
-0.40191566748159263,-0.40191566748159263
-0.28024105435011426,-0.28024105435011426
-0.23366703975433306,-0.23366703975433306
-0.2715084266134053,-0.2715084266134053
-0.3180824412091865,-0.3180824412091865
-0.339040747777288,-0.339040747777288
-0.3180824412091865,-0.3180824412091865
-0.30236371128311035,-0.30236371128311035
-0.3180824412091865,-0.3180824412091865
-0.37338908354167666,-0.37338908354167666
-0.40191566748159263,-0.40191566748159263
-0.38270388646083286,-0.38270388646083286
-0.3180824412091865,-0.3180824412091865
-0.2447283682208311,-0.2447283682208311
-0.14925163829947968,-0.14925163829947968
-0.0561036091079173,-0.0561036091079173
0.019579164610227132,0.019579164610227132
0.08187190913208447,0.08187190913208447
0.18840996751993394,0.18840996751993394
0.2827223470763908,0.2827223470763908
0.2728253689747873,0.2728253689747873
0.1575546828502289,0.1575546828502289
0.10399456606508053,0.10399456606508053
0.15289728139065079,0.15289728139065079
0.18840996751993394,0.18840996751993394
0.12669939818052386,0.12669939818052386
0.10399456606508053,0.10399456606508053
0.17210906241141052,0.17210906241141052
0.18840996751993394,0.18840996751993394
0.02540091643469978,0.02540091643469978
-0.14925163829947968,-0.14925163829947968
-0.16147731713087224,-0.16147731713087224
-0.06483623684462626,-0.06483623684462626
-0.038056178452052086,-0.038056178452052086
-0.06483623684462626,-0.06483623684462626
-0.07007581348665165,-0.07007581348665165
-0.06483623684462626,-0.06483623684462626
-0.11664982808243284,-0.11664982808243284
-0.14925163829947968,-0.14925163829947968
-0.10849937552817113,-0.10849937552817113
-0.06483623684462626,-0.06483623684462626
-0.1486694631170324,-0.1486694631170324
-0.3180824412091865,-0.3180824412091865
-0.47992714192952607,-0.47992714192952607
-0.5707464703912994,-0.5707464703912994
-0.6173204849870806,-0.6173204849870806
-0.5707464703912994,-0.5707464703912994
-0.45256490835450464,-0.45256490835450464
-0.3180824412091865,-0.3180824412091865
-0.2843162806272451,-0.2843162806272451
-0.3180824412091865,-0.3180824412091865
-0.34602684996665517,-0.34602684996665517
-0.3180824412091865,-0.3180824412091865
-0.2977063098235322,-0.2977063098235322
-0.3180824412091865,-0.3180824412091865
-0.36756733171720396,-0.36756733171720396
-0.40191566748159263,-0.40191566748159263
-0.48283801784176245,-0.48283801784176245
-0.6551618718461528,-0.6551618718461528
-0.8589231857026955,-0.8589231857026955
-0.8239926747558596,-0.8239926747558596
-0.31400721493205563,-0.31400721493205563
0.6943202010666071,0.6943202010666071
1.9285315878548086,1.9285315878548086
3.140620317710014,3.140620317710014
4.2519927410018425,4.2519927410018425
5.249258828534008,5.249258828534008
5.815715281055196,5.815715281055196
5.501922857716121,5.501922857716121
4.186789120567749,4.186789120567749
2.3814638797987806,2.3814638797987806
0.7746603762443296,0.7746603762443296
-0.23366703975433306,-0.23366703975433306
-0.6493401200216802,-0.6493401200216802
-0.5707464703912994,-0.5707464703912994
-0.1556555653063996,-0.1556555653063996
0.35724077042964075,0.35724077042964075
0.6663757923091383,0.6663757923091383
0.6943202010666071,0.6943202010666071
0.5825425660367323,0.5825425660367323
0.5254893981569003,0.5254893981569003
0.5103528434132714,0.5103528434132714
0.4410739967020469,0.4410739967020469
0.31066675583385955,0.31066675583385955
0.2728253689747873,0.2728253689747873
0.3560764200647462,0.3560764200647462
0.4410739967020469,0.4410739967020469
0.3799456025450841,0.3799456025450841
0.2728253689747873,0.2728253689747873
0.22916223029124247,0.22916223029124247
0.2728253689747873,0.2728253689747873
0.2850510478061799,0.2850510478061799
0.2728253689747873,0.2728253689747873
0.26583926678542014,0.26583926678542014
0.2728253689747873,0.2728253689747873
0.23440180693326784,0.23440180693326784
0.18840996751993394,0.18840996751993394
0.19423171934440658,0.19423171934440658
0.2728253689747873,0.2728253689747873
0.3135776317460959,0.3135776317460959
0.2728253689747873,0.2728253689747873
0.21344350036516632,0.21344350036516632
0.2728253689747873,0.2728253689747873
0.397410858018502,0.397410858018502
0.4410739967020469,0.4410739967020469
0.34385074123335363,0.34385074123335363
0.2728253689747873,0.2728253689747873
0.30717370473917593,0.30717370473917593
0.35724077042964075,0.35724077042964075
0.3083380551040705,0.3083380551040705
0.2728253689747873,0.2728253689747873
0.3386111645913283,0.3386111645913283
0.4410739967020469,0.4410739967020469
0.4521353251685449,0.4521353251685449
0.4410739967020469,0.4410739967020469
0.47949755874356637,0.47949755874356637
0.5254893981569003,0.5254893981569003
0.48415496020314447,0.48415496020314447
0.4410739967020469,0.4410739967020469
0.4672718799121738,0.4672718799121738
0.5254893981569003,0.5254893981569003
0.5208319966973222,0.5208319966973222
0.5254893981569003,0.5254893981569003
0.5976791207803611,0.5976791207803611
0.6943202010666071,0.6943202010666071
0.7082924054453414,0.7082924054453414
0.6943202010666071,0.6943202010666071
0.7141141572698141,0.7141141572698141
0.7787356025214605,0.7787356025214605
0.8386996463135288,0.8386996463135288
0.9475664054311673,0.9475664054311673
1.0925280258605363,1.0925280258605363
1.2002304346132802,1.2002304346132802
1.2054700112553056,1.2054700112553056
1.2002304346132802,1.2002304346132802
1.2142026389920146,1.2142026389920146
1.2002304346132802,1.2002304346132802
1.146670317828132,1.146670317828132
1.2002304346132802,1.2002304346132802
1.3591642594213835,1.3591642594213835
1.4534766389778404,1.4534766389778404
1.3900195440910885,1.3900195440910885
1.369061237522987,1.369061237522987
1.4988863032087272,1.4988863032087272
1.6223074418875472,1.6223074418875472
1.5565216462710063,1.5565216462710063
1.4534766389778404,1.4534766389778404
1.4948110769315963,1.4948110769315963
1.6223074418875472,1.6223074418875472
1.6304578944418089,1.6304578944418089
1.537892040432694,1.537892040432694
1.4476548871533679,1.4476548871533679
1.369061237522987,1.369061237522987
1.21303828862712,1.21303828862712
1.0319818068860207,1.0319818068860207
0.8899310623688881,0.8899310623688881
0.7787356025214605,0.7787356025214605
0.6157265514362263,0.6157265514362263
0.4410739967020469,0.4410739967020469
0.29902325218491427,0.29902325218491427
0.18840996751993394,0.18840996751993394
0.05218097482727396,0.05218097482727396
-0.06483623684462626,-0.06483623684462626
-0.12945768209627267,-0.12945768209627267
-0.14925163829947968,-0.14925163829947968
-0.21096220763888973,-0.21096220763888973
-0.3180824412091865,-0.3180824412091865
-0.4333531273337449,-0.4333531273337449
-0.486331068936446,-0.486331068936446
-0.49739239740294405,-0.49739239740294405
-0.486331068936446,-0.486331068936446
-0.4880775944837878,-0.4880775944837878
-0.486331068936446,-0.486331068936446
-0.514857652876362,-0.514857652876362
-0.5707464703912994,-0.5707464703912994
-0.6179026601695279,-0.6179026601695279
-0.5707464703912994,-0.5707464703912994
-0.48574889375399877,-0.48574889375399877
-0.486331068936446,-0.486331068936446
-0.6231422368115532,-0.6231422368115532
-0.7395772733010062,-0.7395772733010062
-0.7290981200169554,-0.7290981200169554
-0.6551618718461528,-0.6551618718461528
-0.6685519010424399,-0.6685519010424399
-0.7395772733010062,-0.7395772733010062
-0.7523851273148461,-0.7523851273148461
-0.6551618718461528,-0.6551618718461528
-0.5637603682019322,-0.5637603682019322
-0.5707464703912994,-0.5707464703912994
-0.6883458572456469,-0.6883458572456469
-0.8239926747558596,-0.8239926747558596
-0.9095724265756076,-0.9095724265756076
-0.9084080762107131,-0.9084080762107131
-0.8670736382569572,-0.8670736382569572
-0.8239926747558596,-0.8239926747558596
-0.7948839156334964,-0.7948839156334964
-0.7395772733010062,-0.7395772733010062
-0.6767023535967016,-0.6767023535967016
-0.6551618718461528,-0.6551618718461528
-0.7256050689222718,-0.7256050689222718
-0.8239926747558596,-0.8239926747558596
-0.8705666893516408,-0.8705666893516408
-0.8239926747558596,-0.8239926747558596
-0.7558781784095296,-0.7558781784095296
-0.7395772733010062,-0.7395772733010062
-0.8146778718367034,-0.8146778718367034
-0.9084080762107131,-0.9084080762107131
-0.9287842075963673,-0.9287842075963673
-0.8239926747558596,-0.8239926747558596
-0.6953319594350141,-0.6953319594350141
-0.6551618718461528,-0.6551618718461528
-0.7145437404557738,-0.7145437404557738
-0.7395772733010062,-0.7395772733010062
-0.6912567331578833,-0.6912567331578833
-0.6551618718461528,-0.6551618718461528
-0.7273515944696136,-0.7273515944696136
-0.8239926747558596,-0.8239926747558596
-0.831560952127674,-0.831560952127674
-0.7395772733010062,-0.7395772733010062
-0.6662232003126508,-0.6662232003126508
-0.6551618718461528,-0.6551618718461528
-0.6720449521371235,-0.6720449521371235
-0.6551618718461528,-0.6551618718461528
-0.6406074922849712,-0.6406074922849712
-0.6551618718461528,-0.6551618718461528
-0.684270630968516,-0.684270630968516
-0.6551618718461528,-0.6551618718461528
-0.59403347768919,-0.59403347768919
-0.5707464703912994,-0.5707464703912994
-0.6219778864466587,-0.6219778864466587
-0.6551618718461528,-0.6551618718461528
-0.6254709375413423,-0.6254709375413423
-0.5707464703912994,-0.5707464703912994
-0.5649247185668268,-0.5649247185668268
-0.5707464703912994,-0.5707464703912994
-0.5649247185668268,-0.5649247185668268
-0.5707464703912994,-0.5707464703912994
-0.6277996382711314,-0.6277996382711314
-0.6551618718461528,-0.6551618718461528
-0.5957800032365318,-0.5957800032365318
-0.486331068936446,-0.486331068936446
-0.44616098134758475,-0.44616098134758475
-0.486331068936446,-0.486331068936446
-0.5521168645529869,-0.5521168645529869
-0.5707464703912994,-0.5707464703912994
-0.5492059886407507,-0.5492059886407507
-0.486331068936446,-0.486331068936446
-0.4024978426640399,-0.4024978426640399
-0.3180824412091865,-0.3180824412091865
-0.31342503974960834,-0.31342503974960834
-0.40191566748159263,-0.40191566748159263
-0.5055428499572058,-0.5055428499572058
-0.486331068936446,-0.486331068936446
-0.378628660183702,-0.378628660183702
-0.3180824412091865,-0.3180824412091865
-0.3704782076294403,-0.3704782076294403
-0.40191566748159263,-0.40191566748159263
-0.35301295215602235,-0.35301295215602235
-0.3180824412091865,-0.3180824412091865
-0.4001691419342508,-0.4001691419342508
-0.486331068936446,-0.486331068936446
-0.4717766893752644,-0.4717766893752644
-0.40191566748159263,-0.40191566748159263
-0.3955117404746727,-0.3955117404746727
-0.40191566748159263,-0.40191566748159263
-0.36523863098741494,-0.36523863098741494
-0.3180824412091865,-0.3180824412091865
-0.32856159449323724,-0.32856159449323724
-0.3180824412091865,-0.3180824412091865
-0.2383244412139112,-0.2383244412139112
-0.14925163829947968,-0.14925163829947968
-0.12421810545424729,-0.12421810545424729
-0.06483623684462626,-0.06483623684462626
0.09060453686879344,0.09060453686879344
0.2728253689747873,0.2728253689747873
0.37354167553816414,0.37354167553816414
0.4410739967020469,0.4410739967020469
0.48881236166272257,0.48881236166272257
0.4410739967020469,0.4410739967020469
0.2582709894136057,0.2582709894136057
0.10399456606508053,0.10399456606508053
0.08187190913208447,0.08187190913208447
0.10399456606508053,0.10399456606508053
0.03122266825917243,0.03122266825917243
-0.06483623684462626,-0.06483623684462626
-0.08928759450741139,-0.08928759450741139
-0.06483623684462626,-0.06483623684462626
-0.07298668939888797,-0.07298668939888797
-0.06483623684462626,-0.06483623684462626
-0.032816601810026706,-0.032816601810026706
-0.06483623684462626,-0.06483623684462626
-0.211544382821337,-0.211544382821337
-0.3180824412091865,-0.3180824412091865
-0.2942132587288486,-0.2942132587288486
-0.23366703975433306,-0.23366703975433306
-0.2668510251538272,-0.2668510251538272
-0.3180824412091865,-0.3180824412091865
-0.3145893901145029,-0.3145893901145029
-0.3180824412091865,-0.3180824412091865
-0.43626400324598125,-0.43626400324598125
-0.5707464703912994,-0.5707464703912994
-0.6161561346221861,-0.6161561346221861
-0.5707464703912994,-0.5707464703912994
-0.5637603682019322,-0.5637603682019322
-0.5707464703912994,-0.5707464703912994
-0.5480416382758561,-0.5480416382758561
-0.486331068936446,-0.486331068936446
-0.495063696673155,-0.495063696673155
-0.5707464703912994,-0.5707464703912994
-0.6033482806083462,-0.6033482806083462
-0.486331068936446,-0.486331068936446
-0.3524307769735751,-0.3524307769735751
-0.40191566748159263,-0.40191566748159263
-0.6505044703865747,-0.6505044703865747
-0.8239926747558596,-0.8239926747558596
-0.7564603535919769,-0.7564603535919769
-0.486331068936446,-0.486331068936446
-0.0561036091079173,-0.0561036091079173
0.6943202010666071,0.6943202010666071
1.777748215600967,1.777748215600967
2.971789514800307,2.971789514800307
4.078504536632558,4.078504536632558
5.080428025624301,5.080428025624301
5.684143689822115,5.684143689822115
5.333674229988861,5.333674229988861
3.881729324965382,3.881729324965382
2.043802273979367,2.043802273979367
0.6378492083692224,0.6378492083692224
-0.14925163829947968,-0.14925163829947968
-0.5730751711210885,-0.5730751711210885
-0.6551618718461528,-0.6551618718461528
-0.3076032879251357,-0.3076032879251357
0.2728253689747873,0.2728253689747873
0.6541501134777458,0.6541501134777458
0.6943202010666071,0.6943202010666071
0.5580912083739471,0.5580912083739471
0.4410739967020469,0.4410739967020469
0.3549120696998517,0.3549120696998517
0.2728253689747873,0.2728253689747873
0.1540616317555453,0.1540616317555453
0.019579164610227132,0.019579164610227132
-0.08404801786538602,-0.08404801786538602
-0.06483623684462626,-0.06483623684462626
0.00735348577883457,0.00735348577883457
0.019579164610227132,0.019579164610227132
-0.08346584268293875,-0.08346584268293875
-0.14925163829947968,-0.14925163829947968
-0.12247157990690549,-0.12247157990690549
-0.06483623684462626,-0.06483623684462626
-0.07065798866909892,-0.07065798866909892
-0.06483623684462626,-0.06483623684462626
0.013757412785754482,0.013757412785754482
0.10399456606508053,0.10399456606508053
0.06557100402356106,0.06557100402356106
-0.06483623684462626,-0.06483623684462626
-0.14284771129255977,-0.14284771129255977
-0.06483623684462626,-0.06483623684462626
0.058584901834193875,0.058584901834193875
0.10399456606508053,0.10399456606508053
0.049852274097484904,0.049852274097484904
0.019579164610227132,0.019579164610227132
0.05043444927993217,0.05043444927993217
0.10399456606508053,0.10399456606508053
0.12961027409276019,0.12961027409276019
0.18840996751993394,0.18840996751993394
0.2635105660556311,0.2635105660556311
0.2728253689747873,0.2728253689747873
0.16978036168162144,0.16978036168162144
0.10399456606508053,0.10399456606508053
0.16221208430980702,0.16221208430980702
0.2728253689747873,0.2728253689747873
0.2949480259077834,0.2949480259077834
0.2728253689747873,0.2728253689747873
0.26583926678542014,0.26583926678542014
0.2728253689747873,0.2728253689747873
0.24720966094710767,0.24720966094710767
0.2728253689747873,0.2728253689747873
0.36364469743656064,0.36364469743656064
0.4410739967020469,0.4410739967020469
0.4271017923233125,0.4271017923233125
0.4410739967020469,0.4410739967020469
0.5551803324617107,0.5551803324617107
0.6943202010666071,0.6943202010666071
0.7222646098240758,0.7222646098240758
0.6943202010666071,0.6943202010666071
0.6820945222352145,0.6820945222352145
0.6943202010666071,0.6943202010666071
0.6966489017963962,0.6966489017963962
0.7787356025214605,0.7787356025214605
0.9510594565258509,0.9510594565258509
1.115815033158427,1.115815033158427
1.1705395003084698,1.1705395003084698
1.2002304346132802,1.2002304346132802
1.2555370769457703,1.2555370769457703
1.2846458360681337,1.2846458360681337
1.22584614264096,1.22584614264096
1.2002304346132802,1.2002304346132802
1.2770775586963192,1.2770775586963192
1.369061237522987,1.369061237522987
1.3440277046777547,1.3440277046777547
1.2846458360681337,1.2846458360681337
1.3195763470149695,1.3195763470149695
1.4534766389778404,1.4534766389778404
1.5402207411624829,1.5402207411624829
1.537892040432694,1.537892040432694
1.4889893251071236,1.4889893251071236
1.4534766389778404,1.4534766389778404
1.3900195440910885,1.3900195440910885
1.2846458360681337,1.2846458360681337
1.146670317828132,1.146670317828132
1.0319818068860207,1.0319818068860207
0.9196219966736986,0.9196219966736986
0.7787356025214605,0.7787356025214605
0.573227763117576,0.573227763117576
0.35724077042964075,0.35724077042964075
0.16337643467470153,0.16337643467470153
0.019579164610227132,0.019579164610227132
-0.09510934633188405,-0.09510934633188405
-0.14925163829947968,-0.14925163829947968
-0.1556555653063996,-0.1556555653063996
-0.14925163829947968,-0.14925163829947968
-0.20630480617931163,-0.20630480617931163
-0.3180824412091865,-0.3180824412091865
-0.4595510105438718,-0.4595510105438718
-0.5707464703912994,-0.5707464703912994
-0.6213957112642114,-0.6213957112642114
-0.5707464703912994,-0.5707464703912994
-0.495063696673155,-0.495063696673155
-0.486331068936446,-0.486331068936446
-0.5788969229455612,-0.5788969229455612
-0.6551618718461528,-0.6551618718461528
-0.6673875506775454,-0.6673875506775454
-0.6551618718461528,-0.6551618718461528
-0.6749558280493598,-0.6749558280493598
-0.6551618718461528,-0.6551618718461528
-0.5917047769594009,-0.5917047769594009
-0.5707464703912994,-0.5707464703912994
-0.6586549229408364,-0.6586549229408364
-0.7395772733010062,-0.7395772733010062
-0.7453990251254788,-0.7453990251254788
-0.7395772733010062,-0.7395772733010062
-0.7995413170930745,-0.7995413170930745
-0.8239926747558596,-0.8239926747558596
-0.7506386017675042,-0.7506386017675042
-0.6551618718461528,-0.6551618718461528
-0.6452648937445493,-0.6452648937445493
-0.6551618718461528,-0.6551618718461528
-0.6388609667376294,-0.6388609667376294
-0.6551618718461528,-0.6551618718461528
-0.761117755051555,-0.761117755051555
-0.8239926747558596,-0.8239926747558596
-0.7552960032270823,-0.7552960032270823
-0.6551618718461528,-0.6551618718461528
-0.6970784849823559,-0.6970784849823559
-0.8239926747558596,-0.8239926747558596
-0.8589231857026955,-0.8589231857026955
-0.7395772733010062,-0.7395772733010062
-0.6289639886360259,-0.6289639886360259
-0.6551618718461528,-0.6551618718461528
-0.7768364849776311,-0.7768364849776311
-0.8239926747558596,-0.8239926747558596
-0.7541316528621879,-0.7541316528621879
-0.6551618718461528,-0.6551618718461528
-0.6376966163727349,-0.6376966163727349
-0.6551618718461528,-0.6551618718461528
-0.6342035652780513,-0.6342035652780513
-0.5707464703912994,-0.5707464703912994
-0.5689999448439577,-0.5689999448439577
-0.6551618718461528,-0.6551618718461528
-0.7756721346127367,-0.7756721346127367
-0.8239926747558596,-0.8239926747558596
-0.7745077842478421,-0.7745077842478421
-0.6551618718461528,-0.6551618718461528
-0.5695821200264048,-0.5695821200264048
-0.5707464703912994,-0.5707464703912994
-0.6359500908253931,-0.6359500908253931
-0.6551618718461528,-0.6551618718461528
-0.6109165579801606,-0.6109165579801606
-0.5707464703912994,-0.5707464703912994
-0.6074235068854771,-0.6074235068854771
-0.6551618718461528,-0.6551618718461528
-0.644682718562102,-0.644682718562102
-0.5707464703912994,-0.5707464703912994
-0.5125289521465729,-0.5125289521465729
-0.486331068936446,-0.486331068936446
-0.486331068936446,-0.486331068936446
-0.486331068936446,-0.486331068936446
-0.49448152149070773,-0.49448152149070773
-0.486331068936446,-0.486331068936446
-0.47992714192952607,-0.47992714192952607
-0.486331068936446,-0.486331068936446
-0.5067072003221003,-0.5067072003221003
-0.486331068936446,-0.486331068936446
-0.4583866601789773,-0.4583866601789773
-0.486331068936446,-0.486331068936446
-0.5684177696615104,-0.5684177696615104
-0.5707464703912994,-0.5707464703912994
-0.4764340908348425,-0.4764340908348425
-0.40191566748159263,-0.40191566748159263
-0.4420857550704539,-0.4420857550704539
-0.486331068936446,-0.486331068936446
-0.4537292587193992,-0.4537292587193992
-0.40191566748159263,-0.40191566748159263
-0.4368461784284285,-0.4368461784284285
-0.486331068936446,-0.486331068936446
-0.4647905871858972,-0.4647905871858972
-0.40191566748159263,-0.40191566748159263
-0.41938092295501056,-0.41938092295501056
-0.486331068936446,-0.486331068936446
-0.4979745725853913,-0.4979745725853913
-0.40191566748159263,-0.40191566748159263
-0.3151715652969502,-0.3151715652969502
-0.3180824412091865,-0.3180824412091865
-0.3861969375555165,-0.3861969375555165
-0.40191566748159263,-0.40191566748159263
-0.358834703980495,-0.358834703980495
-0.3180824412091865,-0.3180824412091865
-0.3273972441283427,-0.3273972441283427
-0.3180824412091865,-0.3180824412091865
-0.270926251430958,-0.270926251430958
-0.23366703975433306,-0.23366703975433306
-0.2482214193155147,-0.2482214193155147
-0.23366703975433306,-0.23366703975433306
-0.17486734632715933,-0.17486734632715933
-0.14925163829947968,-0.14925163829947968
-0.21387308355112605,-0.21387308355112605
-0.23366703975433306,-0.23366703975433306
-0.1055884996159348,-0.1055884996159348
0.10399456606508053,0.10399456606508053
0.2320731062034788,0.2320731062034788
0.2728253689747873,0.2728253689747873
0.28097582152904904,0.28097582152904904
0.2728253689747873,0.2728253689747873
0.2006356463513265,0.2006356463513265
0.10399456606508053,0.10399456606508053
0.014339587968201747,0.014339587968201747
-0.06483623684462626,-0.06483623684462626
-0.1422655361101125,-0.1422655361101125
-0.14925163829947968,-0.14925163829947968
-0.0956915215143313,-0.0956915215143313
-0.06483623684462626,-0.06483623684462626
-0.11373895217019651,-0.11373895217019651
-0.14925163829947968,-0.14925163829947968
-0.13993683538032342,-0.13993683538032342
-0.14925163829947968,-0.14925163829947968
-0.21969483537559872,-0.21969483537559872
-0.23366703975433306,-0.23366703975433306
-0.16729906895534488,-0.16729906895534488
-0.14925163829947968,-0.14925163829947968
-0.2761658280729834,-0.2761658280729834
-0.40191566748159263,-0.40191566748159263
-0.41938092295501056,-0.41938092295501056
-0.40191566748159263,-0.40191566748159263
-0.486331068936446,-0.486331068936446
-0.5707464703912994,-0.5707464703912994
-0.5620138426545904,-0.5620138426545904
-0.486331068936446,-0.486331068936446
-0.48225584265931515,-0.48225584265931515
-0.486331068936446,-0.486331068936446
-0.42636702514437774,-0.42636702514437774
-0.3180824412091865,-0.3180824412091865
-0.2860628061745869,-0.2860628061745869
-0.3180824412091865,-0.3180824412091865
-0.33845857259484075,-0.33845857259484075
-0.3180824412091865,-0.3180824412091865
-0.35534165288581143,-0.35534165288581143
-0.486331068936446,-0.486331068936446
-0.6429361930147602,-0.6429361930147602
-0.6551618718461528,-0.6551618718461528
-0.44616098134758475,-0.44616098134758475
0.019579164610227132,0.019579164610227132
0.7682564492374097,0.7682564492374097
1.8749714710696601,1.8749714710696601
3.2407544490909435,3.2407544490909435
4.574517792077627,4.574517792077627
5.509491135087935,5.509491135087935
5.839584463535534,5.839584463535534
5.451855792025656,5.451855792025656
4.40568698916792,4.40568698916792
2.9962408724630922,2.9962408724630922
1.7067228433424007,1.7067228433424007
0.7653455733251734,0.7653455733251734
0.10399456606508053,0.10399456606508053
-0.3256507185810009,-0.3256507185810009
-0.3180824412091865,-0.3180824412091865
0.14765770474862538,0.14765770474862538
0.6943202010666071,0.6943202010666071
0.8928419382811243,0.8928419382811243
0.7787356025214605,0.7787356025214605
0.6186374273484626,0.6186374273484626
0.5254893981569003,0.5254893981569003
0.4020682594780801,0.4020682594780801
0.2728253689747873,0.2728253689747873
0.22450482883166437,0.22450482883166437
0.2728253689747873,0.2728253689747873
0.2920371499955471,0.2920371499955471
0.2728253689747873,0.2728253689747873
0.24429878503487135,0.24429878503487135
0.2728253689747873,0.2728253689747873
0.3135776317460959,0.3135776317460959
0.35724077042964075,0.35724077042964075
0.3409398653211173,0.3409398653211173
0.2728253689747873,0.2728253689747873
0.18957431788482845,0.18957431788482845
0.18840996751993394,0.18840996751993394
0.24604531058221316,0.24604531058221316
0.2728253689747873,0.2728253689747873
0.19248519379706477,0.19248519379706477
0.10399456606508053,0.10399456606508053
0.12320634708584027,0.12320634708584027
0.2728253689747873,0.2728253689747873
0.38402082882221494,0.38402082882221494
0.35724077042964075,0.35724077042964075
0.25768881423115847,0.25768881423115847
0.2728253689747873,0.2728253689747873
0.38634952955200397,0.38634952955200397
0.4410739967020469,0.4410739967020469
0.3479259675104845,0.3479259675104845
0.2728253689747873,0.2728253689747873
0.32754983612483024,0.32754983612483024
0.4410739967020469,0.4410739967020469
0.4608679529052539,0.4608679529052539
0.4410739967020469,0.4410739967020469
0.4684362302770683,0.4684362302770683
0.5254893981569003,0.5254893981569003
0.5016202156765625,0.5016202156765625
0.4410739967020469,0.4410739967020469
0.41487611349191994,0.41487611349191994
0.4410739967020469,0.4410739967020469
0.4672718799121738,0.4672718799121738
0.5254893981569003,0.5254893981569003
0.5895286682260994,0.5895286682260994
0.6099047996117537,0.6099047996117537
0.5959325952330193,0.5959325952330193
0.6943202010666071,0.6943202010666071
0.8707192813481284,0.8707192813481284
0.9475664054311673,0.9475664054311673
0.8637331791587611,0.8637331791587611
0.8631510039763138,0.8631510039763138
1.0407144346227297,1.0407144346227297
1.2002304346132802,1.2002304346132802
1.1396842156387648,1.1396842156387648
1.0319818068860207,1.0319818068860207
1.072151894474882,1.072151894474882
1.2002304346132802,1.2002304346132802
1.2200243908164872,1.2200243908164872
1.2002304346132802,1.2002304346132802
1.2863923616154753,1.2863923616154753
1.4534766389778404,1.4534766389778404
1.5087832813103306,1.5087832813103306
1.4534766389778404,1.4534766389778404
1.4301896316799498,1.4301896316799498
1.537892040432694,1.537892040432694
1.6671349309359866,1.6671349309359866
1.7067228433424007,1.7067228433424007
1.6304578944418089,1.6304578944418089
1.537892040432694,1.537892040432694
1.4790923470055202,1.4790923470055202
1.4534766389778404,1.4534766389778404
1.3894373689086412,1.3894373689086412
1.2846458360681337,1.2846458360681337
1.1507455441052628,1.1507455441052628
1.0319818068860207,1.0319818068860207
0.9283546244104075,0.9283546244104075
0.8631510039763138,0.8631510039763138
0.7950365076299839,0.7950365076299839
0.6943202010666071,0.6943202010666071
0.5522694565494745,0.5522694565494745
0.4410739967020469,0.4410739967020469
0.3415220405035646,0.3415220405035646
0.18840996751993394,0.18840996751993394
-0.04504228064141926,-0.04504228064141926
-0.23366703975433306,-0.23366703975433306
-0.3343833463177099,-0.3343833463177099
-0.40191566748159263,-0.40191566748159263
-0.486331068936446,-0.486331068936446
-0.486331068936446,-0.486331068936446
-0.4129769959480906,-0.4129769959480906
-0.40191566748159263,-0.40191566748159263
-0.5387268353566999,-0.5387268353566999
-0.6551618718461528,-0.6551618718461528
-0.659819273305731,-0.659819273305731
-0.6551618718461528,-0.6551618718461528
-0.7576247039568714,-0.7576247039568714
-0.8239926747558596,-0.8239926747558596
-0.7512207769499515,-0.7512207769499515
-0.6551618718461528,-0.6551618718461528
-0.7098863389961957,-0.7098863389961957
-0.8239926747558596,-0.8239926747558596
-0.857758835337801,-0.857758835337801
-0.8239926747558596,-0.8239926747558596
-0.831560952127674,-0.831560952127674
-0.8239926747558596,-0.8239926747558596
-0.741323798848348,-0.741323798848348
-0.6551618718461528,-0.6551618718461528
-0.6999893608945922,-0.6999893608945922
-0.8239926747558596,-0.8239926747558596
-0.9089902513931603,-0.9089902513931603
-0.9084080762107131,-0.9084080762107131
-0.8781349667234553,-0.8781349667234553
-0.8239926747558596,-0.8239926747558596
-0.7657751565111331,-0.7657751565111331
-0.7395772733010062,-0.7395772733010062
-0.7814938864372093,-0.7814938864372093
-0.8239926747558596,-0.8239926747558596
-0.8298144265803322,-0.8298144265803322
-0.8239926747558596,-0.8239926747558596
-0.8659092878920627,-0.8659092878920627
-0.9084080762107131,-0.9084080762107131
-0.8950180470144259,-0.8950180470144259
-0.8239926747558596,-0.8239926747558596
-0.7884799886265764,-0.7884799886265764
-0.8239926747558596,-0.8239926747558596
-0.8938536966495314,-0.8938536966495314
-0.9084080762107131,-0.9084080762107131
-0.8682379886218518,-0.8682379886218518
-0.8239926747558596,-0.8239926747558596
-0.8222461492085178,-0.8222461492085178
-0.8239926747558596,-0.8239926747558596
-0.820499623661176,-0.820499623661176
-0.8239926747558596,-0.8239926747558596
-0.8426222805941721,-0.8426222805941721
-0.8239926747558596,-0.8239926747558596
-0.7972126163632854,-0.7972126163632854
-0.8239926747558596,-0.8239926747558596
-0.8827923681830333,-0.8827923681830333
-0.8239926747558596,-0.8239926747558596
-0.6569083973934946,-0.6569083973934946
-0.5707464703912994,-0.5707464703912994
-0.6860171565158578,-0.6860171565158578
-0.8239926747558596,-0.8239926747558596
-0.8193352732962815,-0.8193352732962815
-0.7395772733010062,-0.7395772733010062
-0.7570425287744241,-0.7570425287744241
-0.8239926747558596,-0.8239926747558596
-0.8181709229313869,-0.8181709229313869
-0.7395772733010062,-0.7395772733010062
-0.710468514178643,-0.710468514178643
-0.7395772733010062,-0.7395772733010062
-0.7849869375318929,-0.7849869375318929
-0.8239926747558596,-0.8239926747558596
-0.857758835337801,-0.857758835337801
-0.8239926747558596,-0.8239926747558596
-0.7512207769499515,-0.7512207769499515
-0.7395772733010062,-0.7395772733010062
-0.8140956966542561,-0.8140956966542561
-0.8239926747558596,-0.8239926747558596
-0.7273515944696136,-0.7273515944696136
-0.6551618718461528,-0.6551618718461528
-0.7063932879015121,-0.7063932879015121
-0.7395772733010062,-0.7395772733010062
-0.6604014484881782,-0.6604014484881782
-0.5707464703912994,-0.5707464703912994
-0.60043740469611,-0.60043740469611
-0.6551618718461528,-0.6551618718461528
-0.6499222952041275,-0.6499222952041275
-0.6551618718461528,-0.6551618718461528
-0.7616999302340023,-0.7616999302340023
-0.8239926747558596,-0.8239926747558596
-0.7034824119892757,-0.7034824119892757
-0.486331068936446,-0.486331068936446
-0.40482654339382895,-0.40482654339382895
-0.486331068936446,-0.486331068936446
-0.6062591565205826,-0.6062591565205826
-0.6551618718461528,-0.6551618718461528
-0.6662232003126508,-0.6662232003126508
-0.6551618718461528,-0.6551618718461528
-0.6283818134535786,-0.6283818134535786
-0.5707464703912994,-0.5707464703912994
-0.5183507039710455,-0.5183507039710455
-0.486331068936446,-0.486331068936446
-0.5090359010518893,-0.5090359010518893
-0.5707464703912994,-0.5707464703912994
-0.6423540178323129,-0.6423540178323129
-0.6551618718461528,-0.6551618718461528
-0.6179026601695279,-0.6179026601695279
-0.5707464703912994,-0.5707464703912994
-0.5707464703912994,-0.5707464703912994
-0.5707464703912994,-0.5707464703912994
-0.4985567477678386,-0.4985567477678386
-0.3180824412091865,-0.3180824412091865
-0.13935466019787618,-0.13935466019787618
-0.06483623684462626,-0.06483623684462626
-0.08695889377762234,-0.08695889377762234
-0.06483623684462626,-0.06483623684462626
0.032387018624066954,0.032387018624066954
0.10399456606508053,0.10399456606508053
0.044030522273012254,0.044030522273012254
-0.06483623684462626,-0.06483623684462626
-0.1073350251632766,-0.1073350251632766
-0.06483623684462626,-0.06483623684462626
-0.040967054364288415,-0.040967054364288415
-0.06483623684462626,-0.06483623684462626
-0.11373895217019651,-0.11373895217019651
-0.14925163829947968,-0.14925163829947968
-0.19116825143568275,-0.19116825143568275
-0.23366703975433306,-0.23366703975433306
-0.2814054047150088,-0.2814054047150088
-0.3180824412091865,-0.3180824412091865
-0.3396229229597353,-0.3396229229597353
-0.3180824412091865,-0.3180824412091865
-0.29479543391129587,-0.29479543391129587
-0.3180824412091865,-0.3180824412091865
-0.3867791127379637,-0.3867791127379637
-0.40191566748159263,-0.40191566748159263
-0.3524307769735751,-0.3524307769735751
-0.3180824412091865,-0.3180824412091865
-0.3838682368257274,-0.3838682368257274
-0.486331068936446,-0.486331068936446
-0.5783147477631139,-0.5783147477631139
-0.6551618718461528,-0.6551618718461528
-0.7419059740307953,-0.7419059740307953
-0.7395772733010062,-0.7395772733010062
-0.6528331711163637,-0.6528331711163637
-0.5707464703912994,-0.5707464703912994
-0.60043740469611,-0.60043740469611
-0.6551618718461528,-0.6551618718461528
-0.6673875506775454,-0.6673875506775454
-0.6551618718461528,-0.6551618718461528
-0.670880601772229,-0.670880601772229
-0.6551618718461528,-0.6551618718461528
-0.6173204849870806,-0.6173204849870806
-0.6551618718461528,-0.6551618718461528
-0.8158422222015979,-0.8158422222015979
-0.9084080762107131,-0.9084080762107131
-0.7692682076058167,-0.7692682076058167
-0.40191566748159263,-0.40191566748159263
0.10632326679486959,0.10632326679486959
0.8631510039763138,0.8631510039763138
1.9937352082889022,1.9937352082889022
3.393284346892127,3.393284346892127
4.625167032950539,4.625167032950539
5.249258828534008,5.249258828534008
5.048408390589701,5.048408390589701
4.15244078480336,4.15244078480336
2.865251456412458,2.865251456412458
1.537892040432694,1.537892040432694
0.39682868283605477,0.39682868283605477
-0.40191566748159263,-0.40191566748159263
-0.769850382788264,-0.769850382788264
-0.6551618718461528,-0.6551618718461528
-0.18942172588834094,-0.18942172588834094
0.35724077042964075,0.35724077042964075
0.6803479966878727,0.6803479966878727
0.6943202010666071,0.6943202010666071
0.5179211207850858,0.5179211207850858
0.35724077042964075,0.35724077042964075
0.26583926678542014,0.26583926678542014
0.18840996751993394,0.18840996751993394
0.055674025921957554,0.055674025921957554
-0.06483623684462626,-0.06483623684462626
-0.10966372589306567,-0.10966372589306567
-0.06483623684462626,-0.06483623684462626
-0.04154922954673568,-0.04154922954673568
-0.06483623684462626,-0.06483623684462626
-0.10500632443348755,-0.10500632443348755
-0.06483623684462626,-0.06483623684462626
0.003278259501703716,0.003278259501703716
0.019579164610227132,0.019579164610227132
-0.03922052881694662,-0.03922052881694662
-0.06483623684462626,-0.06483623684462626
-0.04795315655365559,-0.04795315655365559
-0.06483623684462626,-0.06483623684462626
-0.14459423683990155,-0.14459423683990155
-0.14925163829947968,-0.14925163829947968
-0.052028382830786445,-0.052028382830786445
0.019579164610227132,0.019579164610227132
-0.03398095217492123,-0.03398095217492123
-0.06483623684462626,-0.06483623684462626
0.015503938333096278,0.015503938333096278
0.10399456606508053,0.10399456606508053
0.06789970475335011,0.06789970475335011
0.019579164610227132,0.019579164610227132
0.055674025921957554,0.055674025921957554
0.10399456606508053,0.10399456606508053
0.05101662446237943,0.05101662446237943
0.019579164610227132,0.019579164610227132
0.11854894562626216,0.11854894562626216
0.2728253689747873,0.2728253689747873
0.31008458065141226,0.31008458065141226
0.2728253689747873,0.2728253689747873
0.25768881423115847,0.25768881423115847
0.2728253689747873,0.2728253689747873
0.2320731062034788,0.2320731062034788
0.18840996751993394,0.18840996751993394
0.2052930478109046,0.2052930478109046
0.2728253689747873,0.2728253689747873
0.2902906244482053,0.2902906244482053
0.2728253689747873,0.2728253689747873
0.25652446386626393,0.25652446386626393
0.2728253689747873,0.2728253689747873
0.29727672663757243,0.29727672663757243
0.35724077042964075,0.35724077042964075
0.41487611349191994,0.41487611349191994
0.4410739967020469,0.4410739967020469
0.44514922297917775,0.44514922297917775
0.5254893981569003,0.5254893981569003
0.6454174857410369,0.6454174857410369
0.6943202010666071,0.6943202010666071
0.6500748872006149,0.6500748872006149
0.6943202010666071,0.6943202010666071
0.8771232083550482,0.8771232083550482
1.0319818068860207,1.0319818068860207
0.9807503908306614,0.9807503908306614
0.8631510039763138,0.8631510039763138
0.9021567412002807,0.9021567412002807
1.115815033158427,1.115815033158427
1.2572836024931122,1.2572836024931122
1.2002304346132802,1.2002304346132802
1.054686639001464,1.054686639001464
1.0319818068860207,1.0319818068860207
1.1292050623547139,1.1292050623547139
1.2002304346132802,1.2002304346132802
1.136191164544081,1.136191164544081
1.0319818068860207,1.0319818068860207
0.9749286390061888,0.9749286390061888
0.9475664054311673,0.9475664054311673
0.8474322740502377,0.8474322740502377
0.6943202010666071,0.6943202010666071
0.5464477047250018,0.5464477047250018
0.4410739967020469,0.4410739967020469
0.3455972667806954,0.3455972667806954
0.2728253689747873,0.2728253689747873
0.20179999671622104,0.20179999671622104
0.10399456606508053,0.10399456606508053
-0.03922052881694662,-0.03922052881694662
-0.14925163829947968,-0.14925163829947968
-0.21969483537559872,-0.21969483537559872
-0.3180824412091865,-0.3180824412091865
-0.5003032733151803,-0.5003032733151803
-0.6551618718461528,-0.6551618718461528
-0.6964963097999086,-0.6964963097999086
-0.6551618718461528,-0.6551618718461528
-0.6615657988530728,-0.6615657988530728
-0.7395772733010062,-0.7395772733010062
-0.8670736382569572,-0.8670736382569572
-0.9928234776655664,-0.9928234776655664
-1.0848071564922344,-1.0848071564922344
-1.0766567039379726,-1.0766567039379726
-1.0143639594161151,-1.0143639594161151
-0.9928234776655664,-0.9928234776655664
-1.0527875214576348,-1.0527875214576348
-1.0766567039379726,-1.0766567039379726
-1.0265896382475077,-1.0265896382475077
-0.9928234776655664,-0.9928234776655664
-1.0719993024783945,-1.0719993024783945
-1.161072105392826,-1.161072105392826
-1.154668178385906,-1.154668178385906
-1.0766567039379726,-1.0766567039379726
-1.0522053462751875,-1.0522053462751875
-1.0766567039379726,-1.0766567039379726
-1.0917932586816015,-1.0917932586816015
-1.0766567039379726,-1.0766567039379726
-1.0981971856885213,-1.0981971856885213
-1.161072105392826,-1.161072105392826
-1.229186601739156,-1.229186601739156
-1.2454875068476794,-1.2454875068476794
-1.2187074484551053,-1.2187074484551053
-1.161072105392826,-1.161072105392826
-1.108094163790125,-1.108094163790125
-1.0766567039379726,-1.0766567039379726
-1.1034367623305468,-1.1034367623305468
-1.161072105392826,-1.161072105392826
-1.1756264849540077,-1.1756264849540077
-1.0766567039379726,-1.0766567039379726
-0.9660434192729922,-0.9660434192729922
-0.9928234776655664,-0.9928234776655664
-1.1535038280210115,-1.1535038280210115
-1.2454875068476794,-1.2454875068476794
-1.2018243681641345,-1.2018243681641345
-1.161072105392826,-1.161072105392826
-1.2239470250971305,-1.2239470250971305
-1.2454875068476794,-1.2454875068476794
-1.1488464265614333,-1.1488464265614333
-1.0766567039379726,-1.0766567039379726
-1.1622364557577205,-1.1622364557577205
-1.2454875068476794,-1.2454875068476794
-1.1826125871433748,-1.1826125871433748
-1.0766567039379726,-1.0766567039379726
-1.099361536053416,-1.099361536053416
-1.161072105392826,-1.161072105392826
-1.137202922912488,-1.137202922912488
-1.0766567039379726,-1.0766567039379726
-1.086553682039576,-1.086553682039576
-1.0766567039379726,-1.0766567039379726
-0.9835086747464101,-0.9835086747464101
-0.9084080762107131,-0.9084080762107131
-0.9520712148942578,-0.9520712148942578
-0.9928234776655664,-0.9928234776655664
-0.945667287887338,-0.945667287887338
-0.9084080762107131,-0.9084080762107131
-0.9701186455501231,-0.9701186455501231
-0.9928234776655664,-0.9928234776655664
-0.8950180470144259,-0.8950180470144259
-0.8239926747558596,-0.8239926747558596
-0.9363524849681817,-0.9363524849681817
-1.0766567039379726,-1.0766567039379726
-1.0277539886124023,-1.0277539886124023
-0.8239926747558596,-0.8239926747558596
