ECG,PPG
-0.8010411143639188,-0.8010411143639188
-0.8566657073691081,-0.8566657073691081
-1.3919621153800859,-1.3919621153800859
-1.4938201363376402,-1.4938201363376402
-1.139123056265589,-1.139123056265589
-0.9440757820915484,-0.9440757820915484
-1.0546025707901714,-1.0546025707901714
-1.1066151772365822,-1.1066151772365822
-0.9700820853147538,-0.9700820853147538
-0.9101231084390302,-0.9101231084390302
-1.0546025707901714,-1.0546025707901714
-1.2214763498057393,-1.2214763498057393
-1.2229211444292507,-1.2229211444292507
-1.0741072982075754,-1.0741072982075754
-0.8855615998393362,-0.8855615998393362
-0.7714228245819348,-0.7714228245819348
-0.8010411143639188,-0.8010411143639188
-0.9635805095089525,-0.9635805095089525
-1.139123056265589,-1.139123056265589
-1.1839116895944426,-1.1839116895944426
-1.0546025707901714,-1.0546025707901714
-0.8718360509159779,-0.8718360509159779
-0.8010411143639188,-0.8010411143639188
-0.8841168052158249,-0.8841168052158249
-0.9700820853147538,-0.9700820853147538
-0.9296278358564343,-0.9296278358564343
-0.8010411143639188,-0.8010411143639188
-0.7403597401764395,-0.7403597401764395
-0.8010411143639188,-0.8010411143639188
-0.9296278358564343,-0.9296278358564343
-1.0546025707901714,-1.0546025707901714
-1.183189292282687,-1.183189292282687
-1.3074416299046683,-1.3074416299046683
-1.3731797852744374,-1.3731797852744374
-1.3074416299046683,-1.3074416299046683
-1.1600725783065045,-1.1600725783065045
-1.0546025707901714,-1.0546025707901714
-1.072662503584064,-1.072662503584064
-1.139123056265589,-1.139123056265589
-1.146347029383146,-1.146347029383146
-1.0546025707901714,-1.0546025707901714
-0.9231262600506329,-0.9231262600506329
-0.8010411143639188,-0.8010411143639188
-0.7302461778118596,-0.7302461778118596
-0.7165206288885012,-0.7165206288885012
-0.7374701509294167,-0.7374701509294167
-0.7165206288885012,-0.7165206288885012
-0.636334527283618,-0.636334527283618
-0.5474796579376662,-0.5474796579376662
-0.5265301358967507,-0.5265301358967507
-0.5474796579376662,-0.5474796579376662
-0.5395332875083534,-0.5395332875083534
-0.4629591724622486,-0.4629591724622486
-0.38999704397492235,-0.38999704397492235
-0.3784386869868311,-0.3784386869868311
-0.40516738752179215,-0.40516738752179215
-0.3784386869868311,-0.3784386869868311
-0.30908854505828337,-0.30908854505828337
-0.2939182015114135,-0.2939182015114135
-0.40011060633950224,-0.40011060633950224
-0.5474796579376662,-0.5474796579376662
-0.6565616520127776,-0.6565616520127776
-0.7165206288885012,-0.7165206288885012
-0.7511956998527751,-0.7511956998527751
-0.7165206288885012,-0.7165206288885012
-0.6182745944897252,-0.6182745944897252
-0.5474796579376662,-0.5474796579376662
-0.601659456319344,-0.601659456319344
-0.7165206288885012,-0.7165206288885012
-0.7714228245819348,-0.7714228245819348
-0.7165206288885012,-0.7165206288885012
-0.6276657595425494,-0.6276657595425494
-0.5474796579376662,-0.5474796579376662
-0.49691184611476674,-0.49691184611476674
-0.4629591724622486,-0.4629591724622486
-0.4860758864384312,-0.4860758864384312
-0.5474796579376662,-0.5474796579376662
-0.5915458939547642,-0.5915458939547642
-0.5474796579376662,-0.5474796579376662
-0.44634403429186736,-0.44634403429186736
-0.3784386869868311,-0.3784386869868311
-0.42900649880973046,-0.42900649880973046
-0.5474796579376662,-0.5474796579376662
-0.6110506213721683,-0.6110506213721683
-0.5474796579376662,-0.5474796579376662
-0.45862478859171435,-0.45862478859171435
-0.4629591724622486,-0.4629591724622486
-0.5142493815969037,-0.5142493815969037
-0.3784386869868311,-0.3784386869868311
0.07956120866628619,0.07956120866628619
0.8041257123572587,0.8041257123572587
1.6356050181880757,1.6356050181880757
2.4085701417666807,2.4085701417666807
2.808778252479341,2.808778252479341
2.493090627242098,2.493090627242098
1.4542832929373937,1.4542832929373937
0.21248231402933598,0.21248231402933598
-0.6486152815834649,-0.6486152815834649
-0.9700820853147538,-0.9700820853147538
-1.0177603078906303,-1.0177603078906303
-1.0546025707901714,-1.0546025707901714
-1.162962167553527,-1.162962167553527
-1.3074416299046683,-1.3074416299046683
-1.4620346546203893,-1.4620346546203893
-1.5610030863309208,-1.5610030863309208
-1.563170278266188,-1.563170278266188
-1.4764826008555034,-1.4764826008555034
-1.3811261557037502,-1.3811261557037502
-1.3074416299046683,-1.3074416299046683
-1.2402586799113877,-1.2402586799113877
-1.139123056265589,-1.139123056265589
-1.0517129815431485,-1.0517129815431485
-1.0546025707901714,-1.0546025707901714
-1.1774101137886412,-1.1774101137886412
-1.3074416299046683,-1.3074416299046683
-1.3558422497923006,-1.3558422497923006
-1.3074416299046683,-1.3074416299046683
-1.253984228834746,-1.253984228834746
-1.2229211444292507,-1.2229211444292507
-1.1998044304530682,-1.1998044304530682
-1.139123056265589,-1.139123056265589
-1.0293186648787216,-1.0293186648787216
-0.8855615998393362,-0.8855615998393362
-0.7902051546875831,-0.7902051546875831
-0.8010411143639188,-0.8010411143639188
-0.8783376267217792,-0.8783376267217792
-0.8855615998393362,-0.8855615998393362
-0.7916499493110946,-0.7916499493110946
-0.7165206288885012,-0.7165206288885012
-0.7945395385581174,-0.7945395385581174
-0.9700820853147538,-0.9700820853147538
-1.0849432578839109,-1.0849432578839109
-1.0546025707901714,-1.0546025707901714
-0.9570789337031511,-0.9570789337031511
-0.8855615998393362,-0.8855615998393362
-0.8559433100573524,-0.8559433100573524
-0.8010411143639188,-0.8010411143639188
-0.7092966557709441,-0.7092966557709441
-0.6320001434130836,-0.6320001434130836
-0.6421137057776636,-0.6421137057776636
-0.7165206288885012,-0.7165206288885012
-0.7692556326466677,-0.7692556326466677
-0.7165206288885012,-0.7165206288885012
-0.5843219208372071,-0.5843219208372071
-0.4629591724622486,-0.4629591724622486
-0.4506784181624016,-0.4506784181624016
-0.5474796579376662,-0.5474796579376662
-0.69484870953583,-0.69484870953583
-0.8010411143639188,-0.8010411143639188
-0.8313818014576584,-0.8313818014576584
-0.8010411143639188,-0.8010411143639188
-0.7844259761935375,-0.7844259761935375
-0.8010411143639188,-0.8010411143639188
-0.8046531009226973,-0.8046531009226973
-0.7165206288885012,-0.7165206288885012
-0.5879339073959856,-0.5879339073959856
-0.5474796579376662,-0.5474796579376662
-0.658006446636289,-0.658006446636289
-0.8010411143639188,-0.8010411143639188
-0.8537761181220852,-0.8537761181220852
-0.8010411143639188,-0.8010411143639188
-0.7201326154472797,-0.7201326154472797
-0.6320001434130836,-0.6320001434130836
-0.5612052068610245,-0.5612052068610245
-0.5474796579376662,-0.5474796579376662
-0.626220964919038,-0.626220964919038
-0.7165206288885012,-0.7165206288885012
-0.749028507917508,-0.749028507917508
-0.7165206288885012,-0.7165206288885012
-0.6832903525477387,-0.6832903525477387
-0.6320001434130836,-0.6320001434130836
-0.5554260283669789,-0.5554260283669789
-0.4629591724622486,-0.4629591724622486
-0.40300019558652506,-0.40300019558652506
-0.3784386869868311,-0.3784386869868311
-0.4239497176274405,-0.4239497176274405
-0.5474796579376662,-0.5474796579376662
-0.6890695310417844,-0.6890695310417844
-0.7165206288885012,-0.7165206288885012
-0.6298329514778166,-0.6298329514778166
-0.5474796579376662,-0.5474796579376662
-0.5359213009495748,-0.5359213009495748
-0.4629591724622486,-0.4629591724622486
-0.20361853754195036,-0.20361853754195036
0.21248231402933598,0.21248231402933598
0.6719270043059646,0.6719270043059646
1.2260057424225907,1.2260057424225907
1.9859677143895929,1.9859677143895929
2.831172569143768,2.831172569143768
3.27833650512055,3.27833650512055
2.9156930546191857,2.9156930546191857
1.872551336443947,1.872551336443947
0.8041257123572587,0.8041257123572587
0.23415423338200714,0.23415423338200714
0.12796182855391844,0.12796182855391844
0.08389559253682041,0.08389559253682041
-0.12559962787233417,-0.12559962787233417
-0.439842458486066,-0.439842458486066
-0.7165206288885012,-0.7165206288885012
-0.9202366708036102,-0.9202366708036102
-1.0546025707901714,-1.0546025707901714
-1.1521262078771917,-1.1521262078771917
-1.2229211444292507,-1.2229211444292507
-1.236646693352609,-1.236646693352609
-1.139123056265589,-1.139123056265589
-1.028596267566966,-1.028596267566966
-1.0546025707901714,-1.0546025707901714
-1.1774101137886412,-1.1774101137886412
-1.139123056265589,-1.139123056265589
-0.8942303675804048,-0.8942303675804048
-0.7165206288885012,-0.7165206288885012
-0.8537761181220852,-0.8537761181220852
-1.139123056265589,-1.139123056265589
-1.3067192325929124,-1.3067192325929124
-1.3074416299046683,-1.3074416299046683
-1.2756561481874171,-1.2756561481874171
-1.2229211444292507,-1.2229211444292507
-1.129009493901009,-1.129009493901009
-1.0546025707901714,-1.0546025707901714
-1.0885552444426896,-1.0885552444426896
-1.139123056265589,-1.139123056265589
-1.0907224363779566,-1.0907224363779566
-0.9700820853147538,-0.9700820853147538
-0.8971199568274276,-0.8971199568274276
-0.8855615998393362,-0.8855615998393362
-0.9094007111272746,-0.9094007111272746
-0.9700820853147538,-0.9700820853147538
-1.0524353788549043,-1.0524353788549043
-1.0546025707901714,-1.0546025707901714
-0.9657477014442196,-0.9657477014442196
-0.8855615998393362,-0.8855615998393362
-0.8631672831749094,-0.8631672831749094
-0.8010411143639188,-0.8010411143639188
-0.7092966557709441,-0.7092966557709441
-0.7165206288885012,-0.7165206288885012
-0.8060978955462087,-0.8060978955462087
-0.7165206288885012,-0.7165206288885012
-0.3885522493514109,-0.3885522493514109
-0.12559962787233417,-0.12559962787233417
-0.1841138101245463,-0.1841138101245463
-0.3784386869868311,-0.3784386869868311
-0.432618485368509,-0.432618485368509
-0.3784386869868311,-0.3784386869868311
-0.42611690956270765,-0.42611690956270765
-0.5474796579376662,-0.5474796579376662
-0.5937130858900312,-0.5937130858900312
-0.5474796579376662,-0.5474796579376662
-0.5113597923498808,-0.5113597923498808
-0.4629591724622486,-0.4629591724622486
-0.3459308079578243,-0.3459308079578243
-0.209397716035996,-0.209397716035996
-0.17327785044821073,-0.17327785044821073
-0.209397716035996,-0.209397716035996
-0.21300970259477453,-0.21300970259477453
-0.12559962787233417,-0.12559962787233417
-0.01651763379722264,-0.01651763379722264
0.04344134307850091,0.04344134307850091
0.004431888243692817,0.004431888243692817
-0.12559962787233417,-0.12559962787233417
-0.2939182015114135,-0.2939182015114135
-0.3784386869868311,-0.3784386869868311
-0.31053333968179475,-0.31053333968179475
-0.12559962787233417,-0.12559962787233417
0.00876627211422705,0.00876627211422705
-0.041079142396916624,-0.041079142396916624
-0.2809150498998108,-0.2809150498998108
-0.5474796579376662,-0.5474796579376662
-0.6818455579242273,-0.6818455579242273
-0.6320001434130836,-0.6320001434130836
-0.49980143536178956,-0.49980143536178956
-0.3784386869868311,-0.3784386869868311
-0.29969738000545915,-0.29969738000545915
-0.209397716035996,-0.209397716035996
-0.10609490045493011,-0.10609490045493011
-0.041079142396916624,-0.041079142396916624
-0.10753969507844152,-0.10753969507844152
-0.2939182015114135,-0.2939182015114135
-0.4875206810619426,-0.4875206810619426
-0.5474796579376662,-0.5474796579376662
-0.5070254084793466,-0.5070254084793466
-0.4629591724622486,-0.4629591724622486
-0.45934718590347007,-0.45934718590347007
-0.3784386869868311,-0.3784386869868311
-0.1978393590479047,-0.1978393590479047
-0.041079142396916624,-0.041079142396916624
-0.06275106174958779,-0.06275106174958779
-0.209397716035996,-0.209397716035996
-0.3415964240872901,-0.3415964240872901
-0.3784386869868311,-0.3784386869868311
-0.3567667676341599,-0.3567667676341599
-0.2939182015114135,-0.2939182015114135
-0.22673525151813292,-0.22673525151813292
-0.209397716035996,-0.209397716035996
-0.2866942283938565,-0.2866942283938565
-0.3784386869868311,-0.3784386869868311
-0.3704923165575183,-0.3704923165575183
-0.12559962787233417,-0.12559962787233417
0.4631541812085658,0.4631541812085658
1.395046713373426,1.395046713373426
2.3478887675792013,2.3478887675792013
2.831172569143768,2.831172569143768
2.5783335100292715,2.5783335100292715
1.8176491407505135,1.8176491407505135
0.9514947639554227,0.9514947639554227
0.21248231402933598,0.21248231402933598
-0.38710745472789954,-0.38710745472789954
-0.8010411143639188,-0.8010411143639188
-0.959968522950174,-0.959968522950174
-0.8855615998393362,-0.8855615998393362
-0.7598644675938435,-0.7598644675938435
-0.7165206288885012,-0.7165206288885012
-0.7461389186704851,-0.7461389186704851
-0.7165206288885012,-0.7165206288885012
-0.5734859611608716,-0.5734859611608716
-0.3784386869868311,-0.3784386869868311
-0.2635775144176739,-0.2635775144176739
-0.2939182015114135,-0.2939182015114135
-0.476684721385607,-0.476684721385607
-0.7165206288885012,-0.7165206288885012
-0.8675016670454436,-0.8675016670454436
-0.8010411143639188,-0.8010411143639188
-0.6204417864249924,-0.6204417864249924
-0.5474796579376662,-0.5474796579376662
-0.6977382987828529,-0.6977382987828529
-0.8855615998393362,-0.8855615998393362
-0.9187918761800987,-0.9187918761800987
-0.8010411143639188,-0.8010411143639188
-0.6912367229770515,-0.6912367229770515
-0.6320001434130836,-0.6320001434130836
-0.5843219208372071,-0.5843219208372071
-0.5474796579376662,-0.5474796579376662
-0.6189969918014809,-0.6189969918014809
-0.8010411143639188,-0.8010411143639188
-0.9686372906912424,-0.9686372906912424
-0.9700820853147538,-0.9700820853147538
-0.837160979951704,-0.837160979951704
-0.7165206288885012,-0.7165206288885012
-0.7027950799651428,-0.7027950799651428
-0.7165206288885012,-0.7165206288885012
-0.6861799417947616,-0.6861799417947616
-0.6320001434130836,-0.6320001434130836
-0.6247761702955266,-0.6247761702955266
-0.6320001434130836,-0.6320001434130836
-0.6081610321251454,-0.6081610321251454
-0.5474796579376662,-0.5474796579376662
-0.48029670794438556,-0.48029670794438556
-0.3784386869868311,-0.3784386869868311
-0.2628551171059182,-0.2628551171059182
-0.209397716035996,-0.209397716035996
-0.278025460652788,-0.278025460652788
-0.3784386869868311,-0.3784386869868311
-0.41311375795110494,-0.41311375795110494
-0.3784386869868311,-0.3784386869868311
-0.36688032999873976,-0.36688032999873976
-0.3784386869868311,-0.3784386869868311
-0.3415964240872901,-0.3415964240872901
-0.209397716035996,-0.209397716035996
-0.07503181604943478,-0.07503181604943478
-0.041079142396916624,-0.041079142396916624
-0.12054284669004423,-0.12054284669004423
-0.209397716035996,-0.209397716035996
-0.25635354130011684,-0.25635354130011684
-0.2939182015114135,-0.2939182015114135
-0.3856626601043881,-0.3856626601043881
-0.4629591724622486,-0.4629591724622486
-0.41528094988637204,-0.41528094988637204
-0.209397716035996,-0.209397716035996
-0.004236879497375648,-0.004236879497375648
0.04344134307850091,0.04344134307850091
-0.0771990079847019,-0.0771990079847019
-0.209397716035996,-0.209397716035996
-0.26935669291171954,-0.26935669291171954
-0.2939182015114135,-0.2939182015114135
-0.371214713869274,-0.371214713869274
-0.4629591724622486,-0.4629591724622486
-0.5286973278320178,-0.5286973278320178
-0.5474796579376662,-0.5474796579376662
-0.5409780821318648,-0.5409780821318648
-0.4629591724622486,-0.4629591724622486
-0.34882039720484714,-0.34882039720484714
-0.2939182015114135,-0.2939182015114135
-0.35098758914011424,-0.35098758914011424
-0.3784386869868311,-0.3784386869868311
-0.27947025527629943,-0.27947025527629943
-0.12559962787233417,-0.12559962787233417
-0.07069743217890055,-0.07069743217890055
-0.12559962787233417,-0.12559962787233417
-0.22818004614164433,-0.22818004614164433
-0.2939182015114135,-0.2939182015114135
-0.1963945644243933,-0.1963945644243933
0.21248231402933598,0.21248231402933598
0.833021604827487,0.833021604827487
1.395046713373426,1.395046713373426
1.7873084536567738,1.7873084536567738
2.155008685340428,2.155008685340428
2.447579596601489,2.447579596601489
2.324049656291263,2.324049656291263
1.6522201563584569,1.6522201563584569
0.8886461978326763,0.8886461978326763
0.5577882290485632,0.5577882290485632
0.6350847414064237,0.6350847414064237
0.6314727548476451,0.6314727548476451
0.2970027995047535,0.2970027995047535
-0.16749867195416507,-0.16749867195416507
-0.4629591724622486,-0.4629591724622486
-0.6161074025544582,-0.6161074025544582
-0.8010411143639188,-0.8010411143639188
-1.0155931159553633,-1.0155931159553633
-1.0546025707901714,-1.0546025707901714
-0.9021767380097175,-0.9021767380097175
-0.8010411143639188,-0.8010411143639188
-0.9130126976860531,-0.9130126976860531
-1.0546025707901714,-1.0546025707901714
-1.0430442138020801,-1.0430442138020801
-0.9700820853147538,-0.9700820853147538
-1.030763459502233,-1.030763459502233
-1.139123056265589,-1.139123056265589
-1.119618328848185,-1.119618328848185
-0.9700820853147538,-0.9700820853147538
-0.8559433100573524,-0.8559433100573524
-0.8010411143639188,-0.8010411143639188
-0.756252481035065,-0.756252481035065
-0.7165206288885012,-0.7165206288885012
-0.7222998073825468,-0.7222998073825468
-0.7165206288885012,-0.7165206288885012
-0.6890695310417844,-0.6890695310417844
-0.7165206288885012,-0.7165206288885012
-0.849441734251551,-0.849441734251551
-0.9700820853147538,-0.9700820853147538
-0.991754004667425,-0.991754004667425
-0.9700820853147538,-0.9700820853147538
-0.984530031549868,-0.984530031549868
-0.9700820853147538,-0.9700820853147538
-0.8855615998393362,-0.8855615998393362
-0.8010411143639188,-0.8010411143639188
-0.7945395385581174,-0.7945395385581174
-0.8010411143639188,-0.8010411143639188
-0.7873155654405604,-0.7873155654405604
-0.8010411143639188,-0.8010411143639188
-0.8284922122106355,-0.8284922122106355
-0.7165206288885012,-0.7165206288885012
-0.4831862971914084,-0.4831862971914084
-0.3784386869868311,-0.3784386869868311
-0.5597604122375132,-0.5597604122375132
-0.8010411143639188,-0.8010411143639188
-0.8422177611339939,-0.8422177611339939
-0.7165206288885012,-0.7165206288885012
-0.6399465138423964,-0.6399465138423964
-0.6320001434130836,-0.6320001434130836
-0.5843219208372071,-0.5843219208372071
-0.4629591724622486,-0.4629591724622486
-0.3603787541929384,-0.3603787541929384
-0.2939182015114135,-0.2939182015114135
-0.24335038968851413,-0.24335038968851413
-0.209397716035996,-0.209397716035996
-0.23829360850622422,-0.23829360850622422
-0.2939182015114135,-0.2939182015114135
-0.3199245047346189,-0.3199245047346189
-0.2939182015114135,-0.2939182015114135
-0.2787478579645437,-0.2787478579645437
-0.2939182015114135,-0.2939182015114135
-0.3163125181758404,-0.3163125181758404
-0.2939182015114135,-0.2939182015114135
-0.2686342955999638,-0.2686342955999638
-0.2939182015114135,-0.2939182015114135
-0.3704923165575183,-0.3704923165575183
-0.3784386869868311,-0.3784386869868311
-0.2765806660292766,-0.2765806660292766
-0.12559962787233417,-0.12559962787233417
-0.04974791013798509,-0.04974791013798509
-0.041079142396916624,-0.041079142396916624
-0.049025512826229384,-0.049025512826229384
-0.041079142396916624,-0.041079142396916624
-0.04469112895569515,-0.04469112895569515
-0.041079142396916624,-0.041079142396916624
-0.03529996390287098,-0.03529996390287098
-0.041079142396916624,-0.041079142396916624
-0.0641958563730992,-0.0641958563730992
-0.041079142396916624,-0.041079142396916624
0.03838456189621097,0.03838456189621097
0.12796182855391844,0.12796182855391844
0.20887032747055745,0.20887032747055745
0.3815232849801711,0.3815232849801711
0.7167156376348184,0.7167156376348184
1.2260057424225907,1.2260057424225907
1.894945653108374,1.894945653108374
2.662131598192933,2.662131598192933
3.203207184697957,3.203207184697957
3.0847340255700213,3.0847340255700213
2.2221916353337083,2.2221916353337083
1.1414852569471732,1.1414852569471732
0.47471253819665704,0.47471253819665704
0.3815232849801711,0.3815232849801711
0.5014412387316182,0.5014412387316182
0.4660437704555886,0.4660437704555886
0.18358642155910776,0.18358642155910776
-0.209397716035996,-0.209397716035996
-0.5915458939547642,-0.5915458939547642
-0.8855615998393362,-0.8855615998393362
-1.0741072982075754,-1.0741072982075754
-1.139123056265589,-1.139123056265589
-1.1138391503541392,-1.1138391503541392
-1.0546025707901714,-1.0546025707901714
-1.0379874326197902,-1.0379874326197902
-1.0546025707901714,-1.0546025707901714
-1.050990584231393,-1.050990584231393
-0.9700820853147538,-0.9700820853147538
-0.861722488551398,-0.861722488551398
-0.8010411143639188,-0.8010411143639188
-0.8581105019926195,-0.8581105019926195
-0.9700820853147538,-0.9700820853147538
-1.035820240684523,-1.035820240684523
-0.9700820853147538,-0.9700820853147538
-0.8544985154338409,-0.8544985154338409
-0.8010411143639188,-0.8010411143639188
-0.8234354310283456,-0.8234354310283456
-0.8010411143639188,-0.8010411143639188
-0.7309685751236153,-0.7309685751236153
-0.7165206288885012,-0.7165206288885012
-0.793094743934606,-0.793094743934606
-0.8010411143639188,-0.8010411143639188
-0.6717319955596475,-0.6717319955596475
-0.5474796579376662,-0.5474796579376662
-0.5922682912665199,-0.5922682912665199
-0.7165206288885012,-0.7165206288885012
-0.7620316595291107,-0.7620316595291107
-0.7165206288885012,-0.7165206288885012
-0.6991830934063643,-0.6991830934063643
-0.7165206288885012,-0.7165206288885012
-0.7042398745886542,-0.7042398745886542
-0.6320001434130836,-0.6320001434130836
-0.5510916444964447,-0.5510916444964447
-0.4629591724622486,-0.4629591724622486
-0.3704923165575183,-0.3704923165575183
-0.2939182015114135,-0.2939182015114135
-0.2809150498998108,-0.2809150498998108
-0.2939182015114135,-0.2939182015114135
-0.2816374472115665,-0.2816374472115665
-0.209397716035996,-0.209397716035996
-0.11982044937828852,-0.11982044937828852
-0.041079142396916624,-0.041079142396916624
0.005876682867204228,0.005876682867204228
0.04344134307850091,0.04344134307850091
0.07956120866628619,0.07956120866628619
0.12796182855391844,0.12796182855391844
0.1720280645710165,0.1720280645710165
0.21248231402933598,0.21248231402933598
0.22404067101742728,0.22404067101742728
0.21248231402933598,0.21248231402933598
0.19442238123544334,0.19442238123544334
0.21248231402933598,0.21248231402933598
0.23415423338200714,0.23415423338200714
0.21248231402933598,0.21248231402933598
0.1481889532830782,0.1481889532830782
0.12796182855391844,0.12796182855391844
0.1474665559713225,0.1474665559713225
0.12796182855391844,0.12796182855391844
0.028993396843386803,0.028993396843386803
-0.041079142396916624,-0.041079142396916624
-0.04035674508516092,-0.04035674508516092
-0.041079142396916624,-0.041079142396916624
-0.10753969507844152,-0.10753969507844152
-0.12559962787233417,-0.12559962787233417
-0.04469112895569515,-0.04469112895569515
0.04344134307850091,0.04344134307850091
0.013823053296516988,0.013823053296516988
-0.041079142396916624,-0.041079142396916624
-0.0244640042265354,-0.0244640042265354
0.04344134307850091,0.04344134307850091
0.07883881135453048,0.07883881135453048
0.12796182855391844,0.12796182855391844
0.2016463543530004,0.2016463543530004
0.21248231402933598,0.21248231402933598
0.11062429307178151,0.11062429307178151
0.04344134307850091,0.04344134307850091
0.10484511457773588,0.10484511457773588
0.21248231402933598,0.21248231402933598
0.2681069070345253,0.2681069070345253
0.3815232849801711,0.3815232849801711
0.6545894688238277,0.6545894688238277
1.0569647714717556,1.0569647714717556
1.536636586477544,1.536636586477544
2.155008685340428,2.155008685340428
2.8123902390381197,2.8123902390381197
3.168532113733683,3.168532113733683
2.956147304077505,2.956147304077505
2.324049656291263,2.324049656291263
1.5792580278711306,1.5792580278711306
0.8886461978326763,0.8886461978326763
0.2818324559578837,0.2818324559578837
-0.12559962787233417,-0.12559962787233417
-0.278025460652788,-0.278025460652788
-0.2939182015114135,-0.2939182015114135
-0.3582115622576713,-0.3582115622576713
-0.4629591724622486,-0.4629591724622486
-0.5323093143907963,-0.5323093143907963
-0.5474796579376662,-0.5474796579376662
-0.5640947961080474,-0.5640947961080474
-0.5474796579376662,-0.5474796579376662
-0.47162794020331705,-0.47162794020331705
-0.3784386869868311,-0.3784386869868311
-0.3784386869868311,-0.3784386869868311
-0.4629591724622486,-0.4629591724622486
-0.5489244525611775,-0.5489244525611775
-0.5474796579376662,-0.5474796579376662
-0.5034134219205681,-0.5034134219205681
-0.4629591724622486,-0.4629591724622486
-0.44200965042133317,-0.44200965042133317
-0.3784386869868311,-0.3784386869868311
-0.3069213531230162,-0.3069213531230162
-0.2939182015114135,-0.2939182015114135
-0.3560443703224042,-0.3560443703224042
-0.3784386869868311,-0.3784386869868311
-0.3300380670991988,-0.3300380670991988
-0.2939182015114135,-0.2939182015114135
-0.3423188213990458,-0.3423188213990458
-0.3784386869868311,-0.3784386869868311
-0.34087402677553436,-0.34087402677553436
-0.2939182015114135,-0.2939182015114135
-0.3314828617227102,-0.3314828617227102
-0.3784386869868311,-0.3784386869868311
-0.3567667676341599,-0.3567667676341599
-0.2939182015114135,-0.2939182015114135
-0.28524943377034506,-0.28524943377034506
-0.2939182015114135,-0.2939182015114135
-0.2664671036646967,-0.2664671036646967
-0.209397716035996,-0.209397716035996
-0.18050182356576777,-0.18050182356576777
-0.12559962787233417,-0.12559962787233417
0.015990245231784102,0.015990245231784102
0.21248231402933598,0.21248231402933598
0.3215643081044475,0.3215643081044475
0.2970027995047535,0.2970027995047535
0.2153719032763588,0.2153719032763588
0.21248231402933598,0.21248231402933598
0.29339081294597497,0.29339081294597497
0.3815232849801711,0.3815232849801711
0.3966936285270409,0.3966936285270409
0.3815232849801711,0.3815232849801711
0.3974160258387966,0.3974160258387966
0.4660437704555886,0.4660437704555886
0.5223907607725337,0.5223907607725337
0.5505642559310061,0.5505642559310061
0.5744033672189444,0.5744033672189444
0.6350847414064237,0.6350847414064237
0.6755389908647431,0.6755389908647431
0.6350847414064237,0.6350847414064237
0.5043308279786409,0.5043308279786409
0.3815232849801711,0.3815232849801711
0.31650752692215756,0.31650752692215756
0.2970027995047535,0.2970027995047535
0.25799334466994545,0.25799334466994545
0.21248231402933598,0.21248231402933598
0.18792080542964198,0.18792080542964198
0.21248231402933598,0.21248231402933598
0.2514917688641441,0.2514917688641441
0.2970027995047535,0.2970027995047535
0.33962424089834015,0.33962424089834015
0.3815232849801711,0.3815232849801711
0.36563054412154555,0.36563054412154555
0.2970027995047535,0.2970027995047535
0.2406558091878085,0.2406558091878085
0.2970027995047535,0.2970027995047535
0.386580066162461,0.386580066162461
0.3815232849801711,0.3815232849801711
0.26016053660521254,0.26016053660521254
0.21248231402933598,0.21248231402933598
0.2977251968165092,0.2977251968165092
0.3815232849801711,0.3815232849801711
0.3360122543395616,0.3360122543395616
0.2970027995047535,0.2970027995047535
0.39308164196826234,0.39308164196826234
0.5505642559310061,0.5505642559310061
0.5939080946363484,0.5939080946363484
0.5505642559310061,0.5505642559310061
0.523835555396045,0.523835555396045
0.5505642559310061,0.5505642559310061
0.6126904247419968,0.6126904247419968
0.8041257123572587,0.8041257123572587
1.1841066983407598,1.1841066983407598
1.733128655275096,1.733128655275096
2.386175825102254,2.386175825102254
3.0847340255700213,3.0847340255700213
3.5304531669232913,3.5304531669232913
3.337573084684518,3.337573084684518
2.4706963105776714,2.4706963105776714
1.4795671988488432,1.4795671988488432
0.913930103744126,0.913930103744126
0.8041257123572587,0.8041257123572587
0.7571698870931379,0.7571698870931379
0.5505642559310061,0.5505642559310061
0.2558261527346783,0.2558261527346783
0.04344134307850091,0.04344134307850091
-0.06997503486714485,-0.06997503486714485
-0.12559962787233417,-0.12559962787233417
-0.17400024775996642,-0.17400024775996642
-0.209397716035996,-0.209397716035996
-0.21012011334775169,-0.21012011334775169
-0.12559962787233417,-0.12559962787233417
0.007321477490715639,0.007321477490715639
0.12796182855391844,0.12796182855391844
0.2023687516647561,0.2023687516647561
0.2970027995047535,0.2970027995047535
0.40680719089162076,0.40680719089162076
0.4660437704555886,0.4660437704555886
0.38224568229192674,0.38224568229192674
0.21248231402933598,0.21248231402933598
0.04055175383147809,0.04055175383147809
-0.041079142396916624,-0.041079142396916624
-0.010738455303176997,-0.010738455303176997
0.12796182855391844,0.12796182855391844
0.2514917688641441,0.2514917688641441
0.21248231402933598,0.21248231402933598
-0.03096558003233675,-0.03096558003233675
-0.2939182015114135,-0.2939182015114135
-0.3914418385984338,-0.3914418385984338
-0.2939182015114135,-0.2939182015114135
-0.14654914991324963,-0.14654914991324963
-0.041079142396916624,-0.041079142396916624
0.007321477490715639,0.007321477490715639
0.04344134307850091,0.04344134307850091
0.058611686625370724,0.058611686625370724
0.04344134307850091,0.04344134307850091
-0.02952078540882534,-0.02952078540882534
-0.12559962787233417,-0.12559962787233417
-0.1841138101245463,-0.1841138101245463
-0.12559962787233417,-0.12559962787233417
0.012378258673005576,0.012378258673005576
0.12796182855391844,0.12796182855391844
0.1214602527481171,0.1214602527481171
0.04344134307850091,0.04344134307850091
-0.005681674120887059,-0.005681674120887059
0.04344134307850091,0.04344134307850091
0.13807539091849833,0.13807539091849833
0.21248231402933598,0.21248231402933598
0.22042868445864874,0.22042868445864874
0.21248231402933598,0.21248231402933598
0.2543813581111669,0.2543813581111669
0.3815232849801711,0.3815232849801711
0.48627089518474836,0.48627089518474836
0.4660437704555886,0.4660437704555886
0.34468102208063006,0.34468102208063006
0.2970027995047535,0.2970027995047535
0.37068732530383547,0.37068732530383547
0.4660437704555886,0.4660437704555886
0.4942172656140611,0.4942172656140611
0.5505642559310061,0.5505642559310061
0.666147825811919,0.666147825811919
0.7196052268818413,0.7196052268818413
0.5845169295835243,0.5845169295835243
0.3815232849801711,0.3815232849801711
0.27388608552857097,0.27388608552857097
0.2970027995047535,0.2970027995047535
0.3634633521862784,0.3634633521862784
0.4660437704555886,0.4660437704555886
0.5787377510894787,0.5787377510894787
0.6350847414064237,0.6350847414064237
0.58523932689528,0.58523932689528
0.5505642559310061,0.5505642559310061
0.5888513134540585,0.5888513134540585
0.6350847414064237,0.6350847414064237
0.5664569967896317,0.5664569967896317
0.4660437704555886,0.4660437704555886
0.4537630161557416,0.4537630161557416
0.5505642559310061,0.5505642559310061
0.6278607682888666,0.6278607682888666
0.6350847414064237,0.6350847414064237
0.5888513134540585,0.5888513134540585
0.5505642559310061,0.5505642559310061
0.5303371312018463,0.5303371312018463
0.5505642559310061,0.5505642559310061
0.5874065188305471,0.5874065188305471
0.6350847414064237,0.6350847414064237
0.710214061829017,0.710214061829017
0.8886461978326763,0.8886461978326763
1.1754379305996914,1.1754379305996914
1.5640876843242608,1.5640876843242608
2.079156967606079,2.079156967606079
2.7466520836683506,2.7466520836683506
3.341907468555052,3.341907468555052
3.506614055635353,3.506614055635353
3.0955699852463567,3.0955699852463567
2.4085701417666807,2.4085701417666807
1.8104251676329564,1.8104251676329564
1.395046713373426,1.395046713373426
1.0136209327664134,1.0136209327664134
0.6350847414064237,0.6350847414064237
0.35190499519818713,0.35190499519818713
0.21248231402933598,0.21248231402933598
0.08389559253682041,0.08389559253682041
-0.12559962787233417,-0.12559962787233417
-0.35965635688118275,-0.35965635688118275
-0.4629591724622486,-0.4629591724622486
-0.42828410149797475,-0.42828410149797475
-0.3784386869868311,-0.3784386869868311
-0.4391200611743103,-0.4391200611743103
-0.5474796579376662,-0.5474796579376662
-0.5987698670723213,-0.5987698670723213
-0.5474796579376662,-0.5474796579376662
-0.46440396708576004,-0.46440396708576004
-0.3784386869868311,-0.3784386869868311
-0.322091696669886,-0.322091696669886
-0.2939182015114135,-0.2939182015114135
-0.3069213531230162,-0.3069213531230162
-0.2939182015114135,-0.2939182015114135
-0.24840717087080408,-0.24840717087080408
-0.209397716035996,-0.209397716035996
-0.24190559506500273,-0.24190559506500273
-0.2939182015114135,-0.2939182015114135
-0.3170349154875961,-0.3170349154875961
-0.2939182015114135,-0.2939182015114135
-0.2599655278588954,-0.2599655278588954
-0.209397716035996,-0.209397716035996
-0.1812242208775235,-0.1812242208775235
-0.209397716035996,-0.209397716035996
-0.2838046391468336,-0.2838046391468336
-0.2939182015114135,-0.2939182015114135
-0.23829360850622422,-0.23829360850622422
-0.209397716035996,-0.209397716035996
-0.26718950097645244,-0.26718950097645244
-0.2939182015114135,-0.2939182015114135
-0.2245680595828658,-0.2245680595828658
-0.12559962787233417,-0.12559962787233417
-0.08947976228454889,-0.08947976228454889
-0.041079142396916624,-0.041079142396916624
0.0810060032897976,0.0810060032897976
0.21248231402933598,0.21248231402933598
0.2406558091878085,0.2406558091878085
0.21248231402933598,0.21248231402933598
0.19947916241773328,0.19947916241773328
0.21248231402933598,0.21248231402933598
0.22115108177040446,0.22115108177040446
0.2970027995047535,0.2970027995047535
0.4638765785203215,0.4638765785203215
0.6350847414064237,0.6350847414064237
0.6805957720470331,0.6805957720470331
0.6350847414064237,0.6350847414064237
0.5787377510894787,0.5787377510894787
0.5505642559310061,0.5505642559310061
0.5064980199139081,0.5064980199139081
0.4660437704555886,0.4660437704555886
0.4508734269087188,0.4508734269087188
0.4660437704555886,0.4660437704555886
0.4660437704555886,0.4660437704555886
0.4660437704555886,0.4660437704555886
0.4891604844317712,0.4891604844317712
0.5505642559310061,0.5505642559310061
0.5830721349600129,0.5830721349600129
0.5505642559310061,0.5505642559310061
0.4559302080910087,0.4559302080910087
0.3815232849801711,0.3815232849801711
0.35768417369223277,0.35768417369223277
0.3815232849801711,0.3815232849801711
0.4133087666974221,0.4133087666974221
0.4660437704555886,0.4660437704555886
0.5187787742137551,0.5187787742137551
0.5505642559310061,0.5505642559310061
0.5404506935664263,0.5404506935664263
0.5505642559310061,0.5505642559310061
0.5888513134540585,0.5888513134540585
0.6350847414064237,0.6350847414064237
0.6603686473178734,0.6603686473178734
0.7196052268818413,0.7196052268818413
0.7918449580574117,0.7918449580574117
0.8041257123572587,0.8041257123572587
0.7159932403230627,0.7159932403230627
0.6350847414064237,0.6350847414064237
0.6004096704421498,0.6004096704421498
0.5505642559310061,0.5505642559310061
0.435703083361849,0.435703083361849
0.3815232849801711,0.3815232849801711
0.45015102959696307,0.45015102959696307
0.5505642559310061,0.5505642559310061
0.560677818295586,0.560677818295586
0.5505642559310061,0.5505642559310061
0.5874065188305471,0.5874065188305471
0.6350847414064237,0.6350847414064237
0.6242487817300881,0.6242487817300881
0.6350847414064237,0.6350847414064237
0.6957661155939029,0.6957661155939029
0.7196052268818413,0.7196052268818413
0.6285831656006223,0.6285831656006223
0.5505642559310061,0.5505642559310061
0.5758481618424558,0.5758481618424558
0.6350847414064237,0.6350847414064237
0.6025768623774169,0.6025768623774169
0.5505642559310061,0.5505642559310061
0.5715137779719216,0.5715137779719216
0.6350847414064237,0.6350847414064237
0.6163024113007753,0.6163024113007753
0.5505642559310061,0.5505642559310061
0.5426178855016933,0.5426178855016933
0.6350847414064237,0.6350847414064237
0.7174380349465741,0.7174380349465741
0.7196052268818413,0.7196052268818413
0.6379743306534464,0.6379743306534464
0.5505642559310061,0.5505642559310061
0.4891604844317712,0.4891604844317712
0.4660437704555886,0.4660437704555886
0.43353589142658183,0.43353589142658183
0.3815232849801711,0.3815232849801711
0.31650752692215756,0.31650752692215756
0.2970027995047535,0.2970027995047535
0.3230091027279589,0.3230091027279589
0.3815232849801711,0.3815232849801711
0.4263119183090248,0.4263119183090248
0.4660437704555886,0.4660437704555886
0.5021636360433739,0.5021636360433739
0.5505642559310061,0.5505642559310061
0.5700689833484102,0.5700689833484102
0.5505642559310061,0.5505642559310061
0.49855164948459535,0.49855164948459535
0.4660437704555886,0.4660437704555886
0.43209109680307045,0.43209109680307045
0.3815232849801711,0.3815232849801711
0.3360122543395616,0.3360122543395616
0.3815232849801711,0.3815232849801711
0.4667661677673443,0.4667661677673443
0.4660437704555886,0.4660437704555886
0.32734348659849316,0.32734348659849316
0.21248231402933598,0.21248231402933598
0.2269302602644501,0.2269302602644501
0.2970027995047535,0.2970027995047535
0.27749807208734945,0.27749807208734945
0.21248231402933598,0.21248231402933598
0.20742553284704604,0.20742553284704604
0.2970027995047535,0.2970027995047535
0.41692075325620065,0.41692075325620065
0.5505642559310061,0.5505642559310061
0.6228039871065767,0.6228039871065767
0.5505642559310061,0.5505642559310061
0.3461258167041415,0.3461258167041415
0.21248231402933598,0.21248231402933598
0.22042868445864874,0.22042868445864874
0.2970027995047535,0.2970027995047535
0.39524883390352944,0.39524883390352944
0.6350847414064237,0.6350847414064237
0.9327124338497743,0.9327124338497743
0.9724442859963381,0.9724442859963381
0.597520081195127,0.597520081195127
0.12796182855391844,0.12796182855391844
-0.08081099454348042,-0.08081099454348042
-0.041079142396916624,-0.041079142396916624
0.005876682867204228,0.005876682867204228
0.04344134307850091,0.04344134307850091
0.19731197048246618,0.19731197048246618
0.4660437704555886,0.4660437704555886
0.6856525532293231,0.6856525532293231
0.8886461978326763,0.8886461978326763
1.3249741741331225,1.3249741741331225
2.155008685340428,2.155008685340428
3.0616173115938388,3.0616173115938388
3.506614055635353,3.506614055635353
3.2306582825446735,3.2306582825446735
2.493090627242098,2.493090627242098
1.6551097456054797,1.6551097456054797
0.8886461978326763,0.8886461978326763
0.24499019305834271,0.24499019305834271
-0.12559962787233417,-0.12559962787233417
-0.2122873052830188,-0.2122873052830188
-0.209397716035996,-0.209397716035996
-0.2809150498998108,-0.2809150498998108
-0.2939182015114135,-0.2939182015114135
-0.1595523015248523,-0.1595523015248523
-0.041079142396916624,-0.041079142396916624
-0.11620846281950999,-0.11620846281950999
-0.209397716035996,-0.209397716035996
-0.08442298110225895,-0.08442298110225895
0.21248231402933598,0.21248231402933598
0.4003056150858194,0.4003056150858194
0.3815232849801711,0.3815232849801711
0.22765265757620579,0.22765265757620579
0.04344134307850091,0.04344134307850091
-0.1328236009898912,-0.1328236009898912
-0.209397716035996,-0.209397716035996
-0.1862810020598134,-0.1862810020598134
-0.12559962787233417,-0.12559962787233417
-0.09670373540210594,-0.09670373540210594
-0.041079142396916624,-0.041079142396916624
0.03477257533743244,0.03477257533743244
0.04344134307850091,0.04344134307850091
-0.05769428056729785,-0.05769428056729785
-0.12559962787233417,-0.12559962787233417
-0.06636304830836631,-0.06636304830836631
0.04344134307850091,0.04344134307850091
0.06511326243117208,0.06511326243117208
0.04344134307850091,0.04344134307850091
0.08895237371911036,0.08895237371911036
0.21248231402933598,0.21248231402933598
0.27533088015208235,0.27533088015208235
0.21248231402933598,0.21248231402933598
0.0687252489899506,0.0687252489899506
-0.041079142396916624,-0.041079142396916624
-0.08153339185523613,-0.08153339185523613
-0.041079142396916624,-0.041079142396916624
0.06005648124888214,0.06005648124888214
0.21248231402933598,0.21248231402933598
0.34251383014536296,0.34251383014536296
0.3815232849801711,0.3815232849801711
0.305671567245822,0.305671567245822
0.21248231402933598,0.21248231402933598
0.17852964037681782,0.17852964037681782
0.21248231402933598,0.21248231402933598
0.23054224682322863,0.23054224682322863
0.21248231402933598,0.21248231402933598
0.1857536134943749,0.1857536134943749
0.21248231402933598,0.21248231402933598
0.28544444251666223,0.28544444251666223
0.3815232849801711,0.3815232849801711
0.4400374672323832,0.4400374672323832
0.4660437704555886,0.4660437704555886
0.5057756226021524,0.5057756226021524
0.6350847414064237,0.6350847414064237
0.8005137257984802,0.8005137257984802
0.8886461978326763,0.8886461978326763
0.8315768102039756,0.8315768102039756
0.7196052268818413,0.7196052268818413
0.6228039871065767,0.6228039871065767
0.5505642559310061,0.5505642559310061
0.4783245247554356,0.4783245247554356
0.4660437704555886,0.4660437704555886
0.5108324037844423,0.5108324037844423
0.5505642559310061,0.5505642559310061
0.5332267204488692,0.5332267204488692
0.5505642559310061,0.5505642559310061
0.6408639199004693,0.6408639199004693
0.7196052268818413,0.7196052268818413
0.6473654957062707,0.6473654957062707
0.4660437704555886,0.4660437704555886
0.2941132102577307,0.2941132102577307
0.21248231402933598,0.21248231402933598
0.1871984081178863,0.1871984081178863
0.21248231402933598,0.21248231402933598
0.2803876613343723,0.2803876613343723
0.3815232849801711,0.3815232849801711
0.44942863228520735,0.44942863228520735
0.4660437704555886,0.4660437704555886
0.4270343156207805,0.4270343156207805
0.3815232849801711,0.3815232849801711
0.35190499519818713,0.35190499519818713
0.3815232849801711,0.3815232849801711
0.4299239048678033,0.4299239048678033
0.4660437704555886,0.4660437704555886
0.43931506992062747,0.43931506992062747
0.3815232849801711,0.3815232849801711
0.2970027995047535,0.2970027995047535
0.21248231402933598,0.21248231402933598
0.15974731027116948,0.15974731027116948
0.21248231402933598,0.21248231402933598
0.34179143283360724,0.34179143283360724
0.4660437704555886,0.4660437704555886
0.5173339795902436,0.5173339795902436
0.5505642559310061,0.5505642559310061
0.5946304919481041,0.5946304919481041
0.6350847414064237,0.6350847414064237
0.6618134419413848,0.6618134419413848
0.8041257123572587,0.8041257123572587
1.1797723144702255,1.1797723144702255
1.8176491407505135,1.8176491407505135
2.5942262508878966,2.5942262508878966
3.337573084684518,3.337573084684518
3.784014623349544,3.784014623349544
3.6756550265861883,3.6756550265861883
2.901245108384072,2.901245108384072
1.733128655275096,1.733128655275096
0.69793330752917,0.69793330752917
0.21248231402933598,0.21248231402933598
0.18358642155910776,0.18358642155910776
0.21248231402933598,0.21248231402933598
0.06150127587239355,0.06150127587239355
-0.12559962787233417,-0.12559962787233417
-0.21951127840057588,-0.21951127840057588
-0.2939182015114135,-0.2939182015114135
-0.4073345794570593,-0.4073345794570593
-0.3784386869868311,-0.3784386869868311
-0.15305072571905096,-0.15305072571905096
0.04344134307850091,0.04344134307850091
0.021047026414074042,0.021047026414074042
-0.041079142396916624,-0.041079142396916624
0.013100655984761282,0.013100655984761282
0.04344134307850091,0.04344134307850091
-0.12487723056057845,-0.12487723056057845
-0.2939182015114135,-0.2939182015114135
-0.26213271979416247,-0.26213271979416247
-0.12559962787233417,-0.12559962787233417
-0.12704442249584558,-0.12704442249584558
-0.209397716035996,-0.209397716035996
-0.22890244345340005,-0.22890244345340005
-0.209397716035996,-0.209397716035996
-0.27947025527629943,-0.27947025527629943
-0.3784386869868311,-0.3784386869868311
-0.42828410149797475,-0.42828410149797475
-0.4629591724622486,-0.4629591724622486
-0.545312466002399,-0.545312466002399
-0.5474796579376662,-0.5474796579376662
-0.3733819058045411,-0.3733819058045411
-0.12559962787233417,-0.12559962787233417
-0.010016057991421292,-0.010016057991421292
-0.041079142396916624,-0.041079142396916624
-0.10681729776668582,-0.10681729776668582
-0.12559962787233417,-0.12559962787233417
-0.1299340117428684,-0.1299340117428684
-0.12559962787233417,-0.12559962787233417
-0.09742613271386165,-0.09742613271386165
-0.041079142396916624,-0.041079142396916624
-0.01868482573248976,-0.01868482573248976
-0.041079142396916624,-0.041079142396916624
-0.0504703074497408,-0.0504703074497408
0.04344134307850091,0.04344134307850091
0.19803436779422187,0.19803436779422187
0.2970027995047535,0.2970027995047535
0.27533088015208235,0.27533088015208235
0.21248231402933598,0.21248231402933598
0.14963374790658962,0.14963374790658962
0.04344134307850091,0.04344134307850091
-0.1436595606662268,-0.1436595606662268
-0.2939182015114135,-0.2939182015114135
-0.3047541611877491,-0.3047541611877491
-0.209397716035996,-0.209397716035996
-0.1436595606662268,-0.1436595606662268
-0.12559962787233417,-0.12559962787233417
-0.10609490045493011,-0.10609490045493011
-0.041079142396916624,-0.041079142396916624
0.04344134307850091,0.04344134307850091
0.12796182855391844,0.12796182855391844
0.14457696672429968,0.14457696672429968
0.04344134307850091,0.04344134307850091
-0.15305072571905096,-0.15305072571905096
-0.2939182015114135,-0.2939182015114135
-0.3018645719407263,-0.3018645719407263
-0.209397716035996,-0.209397716035996
-0.10031572196088447,-0.10031572196088447
0.04344134307850091,0.04344134307850091
0.20598073822353463,0.20598073822353463
0.2970027995047535,0.2970027995047535
0.21898388983513734,0.21898388983513734
0.04344134307850091,0.04344134307850091
-0.09887092733737306,-0.09887092733737306
-0.12559962787233417,-0.12559962787233417
-0.06925263755538914,-0.06925263755538914
0.04344134307850091,0.04344134307850091
0.1749176538180393,0.1749176538180393
0.2970027995047535,0.2970027995047535
0.3634633521862784,0.3634633521862784
0.3815232849801711,0.3815232849801711
0.3511825978864314,0.3511825978864314
0.2970027995047535,0.2970027995047535
0.23415423338200714,0.23415423338200714
0.21248231402933598,0.21248231402933598
0.22187347908216015,0.22187347908216015
0.21248231402933598,0.21248231402933598
0.11351388231880434,0.11351388231880434
-0.041079142396916624,-0.041079142396916624
-0.14943873916027245,-0.14943873916027245
-0.12559962787233417,-0.12559962787233417
-0.049025512826229384,-0.049025512826229384
-0.041079142396916624,-0.041079142396916624
-0.11115168163722006,-0.11115168163722006
-0.12559962787233417,-0.12559962787233417
-0.0634734590613435,-0.0634734590613435
-0.041079142396916624,-0.041079142396916624
-0.1328236009898912,-0.1328236009898912
-0.209397716035996,-0.209397716035996
-0.18194661818927918,-0.18194661818927918
-0.12559962787233417,-0.12559962787233417
-0.16099709614836372,-0.16099709614836372
-0.209397716035996,-0.209397716035996
-0.1566627122778295,-0.1566627122778295
-0.041079142396916624,-0.041079142396916624
-0.04685832089096227,-0.04685832089096227
-0.209397716035996,-0.209397716035996
-0.40011060633950224,-0.40011060633950224
-0.4629591724622486,-0.4629591724622486
-0.42033773106866196,-0.42033773106866196
-0.3784386869868311,-0.3784386869868311
-0.43045129343324184,-0.43045129343324184
-0.5474796579376662,-0.5474796579376662
-0.6666752143773576,-0.6666752143773576
-0.7165206288885012,-0.7165206288885012
-0.6796783659889603,-0.6796783659889603
-0.5474796579376662,-0.5474796579376662
-0.3856626601043881,-0.3856626601043881
-0.2939182015114135,-0.2939182015114135
-0.3654355353752284,-0.3654355353752284
-0.5474796579376662,-0.5474796579376662
-0.7078518611474327,-0.7078518611474327
-0.7165206288885012,-0.7165206288885012
-0.5778203450314058,-0.5778203450314058
-0.3784386869868311,-0.3784386869868311
-0.2635775144176739,-0.2635775144176739
-0.2939182015114135,-0.2939182015114135
-0.432618485368509,-0.432618485368509
-0.5474796579376662,-0.5474796579376662
-0.58215472890194,-0.58215472890194
-0.5474796579376662,-0.5474796579376662
-0.48246389987965266,-0.48246389987965266
-0.3784386869868311,-0.3784386869868311
-0.29247340688790213,-0.29247340688790213
-0.2939182015114135,-0.2939182015114135
-0.3726595084927854,-0.3726595084927854
-0.3784386869868311,-0.3784386869868311
-0.2577983359236283,-0.2577983359236283
-0.12559962787233417,-0.12559962787233417
-0.12559962787233417,-0.12559962787233417
-0.209397716035996,-0.209397716035996
-0.2758582687175209,-0.2758582687175209
-0.2939182015114135,-0.2939182015114135
-0.30981094237003903,-0.30981094237003903
-0.2939182015114135,-0.2939182015114135
-0.24696237624729267,-0.24696237624729267
-0.209397716035996,-0.209397716035996
-0.2260128542063772,-0.2260128542063772
-0.209397716035996,-0.209397716035996
-0.14799394453676104,-0.14799394453676104
-0.12559962787233417,-0.12559962787233417
-0.20867531872424028,-0.20867531872424028
-0.2939182015114135,-0.2939182015114135
-0.30908854505828337,-0.30908854505828337
-0.2939182015114135,-0.2939182015114135
-0.2917510095761464,-0.2917510095761464
-0.209397716035996,-0.209397716035996
-0.049025512826229384,-0.049025512826229384
0.04344134307850091,0.04344134307850091
-0.012183249926688408,-0.012183249926688408
-0.041079142396916624,-0.041079142396916624
0.10267792264246876,0.10267792264246876
0.3815232849801711,0.3815232849801711
0.7441667354815352,0.7441667354815352
1.3105262278980083,1.3105262278980083
2.0430371020182934,2.0430371020182934
2.5776111127175154,2.5776111127175154
2.535712068635685,2.535712068635685
1.9866901117013485,1.9866901117013485
1.2679047865044217,1.2679047865044217
0.6350847414064237,0.6350847414064237
0.13663059629498692,0.13663059629498692
-0.209397716035996,-0.209397716035996
-0.46440396708576004,-0.46440396708576004
-0.7165206288885012,-0.7165206288885012
-0.9462429740268156,-0.9462429740268156
-0.9700820853147538,-0.9700820853147538
-0.7634764541526221,-0.7634764541526221
-0.5474796579376662,-0.5474796579376662
-0.5120821896616365,-0.5120821896616365
-0.5474796579376662,-0.5474796579376662
-0.513526984285148,-0.513526984285148
-0.4629591724622486,-0.4629591724622486
-0.5294197251437736,-0.5294197251437736
-0.6320001434130836,-0.6320001434130836
-0.6320001434130836,-0.6320001434130836
-0.5474796579376662,-0.5474796579376662
-0.5662619880433145,-0.5662619880433145
-0.7165206288885012,-0.7165206288885012
-0.8508865288750624,-0.8508865288750624
-0.8010411143639188,-0.8010411143639188
-0.6421137057776636,-0.6421137057776636
-0.5474796579376662,-0.5474796579376662
-0.6088834294369011,-0.6088834294369011
-0.7165206288885012,-0.7165206288885012
-0.7793691950112476,-0.7793691950112476
-0.8010411143639188,-0.8010411143639188
-0.8277698148988798,-0.8277698148988798
-0.8010411143639188,-0.8010411143639188
-0.6883471337300286,-0.6883471337300286
-0.5474796579376662,-0.5474796579376662
-0.4774071186973627,-0.4774071186973627
-0.4629591724622486,-0.4629591724622486
-0.48390869450316404,-0.48390869450316404
-0.5474796579376662,-0.5474796579376662
-0.6594512412598005,-0.6594512412598005
-0.7165206288885012,-0.7165206288885012
-0.663063227818579,-0.663063227818579
-0.5474796579376662,-0.5474796579376662
-0.46440396708576004,-0.46440396708576004
-0.3784386869868311,-0.3784386869868311
-0.22890244345340005,-0.22890244345340005
-0.041079142396916624,-0.041079142396916624
0.03693976727269956,0.03693976727269956
-0.041079142396916624,-0.041079142396916624
-0.15016113647202814,-0.15016113647202814
-0.12559962787233417,-0.12559962787233417
-0.031687977344092455,-0.031687977344092455
-0.041079142396916624,-0.041079142396916624
-0.1559403149660738,-0.1559403149660738
-0.12559962787233417,-0.12559962787233417
0.15324573446536813,0.15324573446536813
0.4660437704555886,0.4660437704555886
0.5339491177606249,0.5339491177606249
0.3815232849801711,0.3815232849801711
0.18647601080613058,0.18647601080613058
0.04344134307850091,0.04344134307850091
-0.05841667787905356,-0.05841667787905356
-0.041079142396916624,-0.041079142396916624
0.14385456941254396,0.14385456941254396
0.3815232849801711,0.3815232849801711
0.44942863228520735,0.44942863228520735
0.2970027995047535,0.2970027995047535
0.04777572694903515,0.04777572694903515
-0.12559962787233417,-0.12559962787233417
-0.17616743969523355,-0.17616743969523355
-0.12559962787233417,-0.12559962787233417
-0.039634347773405215,-0.039634347773405215
0.04344134307850091,0.04344134307850091
0.07378203017224054,0.07378203017224054
0.04344134307850091,0.04344134307850091
-0.041079142396916624,-0.041079142396916624
-0.12559962787233417,-0.12559962787233417
-0.18772579668332484,-0.18772579668332484
-0.209397716035996,-0.209397716035996
-0.1956721671126376,-0.1956721671126376
-0.12559962787233417,-0.12559962787233417
-0.053359896696763616,-0.053359896696763616
-0.041079142396916624,-0.041079142396916624
-0.09959332464912876,-0.09959332464912876
-0.12559962787233417,-0.12559962787233417
-0.08225578916699183,-0.08225578916699183
-0.041079142396916624,-0.041079142396916624
-0.10609490045493011,-0.10609490045493011
-0.209397716035996,-0.209397716035996
-0.2122873052830188,-0.2122873052830188
-0.041079142396916624,-0.041079142396916624
0.18214162693559635,0.18214162693559635
0.2970027995047535,0.2970027995047535
0.21898388983513734,0.21898388983513734
0.04344134307850091,0.04344134307850091
-0.07936619991996902,-0.07936619991996902
-0.041079142396916624,-0.041079142396916624
0.09978833339544593,0.09978833339544593
0.21248231402933598,0.21248231402933598
0.18214162693559635,0.18214162693559635
0.04344134307850091,0.04344134307850091
-0.09598133809035024,-0.09598133809035024
-0.12559962787233417,-0.12559962787233417
-0.06275106174958779,-0.06275106174958779
0.04344134307850091,0.04344134307850091
0.17925203768857353,0.17925203768857353
0.3815232849801711,0.3815232849801711
0.5577882290485632,0.5577882290485632
0.5505642559310061,0.5505642559310061
0.31217314305162336,0.31217314305162336
0.04344134307850091,0.04344134307850091
-0.07647661067294619,-0.07647661067294619
-0.041079142396916624,-0.041079142396916624
0.03116058877865392,0.03116058877865392
0.12796182855391844,0.12796182855391844
0.22909745219971722,0.22909745219971722
0.2970027995047535,0.2970027995047535
0.31650752692215756,0.31650752692215756
0.3815232849801711,0.3815232849801711
0.4783245247554356,0.4783245247554356
0.4660437704555886,0.4660437704555886
0.26521731778750246,0.26521731778750246
0.04344134307850091,0.04344134307850091
-0.049025512826229384,-0.049025512826229384
-0.041079142396916624,-0.041079142396916624
-0.030243182720581043,-0.030243182720581043
0.04344134307850091,0.04344134307850091
0.2543813581111669,0.2543813581111669
0.5505642559310061,0.5505642559310061
0.8149616720335943,0.8149616720335943
1.1414852569471732,1.1414852569471732
1.7360182445221188,1.7360182445221188
2.5776111127175154,2.5776111127175154
3.176478484162996,3.176478484162996
3.0002135400946037,3.0002135400946037
2.0408699100830265,2.0408699100830265
0.8886461978326763,0.8886461978326763
0.058611686625370724,0.058611686625370724
-0.3784386869868311,-0.3784386869868311
-0.5720411665373601,-0.5720411665373601
-0.5474796579376662,-0.5474796579376662
-0.439842458486066,-0.439842458486066
-0.5474796579376662,-0.5474796579376662
-0.9664700987559753,-0.9664700987559753
-1.3074416299046683,-1.3074416299046683
-1.2532618315229904,-1.2532618315229904
-0.9700820853147538,-0.9700820853147538
-0.8017635116756745,-0.8017635116756745
-0.7165206288885012,-0.7165206288885012
-0.5337541090143078,-0.5337541090143078
-0.2939182015114135,-0.2939182015114135
-0.19278257786561476,-0.19278257786561476
-0.209397716035996,-0.209397716035996
-0.2635775144176739,-0.2635775144176739
-0.3784386869868311,-0.3784386869868311
-0.6132178133074353,-0.6132178133074353
-0.8010411143639188,-0.8010411143639188
-0.8133218686637658,-0.8133218686637658
-0.7165206288885012,-0.7165206288885012
-0.6710095982478917,-0.6710095982478917
-0.6320001434130836,-0.6320001434130836
-0.496189448803011,-0.496189448803011
-0.2939182015114135,-0.2939182015114135
-0.1862810020598134,-0.1862810020598134
-0.209397716035996,-0.209397716035996
-0.3018645719407263,-0.3018645719407263
-0.3784386869868311,-0.3784386869868311
-0.4123913606393492,-0.4123913606393492
-0.3784386869868311,-0.3784386869868311
-0.32064690204637464,-0.32064690204637464
-0.2939182015114135,-0.2939182015114135
-0.31270053161706185,-0.31270053161706185
-0.2939182015114135,-0.2939182015114135
-0.2390160058179799,-0.2390160058179799
-0.209397716035996,-0.209397716035996
-0.2361264165709571,-0.2361264165709571
-0.209397716035996,-0.209397716035996
-0.08442298110225895,-0.08442298110225895
0.04344134307850091,0.04344134307850091
0.03621736996094386,0.03621736996094386
-0.041079142396916624,-0.041079142396916624
-0.006404071432642764,-0.006404071432642764
0.21248231402933598,0.21248231402933598
0.4140311640091778,0.4140311640091778
0.3815232849801711,0.3815232849801711
0.14096498016552114,0.14096498016552114
-0.041079142396916624,-0.041079142396916624
-0.039634347773405215,-0.039634347773405215
0.04344134307850091,0.04344134307850091
0.10195552533071305,0.10195552533071305
0.21248231402933598,0.21248231402933598
0.36707533874505693,0.36707533874505693
0.3815232849801711,0.3815232849801711
0.14385456941254396,0.14385456941254396
-0.12559962787233417,-0.12559962787233417
-0.20361853754195036,-0.20361853754195036
-0.12559962787233417,-0.12559962787233417
-0.047580718202717975,-0.047580718202717975
0.04344134307850091,0.04344134307850091
0.14529936403605537,0.14529936403605537
0.12796182855391844,0.12796182855391844
-0.06564065099661061,-0.06564065099661061
-0.209397716035996,-0.209397716035996
-0.15305072571905096,-0.15305072571905096
-0.041079142396916624,-0.041079142396916624
-0.08875736497279318,-0.08875736497279318
-0.209397716035996,-0.209397716035996
-0.24479518431202557,-0.24479518431202557
-0.209397716035996,-0.209397716035996
-0.23973840312973563,-0.23973840312973563
-0.2939182015114135,-0.2939182015114135
-0.2838046391468336,-0.2838046391468336
-0.209397716035996,-0.209397716035996
-0.1436595606662268,-0.1436595606662268
-0.041079142396916624,-0.041079142396916624
0.11206908769529293,0.11206908769529293
0.21248231402933598,0.21248231402933598
0.11206908769529293,0.11206908769529293
-0.12559962787233417,-0.12559962787233417
-0.2866942283938565,-0.2866942283938565
-0.209397716035996,-0.209397716035996
0.014545450608272694,0.014545450608272694
0.21248231402933598,0.21248231402933598
0.3071163618693334,0.3071163618693334
0.3815232849801711,0.3815232849801711
0.4530406188439859,0.4530406188439859
0.4660437704555886,0.4660437704555886
0.4075295882033764,0.4075295882033764
0.3815232849801711,0.3815232849801711
0.3598513656274999,0.3598513656274999
0.21248231402933598,0.21248231402933598
-0.02590879885004681,-0.02590879885004681
-0.041079142396916624,-0.041079142396916624
0.281110058646128,0.281110058646128
0.6350847414064237,0.6350847414064237
0.6228039871065767,0.6228039871065767
0.2970027995047535,0.2970027995047535
-0.04180153970867233,-0.04180153970867233
-0.209397716035996,-0.209397716035996
-0.2577983359236283,-0.2577983359236283
-0.209397716035996,-0.209397716035996
-0.08586777572577037,-0.08586777572577037
0.04344134307850091,0.04344134307850091
0.09689874414842312,0.09689874414842312
0.12796182855391844,0.12796182855391844
0.18214162693559635,0.18214162693559635
0.21248231402933598,0.21248231402933598
0.14313217210078827,0.14313217210078827
0.04344134307850091,0.04344134307850091
0.026826204908119686,0.026826204908119686
0.21248231402933598,0.21248231402933598
0.7051572806467271,0.7051572806467271
1.5640876843242608,1.5640876843242608
2.5436584390649974,2.5436584390649974
3.168532113733683,3.168532113733683
3.104961150299181,3.104961150299181
2.493090627242098,2.493090627242098
1.6970087896873107,1.6970087896873107
0.9724442859963381,0.9724442859963381
0.3584065710039885,0.3584065710039885
-0.12559962787233417,-0.12559962787233417
-0.4730727348268285,-0.4730727348268285
-0.7165206288885012,-0.7165206288885012
-0.9209590681153659,-0.9209590681153659
-1.0546025707901714,-1.0546025707901714
-1.0683281197135297,-1.0683281197135297
-0.9700820853147538,-0.9700820853147538
-0.8660568724219322,-0.8660568724219322
-0.8010411143639188,-0.8010411143639188
-0.7454165213587294,-0.7454165213587294
-0.6320001434130836,-0.6320001434130836
-0.5063030111675909,-0.5063030111675909
-0.4629591724622486,-0.4629591724622486
-0.5662619880433145,-0.5662619880433145
-0.7165206288885012,-0.7165206288885012
-0.7873155654405604,-0.7873155654405604
-0.7165206288885012,-0.7165206288885012
-0.6045490455663669,-0.6045490455663669
-0.5474796579376662,-0.5474796579376662
-0.6045490455663669,-0.6045490455663669
-0.7165206288885012,-0.7165206288885012
-0.8089874847932315,-0.8089874847932315
-0.8010411143639188,-0.8010411143639188
-0.6977382987828529,-0.6977382987828529
-0.5474796579376662,-0.5474796579376662
-0.42828410149797475,-0.42828410149797475
-0.3784386869868311,-0.3784386869868311
-0.43117369074499756,-0.43117369074499756
-0.5474796579376662,-0.5474796579376662
-0.6291105541660609,-0.6291105541660609
-0.5474796579376662,-0.5474796579376662
-0.3473756025813357,-0.3473756025813357
-0.209397716035996,-0.209397716035996
-0.2787478579645437,-0.2787478579645437
-0.4629591724622486,-0.4629591724622486
-0.5886563047077413,-0.5886563047077413
-0.5474796579376662,-0.5474796579376662
-0.3690475219340069,-0.3690475219340069
-0.12559962787233417,-0.12559962787233417
0.023936615661096863,0.023936615661096863
-0.041079142396916624,-0.041079142396916624
-0.2577983359236283,-0.2577983359236283
-0.3784386869868311,-0.3784386869868311
-0.3163125181758404,-0.3163125181758404
-0.209397716035996,-0.209397716035996
-0.16244189077187515,-0.16244189077187515
-0.041079142396916624,-0.041079142396916624
0.20670313553529035,0.20670313553529035
0.3815232849801711,0.3815232849801711
0.28544444251666223,0.28544444251666223
0.04344134307850091,0.04344134307850091
-0.1313788063663798,-0.1313788063663798
-0.209397716035996,-0.209397716035996
-0.2816374472115665,-0.2816374472115665
-0.2939182015114135,-0.2939182015114135
-0.18555860474805771,-0.18555860474805771
-0.041079142396916624,-0.041079142396916624
-0.02590879885004681,-0.02590879885004681
-0.12559962787233417,-0.12559962787233417
-0.21156490797126312,-0.21156490797126312
-0.209397716035996,-0.209397716035996
-0.17400024775996642,-0.17400024775996642
-0.12559962787233417,-0.12559962787233417
-0.0504703074497408,-0.0504703074497408
0.04344134307850091,0.04344134307850091
0.041274151143233795,0.041274151143233795
-0.12559962787233417,-0.12559962787233417
-0.38494026279263244,-0.38494026279263244
-0.5474796579376662,-0.5474796579376662
-0.5662619880433145,-0.5662619880433145
-0.5474796579376662,-0.5474796579376662
-0.5994922643840769,-0.5994922643840769
-0.6320001434130836,-0.6320001434130836
-0.5489244525611775,-0.5489244525611775
-0.3784386869868311,-0.3784386869868311
-0.25490874667660546,-0.25490874667660546
-0.209397716035996,-0.209397716035996
-0.2527415547413383,-0.2527415547413383
-0.3784386869868311,-0.3784386869868311
-0.5770979477196501,-0.5770979477196501
-0.7165206288885012,-0.7165206288885012
-0.7237446020060583,-0.7237446020060583
-0.6320001434130836,-0.6320001434130836
-0.5236405466497278,-0.5236405466497278
-0.3784386869868311,-0.3784386869868311
-0.21589929184179735,-0.21589929184179735
-0.12559962787233417,-0.12559962787233417
-0.1862810020598134,-0.1862810020598134
-0.2939182015114135,-0.2939182015114135
-0.314867723552329,-0.314867723552329
-0.209397716035996,-0.209397716035996
-0.03529996390287098,-0.03529996390287098
0.21248231402933598,0.21248231402933598
0.565734599477876,0.565734599477876
1.0569647714717556,1.0569647714717556
1.671724883775861,1.671724883775861
2.324049656291263,2.324049656291263
2.750264070227129,2.750264070227129
2.662131598192933,2.662131598192933
2.0314787450302023,2.0314787450302023
1.2260057424225907,1.2260057424225907
0.6437535091474921,0.6437535091474921
0.3815232849801711,0.3815232849801711
0.23487663069376286,0.23487663069376286
0.04344134307850091,0.04344134307850091
-0.19061538593034766,-0.19061538593034766
-0.3784386869868311,-0.3784386869868311
-0.5171389708439265,-0.5171389708439265
-0.6320001434130836,-0.6320001434130836
-0.7425269321117066,-0.7425269321117066
-0.8010411143639188,-0.8010411143639188
-0.7851483735052932,-0.7851483735052932
-0.7165206288885012,-0.7165206288885012
-0.6832903525477387,-0.6832903525477387
-0.7165206288885012,-0.7165206288885012
-0.7822587842582704,-0.7822587842582704
-0.8010411143639188,-0.8010411143639188
-0.793094743934606,-0.793094743934606
-0.8010411143639188,-0.8010411143639188
-0.8335489933929255,-0.8335489933929255
-0.8010411143639188,-0.8010411143639188
-0.7049622719004099,-0.7049622719004099
-0.6320001434130836,-0.6320001434130836
-0.6847351471712502,-0.6847351471712502
-0.8010411143639188,-0.8010411143639188
-0.8581105019926195,-0.8581105019926195
-0.8010411143639188,-0.8010411143639188
-0.7302461778118596,-0.7302461778118596
-0.7165206288885012,-0.7165206288885012
-0.7215774100707911,-0.7215774100707911
-0.6320001434130836,-0.6320001434130836
-0.47451752945033987,-0.47451752945033987
-0.3784386869868311,-0.3784386869868311
-0.432618485368509,-0.432618485368509
-0.5474796579376662,-0.5474796579376662
-0.6218865810485038,-0.6218865810485038
-0.6320001434130836,-0.6320001434130836
-0.6153850052427025,-0.6153850052427025
-0.5474796579376662,-0.5474796579376662
-0.44417684235660027,-0.44417684235660027
-0.3784386869868311,-0.3784386869868311
-0.41311375795110494,-0.41311375795110494
-0.4629591724622486,-0.4629591724622486
-0.4485112262271345,-0.4485112262271345
-0.3784386869868311,-0.3784386869868311
-0.33365005365797734,-0.33365005365797734
-0.2939182015114135,-0.2939182015114135
-0.2209560730240873,-0.2209560730240873
-0.12559962787233417,-0.12559962787233417
-0.091646954219816,-0.091646954219816
-0.12559962787233417,-0.12559962787233417
-0.16533148001889797,-0.16533148001889797
-0.12559962787233417,-0.12559962787233417
-0.010738455303176997,-0.010738455303176997
0.12796182855391844,0.12796182855391844
0.20887032747055745,0.20887032747055745
0.21248231402933598,0.21248231402933598
0.1611921048946809,0.1611921048946809
0.12796182855391844,0.12796182855391844
0.14674415865956678,0.14674415865956678
0.21248231402933598,0.21248231402933598
0.2514917688641441,0.2514917688641441
0.21248231402933598,0.21248231402933598
0.08678518178384324,0.08678518178384324
-0.041079142396916624,-0.041079142396916624
-0.09309174884332742,-0.09309174884332742
-0.041079142396916624,-0.041079142396916624
0.0282709995316311,0.0282709995316311
0.04344134307850091,0.04344134307850091
-0.009293660679665586,-0.009293660679665586
-0.041079142396916624,-0.041079142396916624
-0.03818955314989381,-0.03818955314989381
-0.041079142396916624,-0.041079142396916624
-0.11476366819599858,-0.11476366819599858
-0.209397716035996,-0.209397716035996
-0.2556311439883611,-0.2556311439883611
-0.209397716035996,-0.209397716035996
-0.12487723056057845,-0.12487723056057845
-0.041079142396916624,-0.041079142396916624
0.010933464049494166,0.010933464049494166
0.04344134307850091,0.04344134307850091
0.04633093232552373,0.04633093232552373
0.04344134307850091,0.04344134307850091
0.07667161941926336,0.07667161941926336
0.21248231402933598,0.21248231402933598
0.44942863228520735,0.44942863228520735
0.8041257123572587,0.8041257123572587
1.3321981472506794,1.3321981472506794
2.0704881998650104,2.0704881998650104
2.789995922373693,2.789995922373693
3.0847340255700213,3.0847340255700213
2.7177561911981223,2.7177561911981223
1.902169626225931,1.902169626225931
1.0490184010424428,1.0490184010424428
0.4660437704555886,0.4660437704555886
0.2298198495114729,0.2298198495114729
0.2970027995047535,0.2970027995047535
0.4458166457264288,0.4458166457264288
0.3815232849801711,0.3815232849801711
-0.03096558003233675,-0.03096558003233675
-0.5474796579376662,-0.5474796579376662
-0.8183786498460557,-0.8183786498460557
-0.7165206288885012,-0.7165206288885012
-0.45356800740942443,-0.45356800740942443
-0.2939182015114135,-0.2939182015114135
-0.35387717838713706,-0.35387717838713706
-0.5474796579376662,-0.5474796579376662
-0.7584196729703321,-0.7584196729703321
-0.8855615998393362,-0.8855615998393362
-0.9000095460744504,-0.9000095460744504
-0.8010411143639188,-0.8010411143639188
-0.6869023391065173,-0.6869023391065173
-0.6320001434130836,-0.6320001434130836
-0.6254985676072823,-0.6254985676072823
-0.5474796579376662,-0.5474796579376662
-0.4217825256921734,-0.4217825256921734
-0.3784386869868311,-0.3784386869868311
-0.452123212785913,-0.452123212785913
-0.4629591724622486,-0.4629591724622486
-0.35170998645186996,-0.35170998645186996
-0.2939182015114135,-0.2939182015114135
-0.4636815697740043,-0.4636815697740043
-0.7165206288885012,-0.7165206288885012
-0.8400505691987269,-0.8400505691987269
-0.8010411143639188,-0.8010411143639188
-0.7027950799651428,-0.7027950799651428
-0.5474796579376662,-0.5474796579376662
-0.3690475219340069,-0.3690475219340069
-0.2939182015114135,-0.2939182015114135
-0.40516738752179215,-0.40516738752179215
-0.5474796579376662,-0.5474796579376662
-0.5807099342784285,-0.5807099342784285
-0.5474796579376662,-0.5474796579376662
-0.5590380149257574,-0.5590380149257574
-0.5474796579376662,-0.5474796579376662
-0.4210601283804177,-0.4210601283804177
-0.209397716035996,-0.209397716035996
-0.025186401538291107,-0.025186401538291107
0.12796182855391844,0.12796182855391844
0.2298198495114729,0.2298198495114729
0.21248231402933598,0.21248231402933598
0.04416374039025662,0.04416374039025662
-0.12559962787233417,-0.12559962787233417
-0.17183305582469932,-0.17183305582469932
-0.12559962787233417,-0.12559962787233417
-0.09381414615508313,-0.09381414615508313
-0.041079142396916624,-0.041079142396916624
0.1221826500598728,0.1221826500598728
0.3815232849801711,0.3815232849801711
0.560677818295586,0.560677818295586
0.5505642559310061,0.5505642559310061
0.3815232849801711,0.3815232849801711
0.21248231402933598,0.21248231402933598
0.1489113505948339,0.1489113505948339
0.21248231402933598,0.21248231402933598
0.3352898570278059,0.3352898570278059
0.4660437704555886,0.4660437704555886
0.5469522693722276,0.5469522693722276
0.5505642559310061,0.5505642559310061
0.45015102959696307,0.45015102959696307
0.2970027995047535,0.2970027995047535
0.14168737747727686,0.14168737747727686
0.04344134307850091,0.04344134307850091
0.007321477490715639,0.007321477490715639
0.04344134307850091,0.04344134307850091
0.11423627963056004,0.11423627963056004
0.21248231402933598,0.21248231402933598
0.3482930086394086,0.3482930086394086
0.5505642559310061,0.5505642559310061
0.6928765263468801,0.6928765263468801
0.6350847414064237,0.6350847414064237
0.36563054412154555,0.36563054412154555
0.12796182855391844,0.12796182855391844
0.09111956565437747,0.09111956565437747
0.21248231402933598,0.21248231402933598
0.3201195134809361,0.3201195134809361
0.3815232849801711,0.3815232849801711
0.4277567129325362,0.4277567129325362
0.4660437704555886,0.4660437704555886
0.45809740002627586,0.45809740002627586
0.4660437704555886,0.4660437704555886
0.536116309695892,0.536116309695892
0.6350847414064237,0.6350847414064237
0.6813181693587889,0.6813181693587889
0.7196052268818413,0.7196052268818413
0.8568607161154252,0.8568607161154252
1.2260057424225907,1.2260057424225907
1.9057816127847096,1.9057816127847096
2.831172569143768,2.831172569143768
3.587522554551992,3.587522554551992
3.6756550265861883,3.6756550265861883
3.008882307835672,3.008882307835672
2.0704881998650104,2.0704881998650104
1.311248625209764,1.311248625209764
0.8041257123572587,0.8041257123572587
0.4682109623908557,0.4682109623908557
0.3815232849801711,0.3815232849801711
0.4660437704555886,0.4660437704555886
0.3815232849801711,0.3815232849801711
-0.06708544562012202,-0.06708544562012202
-0.5474796579376662,-0.5474796579376662
-0.6869023391065173,-0.6869023391065173
-0.5474796579376662,-0.5474796579376662
-0.45573519934469153,-0.45573519934469153
-0.4629591724622486,-0.4629591724622486
-0.44273204773308883,-0.44273204773308883
-0.3784386869868311,-0.3784386869868311
-0.40083300365125796,-0.40083300365125796
-0.4629591724622486,-0.4629591724622486
-0.4145585525746163,-0.4145585525746163
-0.209397716035996,-0.209397716035996
-0.037467155838138096,-0.037467155838138096
-0.041079142396916624,-0.041079142396916624
-0.21300970259477453,-0.21300970259477453
-0.3784386869868311,-0.3784386869868311
-0.4369528692390432,-0.4369528692390432
-0.3784386869868311,-0.3784386869868311
-0.26718950097645244,-0.26718950097645244
-0.12559962787233417,-0.12559962787233417
-0.027353593473558223,-0.027353593473558223
-0.041079142396916624,-0.041079142396916624
-0.1566627122778295,-0.1566627122778295
-0.209397716035996,-0.209397716035996
-0.11548606550775428,-0.11548606550775428
0.04344134307850091,0.04344134307850091
0.10267792264246876,0.10267792264246876
0.04344134307850091,0.04344134307850091
-0.07936619991996902,-0.07936619991996902
-0.209397716035996,-0.209397716035996
-0.314867723552329,-0.314867723552329
-0.2939182015114135,-0.2939182015114135
-0.11909805206653282,-0.11909805206653282
0.12796182855391844,0.12796182855391844
0.30133718337528775,0.30133718337528775
0.3815232849801711,0.3815232849801711
0.4003056150858194,0.4003056150858194
0.3815232849801711,0.3815232849801711
0.30061478606353204,0.30061478606353204
0.21248231402933598,0.21248231402933598
0.21609430058811452,0.21609430058811452
0.3815232849801711,0.3815232849801711
0.6069112462479511,0.6069112462479511
0.7196052268818413,0.7196052268818413
0.5888513134540585,0.5888513134540585
0.2970027995047535,0.2970027995047535
0.031882986090409626,0.031882986090409626
-0.041079142396916624,-0.041079142396916624
0.05788928931361502,0.05788928931361502
0.21248231402933598,0.21248231402933598
0.3071163618693334,0.3071163618693334
0.3815232849801711,0.3815232849801711
0.5353939123841364,0.5353939123841364
0.8041257123572587,0.8041257123572587
0.9941162053490092,0.9941162053490092
0.8886461978326763,0.8886461978326763
0.47254534626138994,0.47254534626138994
0.04344134307850091,0.04344134307850091
-0.13499079292515834,-0.13499079292515834
-0.041079142396916624,-0.041079142396916624
0.11712586887758286,0.11712586887758286
0.21248231402933598,0.21248231402933598
0.24643498768185415,0.24643498768185415
0.2970027995047535,0.2970027995047535
0.37068732530383547,0.37068732530383547
0.4660437704555886,0.4660437704555886
0.5548986398015404,0.5548986398015404
0.6350847414064237,0.6350847414064237
0.6603686473178734,0.6603686473178734
0.6350847414064237,0.6350847414064237
0.597520081195127,0.597520081195127
0.6350847414064237,0.6350847414064237
0.7333307758051996,0.7333307758051996
0.8041257123572587,0.8041257123572587
0.7282739946229096,0.7282739946229096
0.5505642559310061,0.5505642559310061
0.4140311640091778,0.4140311640091778
0.4660437704555886,0.4660437704555886
0.6502550849532934,0.6502550849532934
0.8041257123572587,0.8041257123572587
0.7838985876280989,0.7838985876280989
0.6350847414064237,0.6350847414064237
0.46459897583207715,0.46459897583207715
0.3815232849801711,0.3815232849801711
0.4133087666974221,0.4133087666974221
0.5505642559310061,0.5505642559310061
0.6618134419413848,0.6618134419413848
0.6350847414064237,0.6350847414064237
0.5036084306668853,0.5036084306668853
0.4660437704555886,0.4660437704555886
0.5570658317368075,0.5570658317368075
0.6350847414064237,0.6350847414064237
0.6126904247419968,0.6126904247419968
0.6350847414064237,0.6350847414064237
0.7318859811816882,0.7318859811816882
0.7196052268818413,0.7196052268818413
0.4674885650791,0.4674885650791
0.21248231402933598,0.21248231402933598
0.2016463543530004,0.2016463543530004
0.3815232849801711,0.3815232849801711
0.509387609160931,0.509387609160931
0.5505642559310061,0.5505642559310061
0.5859617242070357,0.5859617242070357
0.6350847414064237,0.6350847414064237
0.6119680274302411,0.6119680274302411
0.5505642559310061,0.5505642559310061
0.5043308279786409,0.5043308279786409
0.4660437704555886,0.4660437704555886
0.35334978982169857,0.35334978982169857
0.21248231402933598,0.21248231402933598
0.16480409145345942,0.16480409145345942
0.2970027995047535,0.2970027995047535
0.5231131580842894,0.5231131580842894
0.7196052268818413,0.7196052268818413
0.8026809177337473,0.8026809177337473
0.8041257123572587,0.8041257123572587
0.7188828295700855,0.7188828295700855
0.5505642559310061,0.5505642559310061
0.3360122543395616,0.3360122543395616
0.21248231402933598,0.21248231402933598
0.21753909521162593,0.21753909521162593
0.2970027995047535,0.2970027995047535
0.38224568229192674,0.38224568229192674
0.5505642559310061,0.5505642559310061
0.7961793419279459,0.7961793419279459
0.9724442859963381,0.9724442859963381
0.8778102381563407,0.8778102381563407
0.5505642559310061,0.5505642559310061
0.2038135462882675,0.2038135462882675
0.04344134307850091,0.04344134307850091
0.07594922210750765,0.07594922210750765
0.21248231402933598,0.21248231402933598
0.35407218713345423,0.35407218713345423
0.4660437704555886,0.4660437704555886
0.5014412387316182,0.5014412387316182
0.4660437704555886,0.4660437704555886
0.4255895209972691,0.4255895209972691
0.5505642559310061,0.5505642559310061
0.9514947639554227,0.9514947639554227
1.6486081697996784,1.6486081697996784
2.5169297385300364,2.5169297385300364
3.337573084684518,3.337573084684518
3.761620306685117,3.761620306685117
3.506614055635353,3.506614055635353
2.5754439207822486,2.5754439207822486
1.395046713373426,1.395046713373426
0.479769319378947,0.479769319378947
0.04344134307850091,0.04344134307850091
-0.15160593109553955,-0.15160593109553955
-0.3784386869868311,-0.3784386869868311
-0.6052714428781226,-0.6052714428781226
-0.5474796579376662,-0.5474796579376662
-0.17400024775996642,-0.17400024775996642
0.21248231402933598,0.21248231402933598
0.3150627322986462,0.3150627322986462
0.21248231402933598,0.21248231402933598
0.10628990920124728,0.10628990920124728
0.04344134307850091,0.04344134307850091
-0.05986147250256497,-0.05986147250256497
-0.12559962787233417,-0.12559962787233417
-0.026631196161802515,-0.026631196161802515
0.21248231402933598,0.21248231402933598
0.362018557562767,0.362018557562767
0.2970027995047535,0.2970027995047535
0.049220521572546555,0.049220521572546555
-0.209397716035996,-0.209397716035996
-0.3502651918283586,-0.3502651918283586
-0.2939182015114135,-0.2939182015114135
-0.12126524400179993,-0.12126524400179993
0.04344134307850091,0.04344134307850091
0.1359081989832312,0.1359081989832312
0.21248231402933598,0.21248231402933598
0.26088293391696826,0.26088293391696826
0.21248231402933598,0.21248231402933598
0.06150127587239355,0.06150127587239355
-0.041079142396916624,-0.041079142396916624
-0.026631196161802515,-0.026631196161802515
0.04344134307850091,0.04344134307850091
0.09762114146017882,0.09762114146017882
0.21248231402933598,0.21248231402933598
0.3887472580977281,0.3887472580977281
0.4660437704555886,0.4660437704555886
0.27822046939910516,0.27822046939910516
-0.041079142396916624,-0.041079142396916624
-0.21878888108882016,-0.21878888108882016
-0.12559962787233417,-0.12559962787233417
0.07956120866628619,0.07956120866628619
0.21248231402933598,0.21248231402933598
0.22331827370567156,0.22331827370567156
0.21248231402933598,0.21248231402933598
0.23487663069376286,0.23487663069376286
0.2970027995047535,0.2970027995047535
0.3663529414333012,0.3663529414333012
0.4660437704555886,0.4660437704555886
0.5722361752836773,0.5722361752836773
0.6350847414064237,0.6350847414064237
0.599687273130394,0.599687273130394
0.5505642559310061,0.5505642559310061
0.6069112462479511,0.6069112462479511
0.8041257123572587,0.8041257123572587
0.9767786698668723,0.9767786698668723
0.9724442859963381,0.9724442859963381
0.7976241365514574,0.7976241365514574
0.6350847414064237,0.6350847414064237
0.5722361752836773,0.5722361752836773
0.5505642559310061,0.5505642559310061
0.4682109623908557,0.4682109623908557
0.3815232849801711,0.3815232849801711
0.37791129842139254,0.37791129842139254
0.4660437704555886,0.4660437704555886
0.5397282962546706,0.5397282962546706
0.5505642559310061,0.5505642559310061
0.48771568980825974,0.48771568980825974
0.3815232849801711,0.3815232849801711
0.26088293391696826,0.26088293391696826
0.21248231402933598,0.21248231402933598
0.24499019305834271,0.24499019305834271
0.2970027995047535,0.2970027995047535
0.2796652640226166,0.2796652640226166
0.21248231402933598,0.21248231402933598
0.10051073070720164,0.10051073070720164
-0.041079142396916624,-0.041079142396916624
-0.1581075069013409,-0.1581075069013409
-0.12559962787233417,-0.12559962787233417
-0.0013472902503528263,-0.0013472902503528263
0.04344134307850091,0.04344134307850091
-0.04180153970867233,-0.04180153970867233
-0.041079142396916624,-0.041079142396916624
0.10701230651300299,0.10701230651300299
0.21248231402933598,0.21248231402933598
0.12723943124216275,0.12723943124216275
0.04344134307850091,0.04344134307850091
0.1099018957600258,0.1099018957600258
0.21248231402933598,0.21248231402933598
0.2009239570412447,0.2009239570412447
0.21248231402933598,0.21248231402933598
0.3482930086394086,0.3482930086394086
0.4660437704555886,0.4660437704555886
0.4176431505679563,0.4176431505679563
0.3815232849801711,0.3815232849801711
0.5418954881899377,0.5418954881899377
0.8041257123572587,0.8041257123572587
0.9832802456726737,0.9832802456726737
1.2260057424225907,1.2260057424225907
1.7851412617215068,1.7851412617215068
2.5776111127175154,2.5776111127175154
3.124465877716585,3.124465877716585
3.0847340255700213,3.0847340255700213
2.5646079611059127,2.5646079611059127
1.9866901117013485,1.9866901117013485
1.5922611794827333,1.5922611794827333
1.3105262278980083,1.3105262278980083
0.9363244204085528,0.9363244204085528
0.4660437704555886,0.4660437704555886
0.06583565974292778,0.06583565974292778
-0.12559962787233417,-0.12559962787233417
-0.17544504238347783,-0.17544504238347783
-0.209397716035996,-0.209397716035996
-0.29319580419965785,-0.29319580419965785
-0.3784386869868311,-0.3784386869868311
-0.45862478859171435,-0.45862478859171435
-0.5474796579376662,-0.5474796579376662
-0.6551168573892663,-0.6551168573892663
-0.7165206288885012,-0.7165206288885012
-0.707129463835677,-0.707129463835677
-0.6320001434130836,-0.6320001434130836
-0.525807738584995,-0.525807738584995
-0.3784386869868311,-0.3784386869868311
-0.2679118982882081,-0.2679118982882081
-0.2939182015114135,-0.2939182015114135
-0.496189448803011,-0.496189448803011
-0.7165206288885012,-0.7165206288885012
-0.8198234444695671,-0.8198234444695671
-0.8010411143639188,-0.8010411143639188
-0.7656436460878892,-0.7656436460878892
-0.7165206288885012,-0.7165206288885012
-0.6132178133074353,-0.6132178133074353
-0.4629591724622486,-0.4629591724622486
-0.3914418385984338,-0.3914418385984338
-0.4629591724622486,-0.4629591724622486
-0.6226089783602595,-0.6226089783602595
-0.7165206288885012,-0.7165206288885012
-0.6760663794301817,-0.6760663794301817
-0.5474796579376662,-0.5474796579376662
-0.45934718590347007,-0.45934718590347007
-0.4629591724622486,-0.4629591724622486
-0.5438676713788876,-0.5438676713788876
-0.6320001434130836,-0.6320001434130836
-0.6984606960946086,-0.6984606960946086
-0.7165206288885012,-0.7165206288885012
-0.6955711068475857,-0.6955711068475857
-0.6320001434130836,-0.6320001434130836
-0.5518140418082004,-0.5518140418082004
-0.4629591724622486,-0.4629591724622486
-0.40444499021003644,-0.40444499021003644
-0.3784386869868311,-0.3784386869868311
-0.35965635688118275,-0.35965635688118275
-0.2939182015114135,-0.2939182015114135
-0.2224008676475987,-0.2224008676475987
-0.209397716035996,-0.209397716035996
-0.2512967601178269,-0.2512967601178269
-0.209397716035996,-0.209397716035996
-0.026631196161802515,-0.026631196161802515
0.21248231402933598,0.21248231402933598
0.35551698175696567,0.35551698175696567
0.3815232849801711,0.3815232849801711
0.3208419107926918,0.3208419107926918
0.21248231402933598,0.21248231402933598
0.08534038716033182,0.08534038716033182
0.04344134307850091,0.04344134307850091
0.1344634043597198,0.1344634043597198
0.2970027995047535,0.2970027995047535
0.3916368473447509,0.3916368473447509
0.3815232849801711,0.3815232849801711
0.29916999144002066,0.29916999144002066
0.21248231402933598,0.21248231402933598
0.14313217210078827,0.14313217210078827
0.12796182855391844,0.12796182855391844
0.1604697075829252,0.1604697075829252
0.21248231402933598,0.21248231402933598
0.2254854656409387,0.2254854656409387
0.21248231402933598,0.21248231402933598
0.21753909521162593,0.21753909521162593
0.2970027995047535,0.2970027995047535
0.4075295882033764,0.4075295882033764
0.4660437704555886,0.4660437704555886
0.3851352715389496,0.3851352715389496
0.21248231402933598,0.21248231402933598
0.05572209737834791,0.05572209737834791
0.04344134307850091,0.04344134307850091
0.1770848457533064,0.1770848457533064
0.3815232849801711,0.3815232849801711
0.5007188414198624,0.5007188414198624
0.4660437704555886,0.4660437704555886
0.3230091027279589,0.3230091027279589
0.21248231402933598,0.21248231402933598
0.14168737747727686,0.14168737747727686
0.04344134307850091,0.04344134307850091
-0.06853024024363344,-0.06853024024363344
-0.041079142396916624,-0.041079142396916624
0.11640347156582716,0.11640347156582716
0.21248231402933598,0.21248231402933598
0.15180093984185672,0.15180093984185672
0.12796182855391844,0.12796182855391844
0.27822046939910516,0.27822046939910516
0.5505642559310061,0.5505642559310061
0.9269332553557287,0.9269332553557287
1.5640876843242608,1.5640876843242608
2.3377752052146215,2.3377752052146215
2.7466520836683506,2.7466520836683506
2.4584155562778243,2.4584155562778243
1.8176491407505135,1.8176491407505135
1.348090888109305,1.348090888109305
1.1414852569471732,1.1414852569471732
0.9103181171853474,0.9103181171853474
0.5505642559310061,0.5505642559310061
0.1749176538180393,0.1749176538180393
-0.12559962787233417,-0.12559962787233417
-0.3784386869868311,-0.3784386869868311
-0.5474796579376662,-0.5474796579376662
-0.5951578805135427,-0.5951578805135427
-0.5474796579376662,-0.5474796579376662
-0.4788519133208741,-0.4788519133208741
-0.3784386869868311,-0.3784386869868311
-0.2664671036646967,-0.2664671036646967
-0.209397716035996,-0.209397716035996
-0.26935669291171954,-0.26935669291171954
-0.3784386869868311,-0.3784386869868311
-0.47235033751507277,-0.47235033751507277
-0.5474796579376662,-0.5474796579376662
-0.6695648036243803,-0.6695648036243803
-0.8010411143639188,-0.8010411143639188
-0.8624448858631537,-0.8624448858631537
-0.8010411143639188,-0.8010411143639188
-0.7230222046943026,-0.7230222046943026
-0.7165206288885012,-0.7165206288885012
-0.7360253563059053,-0.7360253563059053
-0.6320001434130836,-0.6320001434130836
-0.4550128020329358,-0.4550128020329358
-0.3784386869868311,-0.3784386869868311
-0.4246721149391962,-0.4246721149391962
-0.3784386869868311,-0.3784386869868311
-0.21951127840057588,-0.21951127840057588
-0.209397716035996,-0.209397716035996
-0.5005238326735453,-0.5005238326735453
-0.8010411143639188,-0.8010411143639188
-0.8154890605990328,-0.8154890605990328
-0.6320001434130836,-0.6320001434130836
-0.5409780821318648,-0.5409780821318648
-0.5474796579376662,-0.5474796579376662
-0.496189448803011,-0.496189448803011
-0.3784386869868311,-0.3784386869868311
-0.3415964240872901,-0.3415964240872901
-0.3784386869868311,-0.3784386869868311
-0.37627149505156393,-0.37627149505156393
-0.2939182015114135,-0.2939182015114135
-0.22529045689462152,-0.22529045689462152
-0.209397716035996,-0.209397716035996
-0.24840717087080408,-0.24840717087080408
-0.2939182015114135,-0.2939182015114135
-0.2729686794704981,-0.2729686794704981
-0.12559962787233417,-0.12559962787233417
0.009488669425982756,0.009488669425982756
-0.041079142396916624,-0.041079142396916624
-0.19350497517737048,-0.19350497517737048
-0.12559962787233417,-0.12559962787233417
0.18936560005315342,0.18936560005315342
0.3815232849801711,0.3815232849801711
0.1720280645710165,0.1720280645710165
-0.209397716035996,-0.209397716035996
-0.4268393068744633,-0.4268393068744633
-0.4629591724622486,-0.4629591724622486
-0.5142493815969037,-0.5142493815969037
-0.5474796579376662,-0.5474796579376662
-0.4073345794570593,-0.4073345794570593
-0.12559962787233417,-0.12559962787233417
0.033327780713921035,0.033327780713921035
-0.041079142396916624,-0.041079142396916624
-0.19350497517737048,-0.19350497517737048
-0.209397716035996,-0.209397716035996
-0.13210120367813552,-0.13210120367813552
-0.12559962787233417,-0.12559962787233417
-0.23251443001217856,-0.23251443001217856
-0.2939182015114135,-0.2939182015114135
-0.2512967601178269,-0.2512967601178269
-0.209397716035996,-0.209397716035996
-0.24623997893553698,-0.24623997893553698
-0.209397716035996,-0.209397716035996
-0.010016057991421292,-0.010016057991421292
0.21248231402933598,0.21248231402933598
0.24499019305834271,0.24499019305834271
0.12796182855391844,0.12796182855391844
-0.006404071432642764,-0.006404071432642764
-0.12559962787233417,-0.12559962787233417
-0.2614103224824068,-0.2614103224824068
-0.2939182015114135,-0.2939182015114135
-0.10970688701370865,-0.10970688701370865
0.21248231402933598,0.21248231402933598
0.41908794519146775,0.41908794519146775
0.3815232849801711,0.3815232849801711
0.14313217210078827,0.14313217210078827
-0.12559962787233417,-0.12559962787233417
-0.27224628215874236,-0.27224628215874236
-0.209397716035996,-0.209397716035996
-0.04685832089096227,-0.04685832089096227
0.04344134307850091,0.04344134307850091
-0.026631196161802515,-0.026631196161802515
-0.12559962787233417,-0.12559962787233417
-0.14943873916027245,-0.14943873916027245
-0.12559962787233417,-0.12559962787233417
-0.1559403149660738,-0.1559403149660738
-0.209397716035996,-0.209397716035996
-0.209397716035996,-0.209397716035996
-0.12559962787233417,-0.12559962787233417
-0.006404071432642764,-0.006404071432642764
0.12796182855391844,0.12796182855391844
0.22259587639391587,0.22259587639391587
0.21248231402933598,0.21248231402933598
0.10556751188949158,0.10556751188949158
0.04344134307850091,0.04344134307850091
0.12001545812460569,0.12001545812460569
0.3815232849801711,0.3815232849801711
0.921154076861683,0.921154076861683
1.8176491407505135,1.8176491407505135
2.761100029903465,2.761100029903465
3.168532113733683,3.168532113733683
2.760377632591709,2.760377632591709
1.902169626225931,1.902169626225931
1.0735799096421368,1.0735799096421368
0.3815232849801711,0.3815232849801711
-0.3040317638759934,-0.3040317638759934
-0.8855615998393362,-0.8855615998393362
-1.158627783682993,-1.158627783682993
-1.139123056265589,-1.139123056265589
-1.0907224363779566,-1.0907224363779566
-1.139123056265589,-1.139123056265589
-1.1723533326063513,-1.1723533326063513
-1.0546025707901714,-1.0546025707901714
-0.8783376267217792,-0.8783376267217792
-0.8010411143639188,-0.8010411143639188
-0.8277698148988798,-0.8277698148988798
-0.8010411143639188,-0.8010411143639188
-0.712186245017967,-0.712186245017967
-0.7165206288885012,-0.7165206288885012
-0.8927855729568933,-0.8927855729568933
-1.0546025707901714,-1.0546025707901714
-1.0769968874545983,-1.0769968874545983
-1.0546025707901714,-1.0546025707901714
-1.1232303154069634,-1.1232303154069634
-1.139123056265589,-1.139123056265589
-0.9433533847797927,-0.9433533847797927
-0.6320001434130836,-0.6320001434130836
-0.4759623240738513,-0.4759623240738513
-0.5474796579376662,-0.5474796579376662
-0.7259117939413254,-0.7259117939413254
-0.8855615998393362,-0.8855615998393362
-1.001867567032005,-1.001867567032005
-1.0546025707901714,-1.0546025707901714
-1.060381749284217,-1.060381749284217
-1.0546025707901714,-1.0546025707901714
-1.0466562003608586,-1.0466562003608586
-0.9700820853147538,-0.9700820853147538
-0.8313818014576584,-0.8313818014576584
-0.7165206288885012,-0.7165206288885012
-0.6760663794301817,-0.6760663794301817
-0.6320001434130836,-0.6320001434130836
-0.5583156176140017,-0.5583156176140017
-0.5474796579376662,-0.5474796579376662
-0.692681517600563,-0.692681517600563
-0.8855615998393362,-0.8855615998393362
-0.9411861928445256,-0.9411861928445256
-0.8010411143639188,-0.8010411143639188
-0.624053772983771,-0.624053772983771
-0.5474796579376662,-0.5474796579376662
-0.5417004794436205,-0.5417004794436205
-0.4629591724622486,-0.4629591724622486
-0.30908854505828337,-0.30908854505828337
-0.209397716035996,-0.209397716035996
-0.2599655278588954,-0.2599655278588954
-0.3784386869868311,-0.3784386869868311
-0.4759623240738513,-0.4759623240738513
-0.5474796579376662,-0.5474796579376662
-0.624053772983771,-0.624053772983771
-0.6320001434130836,-0.6320001434130836
-0.5250853412732392,-0.5250853412732392
-0.3784386869868311,-0.3784386869868311
-0.3192021074228632,-0.3192021074228632
-0.2939182015114135,-0.2939182015114135
-0.15521791765431808,-0.15521791765431808
0.12796182855391844,0.12796182855391844
0.330233075845516,0.330233075845516
0.21248231402933598,0.21248231402933598
-0.23034723807691146,-0.23034723807691146
-0.7165206288885012,-0.7165206288885012
-0.9585237283266625,-0.9585237283266625
-0.8855615998393362,-0.8855615998393362
-0.6897919283535401,-0.6897919283535401
-0.5474796579376662,-0.5474796579376662
-0.4752399267620956,-0.4752399267620956
-0.3784386869868311,-0.3784386869868311
-0.3040317638759934,-0.3040317638759934
-0.3784386869868311,-0.3784386869868311
-0.611773018683924,-0.611773018683924
-0.8010411143639188,-0.8010411143639188
-0.8364385826399483,-0.8364385826399483
-0.8010411143639188,-0.8010411143639188
-0.81259947135201,-0.81259947135201
-0.8010411143639188,-0.8010411143639188
-0.7403597401764395,-0.7403597401764395
-0.7165206288885012,-0.7165206288885012
-0.7678108380231563,-0.7678108380231563
-0.7165206288885012,-0.7165206288885012
-0.4990790380500339,-0.4990790380500339
-0.2939182015114135,-0.2939182015114135
-0.26718950097645244,-0.26718950097645244
-0.2939182015114135,-0.2939182015114135
-0.270801487535231,-0.270801487535231
-0.2939182015114135,-0.2939182015114135
-0.4116689633275935,-0.4116689633275935
-0.3784386869868311,-0.3784386869868311
-0.04324633433218374,-0.04324633433218374
0.3815232849801711,0.3815232849801711
0.6199143978595538,0.6199143978595538
0.8041257123572587,0.8041257123572587
1.213002590810988,1.213002590810988
1.8176491407505135,1.8176491407505135
2.235917184257067,2.235917184257067
2.155008685340428,2.155008685340428
1.5395261757245668,1.5395261757245668
0.6350847414064237,0.6350847414064237
-0.15160593109553955,-0.15160593109553955
-0.4629591724622486,-0.4629591724622486
-0.34882039720484714,-0.34882039720484714
-0.209397716035996,-0.209397716035996
-0.3827730708573653,-0.3827730708573653
-0.8010411143639188,-0.8010411143639188
-1.236646693352609,-1.236646693352609
-1.5610030863309208,-1.5610030863309208
-1.7379904277110687,-1.7379904277110687
-1.6455235718063383,-1.6455235718063383
-1.2380914879761205,-1.2380914879761205
-0.7165206288885012,-0.7165206288885012
-0.4579023912799587,-0.4579023912799587
-0.6320001434130836,-0.6320001434130836
-1.079886476701621,-1.079886476701621
-1.4764826008555034,-1.4764826008555034
-1.6816434373941236,-1.6816434373941236
-1.730044057281756,-1.730044057281756
-1.6960913836292377,-1.6960913836292377
-1.5610030863309208,-1.5610030863309208
-1.3955741019388643,-1.3955741019388643
-1.3074416299046683,-1.3074416299046683
-1.2893816971107757,-1.2893816971107757
-1.139123056265589,-1.139123056265589
-0.8111546767284986,-0.8111546767284986
-0.5474796579376662,-0.5474796579376662
-0.601659456319344,-0.601659456319344
-0.8855615998393362,-0.8855615998393362
-1.158627783682993,-1.158627783682993
-1.3074416299046683,-1.3074416299046683
-1.3630662229098576,-1.3630662229098576
-1.3074416299046683,-1.3074416299046683
-1.16585175680055,-1.16585175680055
-1.0546025707901714,-1.0546025707901714
-1.0784416820781095,-1.0784416820781095
-1.139123056265589,-1.139123056265589
-1.1001136014307809,-1.1001136014307809
-0.9700820853147538,-0.9700820853147538
-0.8884511890863591,-0.8884511890863591
-0.8855615998393362,-0.8855615998393362
-0.8573881046808638,-0.8573881046808638
-0.7165206288885012,-0.7165206288885012
-0.5604828095492689,-0.5604828095492689
-0.5474796579376662,-0.5474796579376662
-0.7107414503944556,-0.7107414503944556
-0.8855615998393362,-0.8855615998393362
-0.9238486573623886,-0.9238486573623886
-0.8010411143639188,-0.8010411143639188
-0.5763755504078943,-0.5763755504078943
-0.2939182015114135,-0.2939182015114135
-0.08514537841401466,-0.08514537841401466
-0.12559962787233417,-0.12559962787233417
-0.44345444504484455,-0.44345444504484455
-0.8010411143639188,-0.8010411143639188
-0.9765836611205552,-0.9765836611205552
-0.9700820853147538,-0.9700820853147538
-0.9086783138155189,-0.9086783138155189
-0.8010411143639188,-0.8010411143639188
-0.6305553487895723,-0.6305553487895723
-0.4629591724622486,-0.4629591724622486
-0.3885522493514109,-0.3885522493514109
-0.3784386869868311,-0.3784386869868311
-0.41744814182163914,-0.41744814182163914
-0.5474796579376662,-0.5474796579376662
-0.7584196729703321,-0.7584196729703321
-0.8855615998393362,-0.8855615998393362
-0.8624448858631537,-0.8624448858631537
-0.8010411143639188,-0.8010411143639188
-0.81259947135201,-0.81259947135201
-0.8010411143639188,-0.8010411143639188
-0.6869023391065173,-0.6869023391065173
-0.5474796579376662,-0.5474796579376662
-0.4774071186973627,-0.4774071186973627
-0.3784386869868311,-0.3784386869868311
-0.18844819399508053,-0.18844819399508053
-0.041079142396916624,-0.041079142396916624
-0.12487723056057845,-0.12487723056057845
-0.3784386869868311,-0.3784386869868311
-0.6096058267486568,-0.6096058267486568
-0.7165206288885012,-0.7165206288885012
-0.7454165213587294,-0.7454165213587294
-0.7165206288885012,-0.7165206288885012
-0.6464480896481978,-0.6464480896481978
-0.5474796579376662,-0.5474796579376662
-0.4196153337569063,-0.4196153337569063
-0.209397716035996,-0.209397716035996
-0.0244640042265354,-0.0244640042265354
-0.041079142396916624,-0.041079142396916624
-0.29247340688790213,-0.29247340688790213
-0.5474796579376662,-0.5474796579376662
-0.6399465138423964,-0.6399465138423964
-0.6320001434130836,-0.6320001434130836
-0.6442808977129306,-0.6442808977129306
-0.6320001434130836,-0.6320001434130836
-0.5626500014845359,-0.5626500014845359
-0.5474796579376662,-0.5474796579376662
-0.6991830934063643,-0.6991830934063643
-0.8855615998393362,-0.8855615998393362
-0.8992871487626947,-0.8992871487626947
-0.7165206288885012,-0.7165206288885012
-0.4911326676207211,-0.4911326676207211
-0.209397716035996,-0.209397716035996
0.374299311862614,0.374299311862614
1.395046713373426,1.395046713373426
2.4649171320836256,2.4649171320836256
2.9156930546191857,2.9156930546191857
2.4165165121959933,2.4165165121959933
1.3105262278980083,1.3105262278980083
0.16408169414170373,0.16408169414170373
-0.7165206288885012,-0.7165206288885012
-1.3247791653868053,-1.3247791653868053
-1.6455235718063383,-1.6455235718063383
-1.680921040082368,-1.680921040082368
-1.5610030863309208,-1.5610030863309208
-1.4851513685965718,-1.4851513685965718
-1.4764826008555034,-1.4764826008555034
-1.455533078814588,-1.455533078814588
-1.3919621153800859,-1.3919621153800859
-1.3413943035571865,-1.3413943035571865
-1.3074416299046683,-1.3074416299046683
-1.276378545499173,-1.276378545499173
-1.2229211444292507,-1.2229211444292507
-1.1058927799248264,-1.1058927799248264
-0.8855615998393362,-0.8855615998393362
-0.7129086423297227,-0.7129086423297227
-0.8010411143639188,-0.8010411143639188
-1.136233467018566,-1.136233467018566
-1.3919621153800859,-1.3919621153800859
-1.40135328043291,-1.40135328043291
-1.3074416299046683,-1.3074416299046683
-1.2864921078637528,-1.2864921078637528
-1.2229211444292507,-1.2229211444292507
-1.0069243482142949,-1.0069243482142949
-0.8010411143639188,-0.8010411143639188
-0.8581105019926195,-0.8581105019926195
-1.139123056265589,-1.139123056265589
-1.4165236239797798,-1.4165236239797798
-1.5610030863309208,-1.5610030863309208
-1.610126103530309,-1.610126103530309
-1.5610030863309208,-1.5610030863309208
-1.3847381422625287,-1.3847381422625287
-1.139123056265589,-1.139123056265589
-1.0054795535907834,-1.0054795535907834
-1.0546025707901714,-1.0546025707901714
-1.16079497561826,-1.16079497561826
-1.139123056265589,-1.139123056265589
-1.0184827052023862,-1.0184827052023862
-0.9700820853147538,-0.9700820853147538
-1.0408770218668129,-1.0408770218668129
-1.0546025707901714,-1.0546025707901714
-0.9267382466094115,-0.9267382466094115
-0.8010411143639188,-0.8010411143639188
-0.8032083062991858,-0.8032083062991858
-0.8010411143639188,-0.8010411143639188
-0.6767887767419374,-0.6767887767419374
-0.5474796579376662,-0.5474796579376662
-0.589378702019497,-0.589378702019497
-0.7165206288885012,-0.7165206288885012
-0.7468613159822408,-0.7468613159822408
-0.6320001434130836,-0.6320001434130836
-0.444899239668356,-0.444899239668356
-0.209397716035996,-0.209397716035996
-0.017240031108978347,-0.017240031108978347
-0.041079142396916624,-0.041079142396916624
-0.32642608054042027,-0.32642608054042027
-0.6320001434130836,-0.6320001434130836
-0.7432493294234623,-0.7432493294234623
-0.7165206288885012,-0.7165206288885012
-0.7360253563059053,-0.7360253563059053
-0.8010411143639188,-0.8010411143639188
-0.8241578283401013,-0.8241578283401013
-0.8010411143639188,-0.8010411143639188
-0.8017635116756745,-0.8017635116756745
-0.8010411143639188,-0.8010411143639188
-0.7656436460878892,-0.7656436460878892
-0.7165206288885012,-0.7165206288885012
-0.6912367229770515,-0.6912367229770515
-0.6320001434130836,-0.6320001434130836
-0.5286973278320178,-0.5286973278320178
-0.4629591724622486,-0.4629591724622486
-0.5185837654674379,-0.5185837654674379
-0.6320001434130836,-0.6320001434130836
-0.7295237805001039,-0.7295237805001039
-0.8010411143639188,-0.8010411143639188
-0.874003242851245,-0.874003242851245
-0.8855615998393362,-0.8855615998393362
-0.8075426901697201,-0.8075426901697201
-0.7165206288885012,-0.7165206288885012
-0.7468613159822408,-0.7468613159822408
-0.8855615998393362,-0.8855615998393362
-0.9975331831614707,-0.9975331831614707
-0.9700820853147538,-0.9700820853147538
-0.8646120777984209,-0.8646120777984209
-0.8010411143639188,-0.8010411143639188
-0.8118770740402543,-0.8118770740402543
-0.8010411143639188,-0.8010411143639188
-0.7483061106057523,-0.7483061106057523
-0.7165206288885012,-0.7165206288885012
-0.768533235334912,-0.768533235334912
-0.8010411143639188,-0.8010411143639188
-0.7201326154472797,-0.7201326154472797
-0.5474796579376662,-0.5474796579376662
-0.41528094988637204,-0.41528094988637204
-0.3784386869868311,-0.3784386869868311
-0.4347856773037761,-0.4347856773037761
-0.5474796579376662,-0.5474796579376662
-0.6717319955596475,-0.6717319955596475
-0.7165206288885012,-0.7165206288885012
-0.670287200936136,-0.670287200936136
-0.6320001434130836,-0.6320001434130836
-0.7013502853416314,-0.7013502853416314
-0.8010411143639188,-0.8010411143639188
-0.749028507917508,-0.749028507917508
-0.3784386869868311,-0.3784386869868311
0.3504602005746757,0.3504602005746757
1.3105262278980083,1.3105262278980083
2.129724779428978,2.129724779428978
2.4085701417666807,2.4085701417666807
2.041592307394782,2.041592307394782
1.3105262278980083,1.3105262278980083
0.5187787742137551,0.5187787742137551
-0.209397716035996,-0.209397716035996
-0.793094743934606,-0.793094743934606
-1.0546025707901714,-1.0546025707901714
-1.0119811293965848,-1.0119811293965848
-0.9700820853147538,-0.9700820853147538
-1.1766877164768856,-1.1766877164768856
-1.4764826008555034,-1.4764826008555034
-1.6086813089067975,-1.6086813089067975
-1.5610030863309208,-1.5610030863309208
-1.4873185605318389,-1.4873185605318389
-1.3919621153800859,-1.3919621153800859
-1.236646693352609,-1.236646693352609
-1.0546025707901714,-1.0546025707901714
-0.874003242851245,-0.874003242851245
-0.6320001434130836,-0.6320001434130836
-0.44200965042133317,-0.44200965042133317
-0.5474796579376662,-0.5474796579376662
-0.9224038627388773,-0.9224038627388773
-1.139123056265589,-1.139123056265589
-1.0192051025141418,-1.0192051025141418
-0.8855615998393362,-0.8855615998393362
-1.0546025707901714,-1.0546025707901714
-1.3074416299046683,-1.3074416299046683
-1.3312807411926066,-1.3312807411926066
-1.2229211444292507,-1.2229211444292507
-1.2872145051755086,-1.2872145051755086
-1.4764826008555034,-1.4764826008555034
-1.5147696583785557,-1.5147696583785557
-1.3074416299046683,-1.3074416299046683
-1.025706678319943,-1.025706678319943
-0.8010411143639188,-0.8010411143639188
-0.680400763300716,-0.680400763300716
-0.7165206288885012,-0.7165206288885012
-0.967192496067731,-0.967192496067731
-1.3074416299046683,-1.3074416299046683
-1.4952649309611517,-1.4952649309611517
-1.3919621153800859,-1.3919621153800859
-1.1600725783065045,-1.1600725783065045
-1.0546025707901714,-1.0546025707901714
-1.1420126455126116,-1.1420126455126116
-1.2229211444292507,-1.2229211444292507
-1.1665741541123058,-1.1665741541123058
-1.0546025707901714,-1.0546025707901714
-1.0098139374613175,-1.0098139374613175
-0.9700820853147538,-0.9700820853147538
-0.8754480374747564,-0.8754480374747564
-0.8010411143639188,-0.8010411143639188
-0.8147666632872772,-0.8147666632872772
-0.8010411143639188,-0.8010411143639188
-0.6818455579242273,-0.6818455579242273
-0.5474796579376662,-0.5474796579376662
-0.4759623240738513,-0.4759623240738513
-0.3784386869868311,-0.3784386869868311
-0.27730306334103233,-0.27730306334103233
-0.3784386869868311,-0.3784386869868311
-0.7468613159822408,-0.7468613159822408
-1.0546025707901714,-1.0546025707901714
-1.023539486384676,-1.023539486384676
-0.8010411143639188,-0.8010411143639188
-0.7381925482411724,-0.7381925482411724
-0.8855615998393362,-0.8855615998393362
-1.0401546245550573,-1.0401546245550573
-1.0546025707901714,-1.0546025707901714
-0.9570789337031511,-0.9570789337031511
-0.8010411143639188,-0.8010411143639188
-0.6818455579242273,-0.6818455579242273
-0.7165206288885012,-0.7165206288885012
-0.949854960585594,-0.949854960585594
-1.2229211444292507,-1.2229211444292507
-1.3565646471040562,-1.3565646471040562
-1.3074416299046683,-1.3074416299046683
-1.183189292282687,-1.183189292282687
-1.0546025707901714,-1.0546025707901714
-0.9325174251034571,-0.9325174251034571
-0.8010411143639188,-0.8010411143639188
-0.7143534369532341,-0.7143534369532341
-0.7165206288885012,-0.7165206288885012
-0.7967067304933845,-0.7967067304933845
-0.8855615998393362,-0.8855615998393362
-0.9751388664970437,-0.9751388664970437
-1.0546025707901714,-1.0546025707901714
-1.0134259240200962,-1.0134259240200962
-0.7165206288885012,-0.7165206288885012
-0.32859327247568737,-0.32859327247568737
-0.209397716035996,-0.209397716035996
-0.4737951321385842,-0.4737951321385842
-0.8010411143639188,-0.8010411143639188
-0.9339622197269686,-0.9339622197269686
-0.9700820853147538,-0.9700820853147538
-1.0639937358429956,-1.0639937358429956
-1.0546025707901714,-1.0546025707901714
-0.793094743934606,-0.793094743934606
-0.4629591724622486,-0.4629591724622486
-0.38782985203965525,-0.38782985203965525
-0.5474796579376662,-0.5474796579376662
-0.7172430262002569,-0.7172430262002569
-0.8010411143639188,-0.8010411143639188
-0.8906183810216263,-0.8906183810216263
-0.9700820853147538,-0.9700820853147538
-0.9238486573623886,-0.9238486573623886
-0.7165206288885012,-0.7165206288885012
-0.48246389987965266,-0.48246389987965266
-0.3784386869868311,-0.3784386869868311
-0.5005238326735453,-0.5005238326735453
-0.8010411143639188,-0.8010411143639188
-1.0979464094955136,-1.0979464094955136
-1.139123056265589,-1.139123056265589
-0.8227130337165899,-0.8227130337165899
-0.209397716035996,-0.209397716035996
0.5772929564659672,0.5772929564659672
1.395046713373426,1.395046713373426
1.941179081060739,1.941179081060739
1.902169626225931,1.902169626225931
1.2960782816628942,1.2960782816628942
0.5505642559310061,0.5505642559310061
0.00876627211422705,0.00876627211422705
-0.3784386869868311,-0.3784386869868311
-0.829937006834147,-0.829937006834147
-1.3074416299046683,-1.3074416299046683
-1.6245740497654229,-1.6245740497654229
-1.730044057281756,-1.730044057281756
-1.7488263873874044,-1.7488263873874044
-1.730044057281756,-1.730044057281756
-1.63685480406527,-1.63685480406527
-1.4764826008555034,-1.4764826008555034
-1.3681230040921475,-1.3681230040921475
-1.3919621153800859,-1.3919621153800859
-1.543665550848784,-1.543665550848784
-1.730044057281756,-1.730044057281756
-1.8456276271626688,-1.8456276271626688
-1.8145645427571735,-1.8145645427571735
-1.688145013199925,-1.688145013199925
-1.5610030863309208,-1.5610030863309208
-1.501766506766953,-1.501766506766953
-1.4764826008555034,-1.4764826008555034
-1.4916529444023732,-1.4916529444023732
-1.5610030863309208,-1.5610030863309208
-1.6556371341709182,-1.6556371341709182
-1.6455235718063383,-1.6455235718063383
-1.4902081497788617,-1.4902081497788617
-1.3074416299046683,-1.3074416299046683
-1.2749337508756615,-1.2749337508756615
-1.3919621153800859,-1.3919621153800859
-1.5024889040787088,-1.5024889040787088
-1.4764826008555034,-1.4764826008555034
-1.3934069100035973,-1.3934069100035973
-1.3919621153800859,-1.3919621153800859
-1.4786497927907705,-1.4786497927907705
-1.4764826008555034,-1.4764826008555034
-1.2756561481874171,-1.2756561481874171
-0.9700820853147538,-0.9700820853147538
-0.7772020030759804,-0.7772020030759804
-0.8010411143639188,-0.8010411143639188
-0.9953659912262035,-0.9953659912262035
-1.2229211444292507,-1.2229211444292507
-1.3565646471040562,-1.3565646471040562
-1.3074416299046683,-1.3074416299046683
-1.1297318912127647,-1.1297318912127647
-0.9700820853147538,-0.9700820853147538
-0.9397413982210142,-0.9397413982210142
-0.9700820853147538,-0.9700820853147538
-0.9339622197269686,-0.9339622197269686
-0.8010411143639188,-0.8010411143639188
-0.692681517600563,-0.692681517600563
-0.7165206288885012,-0.7165206288885012
-0.8768928320982678,-0.8768928320982678
-1.0546025707901714,-1.0546025707901714
-1.1297318912127647,-1.1297318912127647
-1.0546025707901714,-1.0546025707901714
-0.9094007111272746,-0.9094007111272746
-0.8010411143639188,-0.8010411143639188
-0.7829811815700262,-0.7829811815700262
-0.8010411143639188,-0.8010411143639188
-0.7923723466228503,-0.7923723466228503
-0.7165206288885012,-0.7165206288885012
-0.5966026751370541,-0.5966026751370541
-0.4629591724622486,-0.4629591724622486
-0.37627149505156393,-0.37627149505156393
-0.3784386869868311,-0.3784386869868311
-0.4853534891266755,-0.4853534891266755
-0.6320001434130836,-0.6320001434130836
-0.7497509052292637,-0.7497509052292637
-0.8010411143639188,-0.8010411143639188
-0.8162114579107885,-0.8162114579107885
-0.8010411143639188,-0.8010411143639188
-0.7222998073825468,-0.7222998073825468
-0.5474796579376662,-0.5474796579376662
-0.3813282762338539,-0.3813282762338539
-0.3784386869868311,-0.3784386869868311
-0.5770979477196501,-0.5770979477196501
-0.8010411143639188,-0.8010411143639188
-0.8805048186570463,-0.8805048186570463
-0.8010411143639188,-0.8010411143639188
-0.6695648036243803,-0.6695648036243803
-0.5474796579376662,-0.5474796579376662
-0.4940222568677439,-0.4940222568677439
-0.5474796579376662,-0.5474796579376662
-0.6695648036243803,-0.6695648036243803
-0.7165206288885012,-0.7165206288885012
-0.6847351471712502,-0.6847351471712502
-0.7165206288885012,-0.7165206288885012
-0.8711136536042222,-0.8711136536042222
-0.9700820853147538,-0.9700820853147538
-0.9108455057507859,-0.9108455057507859
-0.8010411143639188,-0.8010411143639188
-0.7454165213587294,-0.7454165213587294
-0.6320001434130836,-0.6320001434130836
-0.4217825256921734,-0.4217825256921734
-0.2939182015114135,-0.2939182015114135
-0.3936090305337009,-0.3936090305337009
-0.5474796579376662,-0.5474796579376662
-0.5742083584726272,-0.5742083584726272
-0.5474796579376662,-0.5474796579376662
-0.626220964919038,-0.626220964919038
-0.7165206288885012,-0.7165206288885012
-0.6493376788952206,-0.6493376788952206
-0.4629591724622486,-0.4629591724622486
-0.36182354881644985,-0.36182354881644985
-0.3784386869868311,-0.3784386869868311
-0.3863850574161438,-0.3863850574161438
-0.2939182015114135,-0.2939182015114135
-0.197116961736149,-0.197116961736149
-0.209397716035996,-0.209397716035996
-0.36182354881644985,-0.36182354881644985
-0.5474796579376662,-0.5474796579376662
-0.6334449380365951,-0.6334449380365951
-0.5474796579376662,-0.5474796579376662
-0.383495468169121,-0.383495468169121
-0.2939182015114135,-0.2939182015114135
-0.37193711118102973,-0.37193711118102973
-0.5474796579376662,-0.5474796579376662
-0.7150758342649898,-0.7150758342649898
-0.8010411143639188,-0.8010411143639188
-0.8198234444695671,-0.8198234444695671
-0.8010411143639188,-0.8010411143639188
-0.7945395385581174,-0.7945395385581174
-0.8010411143639188,-0.8010411143639188
-0.7728676192054462,-0.7728676192054462
-0.6320001434130836,-0.6320001434130836
-0.4210601283804177,-0.4210601283804177
-0.2939182015114135,-0.2939182015114135
-0.4109465660158378,-0.4109465660158378
-0.7165206288885012,-0.7165206288885012
-0.9953659912262035,-0.9953659912262035
-1.0546025707901714,-1.0546025707901714
-0.9570789337031511,-0.9570789337031511
-0.8855615998393362,-0.8855615998393362
-0.9346846170387243,-0.9346846170387243
-0.9700820853147538,-0.9700820853147538
-0.8826720105923135,-0.8826720105923135
-0.7165206288885012,-0.7165206288885012
-0.6189969918014809,-0.6189969918014809
-0.6320001434130836,-0.6320001434130836
-0.7353029589941495,-0.7353029589941495
-0.8855615998393362,-0.8855615998393362
-1.009091540149562,-1.009091540149562
-0.9700820853147538,-0.9700820853147538
-0.7663660433996449,-0.7663660433996449
-0.5474796579376662,-0.5474796579376662
-0.4167257445098835,-0.4167257445098835
-0.2939182015114135,-0.2939182015114135
-0.13354599830164693,-0.13354599830164693
0.04344134307850091,0.04344134307850091
0.33745704896307305,0.33745704896307305
0.9724442859963381,0.9724442859963381
1.7952548240860866,1.7952548240860866
2.2395291708158456,2.2395291708158456
1.9505702461135632,1.9505702461135632
1.2260057424225907,1.2260057424225907
0.5252803500195564,0.5252803500195564
-0.041079142396916624,-0.041079142396916624
-0.5308645197672849,-0.5308645197672849
-0.8010411143639188,-0.8010411143639188
-0.7750348111407134,-0.7750348111407134
-0.7165206288885012,-0.7165206288885012
-0.9368518089739913,-0.9368518089739913
-1.3074416299046683,-1.3074416299046683
-1.4880409578435947,-1.4880409578435947
-1.3919621153800859,-1.3919621153800859
-1.2417034745348992,-1.2417034745348992
-1.139123056265589,-1.139123056265589
-0.9679148933794867,-0.9679148933794867
-0.6320001434130836,-0.6320001434130836
-0.3170349154875961,-0.3170349154875961
-0.2939182015114135,-0.2939182015114135
-0.6276657595425494,-0.6276657595425494
-1.0546025707901714,-1.0546025707901714
-1.303107246034134,-1.303107246034134
-1.3074416299046683,-1.3074416299046683
-1.2200315551822278,-1.2200315551822278
-1.139123056265589,-1.139123056265589
-1.0936120256249795,-1.0936120256249795
-1.0546025707901714,-1.0546025707901714
-0.979473250367578,-0.979473250367578
-0.8010411143639188,-0.8010411143639188
-0.5756531530961386,-0.5756531530961386
-0.4629591724622486,-0.4629591724622486
-0.5525364391199561,-0.5525364391199561
-0.7165206288885012,-0.7165206288885012
-0.8234354310283456,-0.8234354310283456
-0.8855615998393362,-0.8855615998393362
-0.979473250367578,-0.979473250367578
-1.0546025707901714,-1.0546025707901714
-1.0524353788549043,-1.0524353788549043
-0.9700820853147538,-0.9700820853147538
-0.8147666632872772,-0.8147666632872772
-0.5474796579376662,-0.5474796579376662
-0.29247340688790213,-0.29247340688790213
-0.2939182015114135,-0.2939182015114135
-0.6168297998662139,-0.6168297998662139
-0.9700820853147538,-0.9700820853147538
-1.079886476701621,-1.079886476701621
-0.9700820853147538,-0.9700820853147538
-0.81259947135201,-0.81259947135201
-0.6320001434130836,-0.6320001434130836
-0.4485112262271345,-0.4485112262271345
-0.3784386869868311,-0.3784386869868311
-0.47957431063262984,-0.47957431063262984
-0.5474796579376662,-0.5474796579376662
-0.40011060633950224,-0.40011060633950224
-0.12559962787233417,-0.12559962787233417
0.01960223179056263,0.01960223179056263
-0.041079142396916624,-0.041079142396916624
-0.2108425106595074,-0.2108425106595074
-0.3784386869868311,-0.3784386869868311
-0.5091926004146138,-0.5091926004146138
-0.5474796579376662,-0.5474796579376662
-0.48390869450316404,-0.48390869450316404
-0.3784386869868311,-0.3784386869868311
-0.34954279451660286,-0.34954279451660286
-0.3784386869868311,-0.3784386869868311
-0.33581724559324444,-0.33581724559324444
-0.12559962787233417,-0.12559962787233417
0.10628990920124728,0.10628990920124728
0.12796182855391844,0.12796182855391844
-0.11042928432546435,-0.11042928432546435
-0.3784386869868311,-0.3784386869868311
-0.5055806138558352,-0.5055806138558352
-0.5474796579376662,-0.5474796579376662
-0.636334527283618,-0.636334527283618
-0.7165206288885012,-0.7165206288885012
-0.7042398745886542,-0.7042398745886542
-0.6320001434130836,-0.6320001434130836
-0.5749307557843829,-0.5749307557843829
-0.4629591724622486,-0.4629591724622486
-0.27947025527629943,-0.27947025527629943
-0.12559962787233417,-0.12559962787233417
-0.07430941873767907,-0.07430941873767907
-0.041079142396916624,-0.041079142396916624
-0.047580718202717975,-0.047580718202717975
-0.209397716035996,-0.209397716035996
-0.42033773106866196,-0.42033773106866196
-0.2939182015114135,-0.2939182015114135
0.17130566725926077,0.17130566725926077
0.4660437704555886,0.4660437704555886
0.2016463543530004,0.2016463543530004
-0.2939182015114135,-0.2939182015114135
-0.5489244525611775,-0.5489244525611775
-0.5474796579376662,-0.5474796579376662
-0.5525364391199561,-0.5525364391199561
-0.5474796579376662,-0.5474796579376662
-0.40444499021003644,-0.40444499021003644
-0.209397716035996,-0.209397716035996
-0.1429371633544711,-0.1429371633544711
-0.12559962787233417,-0.12559962787233417
-0.01507283917371123,-0.01507283917371123
0.12796182855391844,0.12796182855391844
0.16408169414170373,0.16408169414170373
0.21248231402933598,0.21248231402933598
0.5122771984079537,0.5122771984079537
1.1414852569471732,1.1414852569471732
1.9332327106314264,1.9332327106314264
2.662131598192933,2.662131598192933
3.0688412847113957,3.0688412847113957
2.9156930546191857,2.9156930546191857
2.1217784089996656,2.1217784089996656
0.9724442859963381,0.9724442859963381
-0.03891195046164951,-0.03891195046164951
-0.5474796579376662,-0.5474796579376662
-0.6096058267486568,-0.6096058267486568
-0.5474796579376662,-0.5474796579376662
-0.6211641837367481,-0.6211641837367481
-0.8010411143639188,-0.8010411143639188
-0.9570789337031511,-0.9570789337031511
-1.0546025707901714,-1.0546025707901714
-1.1737981272298628,-1.1737981272298628
-1.3074416299046683,-1.3074416299046683
-1.3724573879626818,-1.3724573879626818
-1.3074416299046683,-1.3074416299046683
-1.1954700465825339,-1.1954700465825339
-1.139123056265589,-1.139123056265589
-1.1969148412060453,-1.1969148412060453
-1.3074416299046683,-1.3074416299046683
-1.3681230040921475,-1.3681230040921475
-1.3074416299046683,-1.3074416299046683
-1.246760255717189,-1.246760255717189
-1.3074416299046683,-1.3074416299046683
-1.4367507487089395,-1.4367507487089395
-1.3919621153800859,-1.3919621153800859
-1.1593501809947486,-1.1593501809947486
-0.9700820853147538,-0.9700820853147538
-0.9628581121971967,-0.9628581121971967
-0.9700820853147538,-0.9700820853147538
-0.8963975595156719,-0.8963975595156719
-0.8855615998393362,-0.8855615998393362
-1.0134259240200962,-1.0134259240200962
-1.0546025707901714,-1.0546025707901714
-0.9043439299449846,-0.9043439299449846
-0.8010411143639188,-0.8010411143639188
-0.9310726304799457,-0.9310726304799457
-1.0546025707901714,-1.0546025707901714
-0.949854960585594,-0.949854960585594
-0.8010411143639188,-0.8010411143639188
-0.8870063944628477,-0.8870063944628477
-1.0546025707901714,-1.0546025707901714
-0.9715268799382653,-0.9715268799382653
-0.6320001434130836,-0.6320001434130836
-0.371214713869274,-0.371214713869274
-0.3784386869868311,-0.3784386869868311
-0.5590380149257574,-0.5590380149257574
-0.7165206288885012,-0.7165206288885012
-0.7894827573758274,-0.7894827573758274
-0.8010411143639188,-0.8010411143639188
-0.8024859089874301,-0.8024859089874301
-0.8010411143639188,-0.8010411143639188
-0.7916499493110946,-0.7916499493110946
-0.7165206288885012,-0.7165206288885012
-0.5171389708439265,-0.5171389708439265
-0.209397716035996,-0.209397716035996
-0.00857126336790988,-0.00857126336790988
-0.12559962787233417,-0.12559962787233417
-0.48174150256789694,-0.48174150256789694
-0.7165206288885012,-0.7165206288885012
-0.6717319955596475,-0.6717319955596475
-0.5474796579376662,-0.5474796579376662
-0.545312466002399,-0.545312466002399
-0.5474796579376662,-0.5474796579376662
-0.4485112262271345,-0.4485112262271345
-0.3784386869868311,-0.3784386869868311
-0.44417684235660027,-0.44417684235660027
-0.4629591724622486,-0.4629591724622486
-0.3415964240872901,-0.3415964240872901
