ECG,PPG
-0.2353965444095397,-0.2353965444095397
0.37770233919416885,0.37770233919416885
-0.13852692080015375,-0.13852692080015375
-0.45059425255444135,-0.45059425255444135
-0.13852692080015375,-0.13852692080015375
0.14779025784277816,0.14779025784277816
0.05582542530222187,0.05582542530222187
-0.07476463690536804,-0.07476463690536804
0.05582542530222187,0.05582542530222187
0.24772537587018265,0.24772537587018265
0.25017777140459746,0.25017777140459746
0.11223052259376305,0.11223052259376305
0.05582542530222187,0.05582542530222187
0.1152960170117816,0.1152960170117816
0.15269504891160782,0.15269504891160782
0.06747430409069234,0.06747430409069234
-0.041044198307164076,-0.041044198307164076
-0.07047294472014208,-0.07047294472014208
-0.041044198307164076,-0.041044198307164076
-0.015907144079412027,-0.015907144079412027
0.05582542530222187,0.05582542530222187
0.15392124667881524,0.15392124667881524
0.15269504891160782,0.15269504891160782
0.010456107915547441,0.010456107915547441
-0.041044198307164076,-0.041044198307164076
0.10242094045610373,0.10242094045610373
0.25017777140459746,0.25017777140459746
0.16127843328205974,0.16127843328205974
-0.041044198307164076,-0.041044198307164076
-0.14465790963619082,-0.14465790963619082
-0.13852692080015375,-0.13852692080015375
-0.20106300692773202,-0.20106300692773202
-0.3322661680189256,-0.3322661680189256
-0.430361989395519,-0.430361989395519
-0.4297488905119153,-0.4297488905119153
-0.39602845191371133,-0.39602845191371133
-0.3322661680189256,-0.3322661680189256
-0.2439799287799916,-0.2439799287799916
-0.13852692080015375,-0.13852692080015375
-0.07476463690536804,-0.07476463690536804
-0.041044198307164076,-0.041044198307164076
-0.06066336258248275,-0.06066336258248275
-0.13852692080015375,-0.13852692080015375
-0.2660514885897251,-0.2660514885897251
-0.3322661680189256,-0.3322661680189256
-0.304063619373155,-0.304063619373155
-0.2353965444095397,-0.2353965444095397
-0.2501109176160287,-0.2501109176160287
-0.3322661680189256,-0.3322661680189256
-0.3941891552629002,-0.3941891552629002
-0.3322661680189256,-0.3322661680189256
-0.19002722702286526,-0.19002722702286526
-0.041044198307164076,-0.041044198307164076
0.034366964376092074,0.034366964376092074
0.05582542530222187,0.05582542530222187
0.022104986704017903,0.022104986704017903
-0.041044198307164076,-0.041044198307164076
-0.11768155875762765,-0.11768155875762765
-0.13852692080015375,-0.13852692080015375
-0.12503874536087214,-0.12503874536087214
-0.13852692080015375,-0.13852692080015375
-0.2378489399439545,-0.2378489399439545
-0.3322661680189256,-0.3322661680189256
-0.33839715685496274,-0.33839715685496274
-0.2353965444095397,-0.2353965444095397
-0.11584226210681652,-0.11584226210681652
-0.041044198307164076,-0.041044198307164076
-0.058824065931671624,-0.058824065931671624
-0.13852692080015375,-0.13852692080015375
-0.2078070946473728,-0.2078070946473728
-0.13852692080015375,-0.13852692080015375
0.05214683200059962,0.05214683200059962
0.25017777140459746,0.25017777140459746
0.30351737427812014,0.30351737427812014
0.25017777140459746,0.25017777140459746
0.14717715895917444,0.14717715895917444
0.05582542530222187,0.05582542530222187
-0.055758571513653085,-0.055758571513653085
-0.13852692080015375,-0.13852692080015375
-0.1360745252657389,-0.1360745252657389
-0.041044198307164076,-0.041044198307164076
-0.02265123179905282,-0.02265123179905282
-0.2353965444095397,-0.2353965444095397
-0.6982862015303396,-0.6982862015303396
-1.2059320771542104,-1.2059320771542104
-1.572565209549228,-1.572565209549228
-1.6915063929683474,-1.6915063929683474
-1.5351661776494019,-1.5351661776494019
-1.0115797310518346,-1.0115797310518346
-0.09928859224951639,-0.09928859224951639
1.1232305816562784,1.1232305816562784
2.4432324780550627,2.4432324780550627
3.6473586854527467,3.6473586854527467
4.436416948650719,4.436416948650719
4.520411495704428,4.520411495704428
3.7491331001309622,3.7491331001309622
2.3856011829963144,2.3856011829963144
0.9497235975964289,0.9497235975964289
-0.041044198307164076,-0.041044198307164076
-0.42116550614146336,-0.42116550614146336
-0.3322661680189256,-0.3322661680189256
-0.12319944871006103,-0.12319944871006103
-0.041044198307164076,-0.041044198307164076
-0.15262819512303902,-0.15262819512303902
-0.3322661680189256,-0.3322661680189256
-0.503933855427964,-0.503933855427964
-0.6234881377306872,-0.6234881377306872
-0.65536927967808,-0.65536927967808
-0.5266185141213012,-0.5266185141213012
-0.3292006736009071,-0.3292006736009071
-0.2353965444095397,-0.2353965444095397
-0.30161122383874023,-0.30161122383874023
-0.3322661680189256,-0.3322661680189256
-0.23968823659476565,-0.23968823659476565
-0.13852692080015375,-0.13852692080015375
-0.20596779799656167,-0.20596779799656167
-0.3322661680189256,-0.3322661680189256
-0.3788616831728075,-0.3788616831728075
-0.3322661680189256,-0.3322661680189256
-0.3206172892304552,-0.3206172892304552
-0.3322661680189256,-0.3322661680189256
-0.3322661680189256,-0.3322661680189256
-0.3322661680189256,-0.3322661680189256
-0.3905105619612779,-0.3905105619612779
-0.4297488905119153,-0.4297488905119153
-0.400933242982541,-0.400933242982541
-0.3322661680189256,-0.3322661680189256
-0.3175517948124366,-0.3175517948124366
-0.3322661680189256,-0.3322661680189256
-0.3659866066171296,-0.3659866066171296
-0.4297488905119153,-0.4297488905119153
-0.5517555683490533,-0.5517555683490533
-0.6234881377306872,-0.6234881377306872
-0.5744402270423905,-0.5744402270423905
-0.4297488905119153,-0.4297488905119153
-0.33471856355334045,-0.33471856355334045
-0.3322661680189256,-0.3322661680189256
-0.3948022541465039,-0.3948022541465039
-0.4297488905119153,-0.4297488905119153
-0.41442141842182256,-0.41442141842182256
-0.3322661680189256,-0.3322661680189256
-0.23417034664233227,-0.23417034664233227
-0.13852692080015375,-0.13852692080015375
-0.060050263698879044,-0.060050263698879044
0.05582542530222187,0.05582542530222187
0.19929056406548967,0.19929056406548967
0.3470473950139834,0.3470473950139834
0.44882180969219904,0.44882180969219904
0.541399741116359,0.541399741116359
0.6352038703077264,0.6352038703077264
0.7351389883351309,0.7351389883351309
0.7964488766955018,0.7964488766955018
0.8326217108281206,0.8326217108281206
0.8399788974313651,0.8399788974313651
0.8326217108281206,0.8326217108281206
0.7847999979070314,0.7847999979070314
0.7351389883351309,0.7351389883351309
0.7087757363401714,0.7087757363401714
0.7351389883351309,0.7351389883351309
0.7572105481448644,0.7572105481448644
0.7351389883351309,0.7351389883351309
0.6450134524453858,0.6450134524453858
0.541399741116359,0.541399741116359
0.43594673313652116,0.43594673313652116
0.3470473950139834,0.3470473950139834
0.2710231334471236,0.2710231334471236
0.25017777140459746,0.25017777140459746
0.23178480489648623,0.23178480489648623
0.15269504891160782,0.15269504891160782
-0.012228550777789775,-0.012228550777789775
-0.13852692080015375,-0.13852692080015375
-0.16856876609673546,-0.16856876609673546
-0.13852692080015375,-0.13852692080015375
-0.14220551410177598,-0.14220551410177598
-0.13852692080015375,-0.13852692080015375
-0.0999016911331201,-0.0999016911331201
-0.041044198307164076,-0.041044198307164076
-0.03430011058752328,-0.03430011058752328
-0.041044198307164076,-0.041044198307164076
-0.044722791608786325,-0.044722791608786325
-0.041044198307164076,-0.041044198307164076
-0.06127646146608646,-0.06127646146608646
-0.041044198307164076,-0.041044198307164076
0.015973997867980816,0.015973997867980816
0.05582542530222187,0.05582542530222187
0.008616811264736315,0.008616811264736315
-0.041044198307164076,-0.041044198307164076
-0.02387742956626024,-0.02387742956626024
0.05582542530222187,0.05582542530222187
0.08464107283159618,0.08464107283159618
0.05582542530222187,0.05582542530222187
0.01842639340239565,0.01842639340239565
0.05582542530222187,0.05582542530222187
0.14656406007557074,0.14656406007557074
0.25017777140459746,0.25017777140459746
0.2863506055372163,0.2863506055372163
0.25017777140459746,0.25017777140459746
0.15024265337719298,0.15024265337719298
0.05582542530222187,0.05582542530222187
-0.013454748544997192,-0.013454748544997192
-0.041044198307164076,-0.041044198307164076
-0.08212182350861255,-0.08212182350861255
-0.13852692080015375,-0.13852692080015375
-0.18144384265241334,-0.18144384265241334
-0.13852692080015375,-0.13852692080015375
-0.06495505476770871,-0.06495505476770871
-0.041044198307164076,-0.041044198307164076
-0.07476463690536804,-0.07476463690536804
-0.041044198307164076,-0.041044198307164076
0.04233724986294028,0.04233724986294028
0.05582542530222187,0.05582542530222187
-0.03797870388914554,-0.03797870388914554
-0.041044198307164076,-0.041044198307164076
0.11345672036097047,0.11345672036097047
0.25017777140459746,0.25017777140459746
0.16005223551485231,0.16005223551485231
-0.041044198307164076,-0.041044198307164076
-0.15508059065745386,-0.15508059065745386
-0.13852692080015375,-0.13852692080015375
-0.12994353642970183,-0.12994353642970183
-0.13852692080015375,-0.13852692080015375
-0.11032437215438314,-0.11032437215438314
-0.041044198307164076,-0.041044198307164076
-0.04778828602680487,-0.04778828602680487
-0.13852692080015375,-0.13852692080015375
-0.2353965444095397,-0.2353965444095397
-0.2353965444095397,-0.2353965444095397
-0.1789914471179985,-0.1789914471179985
-0.13852692080015375,-0.13852692080015375
-0.17653905158358366,-0.17653905158358366
-0.2353965444095397,-0.2353965444095397
-0.2648252908225177,-0.2648252908225177
-0.2353965444095397,-0.2353965444095397
-0.21945597343584325,-0.21945597343584325
-0.2353965444095397,-0.2353965444095397
-0.2648252908225177,-0.2648252908225177
-0.2353965444095397,-0.2353965444095397
-0.1789914471179985,-0.1789914471179985
-0.13852692080015375,-0.13852692080015375
-0.14649720628700194,-0.14649720628700194
-0.13852692080015375,-0.13852692080015375
-0.09560999894789414,-0.09560999894789414
-0.041044198307164076,-0.041044198307164076
-0.0355263083547307,-0.0355263083547307
-0.041044198307164076,-0.041044198307164076
-0.016520242963015734,-0.016520242963015734
0.05582542530222187,0.05582542530222187
0.08341487506438876,0.08341487506438876
0.05582542530222187,0.05582542530222187
0.008616811264736315,0.008616811264736315
0.05582542530222187,0.05582542530222187
0.15943913663124862,0.15943913663124862
0.25017777140459746,0.25017777140459746
0.2587611557750494,0.2587611557750494
0.25017777140459746,0.25017777140459746
0.2587611557750494,0.2587611557750494
0.25017777140459746,0.25017777140459746
0.0650219085562775,0.0650219085562775
-0.3322661680189256,-0.3322661680189256
-0.804965407277385,-0.804965407277385
-1.1090624535448244,-1.1090624535448244
-1.2157416592918697,-1.2157416592918697
-1.2059320771542104,-1.2059320771542104
-1.034264389745172,-1.034264389745172
-0.4297488905119153,-0.4297488905119153
0.6793469899271934,0.6793469899271934
2.0943792132845527,2.0943792132845527
3.564590336166246,3.564590336166246
4.909116187909179,4.909116187909179
5.601304827497765,5.601304827497765
5.005985811518564,5.005985811518564
3.1820166327975317,3.1820166327975317
1.2207133041492682,1.2207133041492682
0.13491518128710028,0.13491518128710028
-0.041044198307164076,-0.041044198307164076
0.06563500743988121,0.06563500743988121
0.15269504891160782,0.15269504891160782
0.23301100266369365,0.23301100266369365
0.25017777140459746,0.25017777140459746
0.04785513981537366,0.04785513981537366
-0.2353965444095397,-0.2353965444095397
-0.36966519991875185,-0.36966519991875185
-0.3322661680189256,-0.3322661680189256
-0.308355311558381,-0.308355311558381
-0.3322661680189256,-0.3322661680189256
-0.34820673899262206,-0.34820673899262206
-0.3322661680189256,-0.3322661680189256
-0.34023645350577386,-0.34023645350577386
-0.3322661680189256,-0.3322661680189256
-0.3224565858812663,-0.3224565858812663
-0.3322661680189256,-0.3322661680189256
-0.3770223865219964,-0.3770223865219964
-0.3322661680189256,-0.3322661680189256
-0.24030133547836935,-0.24030133547836935
-0.2353965444095397,-0.2353965444095397
-0.3641473099663185,-0.3641473099663185
-0.4297488905119153,-0.4297488905119153
-0.36782590326794073,-0.36782590326794073
-0.3322661680189256,-0.3322661680189256
-0.4463025603692154,-0.4463025603692154
-0.5266185141213012,-0.5266185141213012
-0.4726658123641749,-0.4726658123641749
-0.4297488905119153,-0.4297488905119153
-0.541945986211394,-0.541945986211394
-0.6234881377306872,-0.6234881377306872
-0.5401066895605828,-0.5401066895605828
-0.4297488905119153,-0.4297488905119153
-0.47634440566579717,-0.47634440566579717
-0.5266185141213012,-0.5266185141213012
-0.4438501648348006,-0.4438501648348006
-0.3322661680189256,-0.3322661680189256
-0.34330194792379237,-0.34330194792379237
-0.3322661680189256,-0.3322661680189256
-0.2151642812506173,-0.2151642812506173
-0.13852692080015375,-0.13852692080015375
-0.2237476656210692,-0.2237476656210692
-0.2353965444095397,-0.2353965444095397
-0.015907144079412027,-0.015907144079412027
0.25017777140459746,0.25017777140459746
0.29861258320929046,0.29861258320929046
0.25017777140459746,0.25017777140459746
0.30596976981253493,0.30596976981253493
0.44391701862336935,0.44391701862336935
0.49909591814770315,0.49909591814770315
0.541399741116359,0.541399741116359
0.67382909997476,0.67382909997476
0.8326217108281206,0.8326217108281206
0.8363003041297429,0.8363003041297429
0.7351389883351309,0.7351389883351309
0.6811862865780046,0.6811862865780046
0.7351389883351309,0.7351389883351309
0.7756035146529757,0.7756035146529757
0.7351389883351309,0.7351389883351309
0.6027096294767299,0.6027096294767299
0.44391701862336935,0.44391701862336935
0.3029042753945164,0.3029042753945164
0.25017777140459746,0.25017777140459746
0.2526301669390123,0.2526301669390123
0.25017777140459746,0.25017777140459746
0.19070717969503775,0.19070717969503775
0.15269504891160782,0.15269504891160782
0.17660590537215246,0.17660590537215246
0.25017777140459746,0.25017777140459746
0.27654102339955694,0.27654102339955694
0.25017777140459746,0.25017777140459746
0.19009408081143403,0.19009408081143403
0.15269504891160782,0.15269504891160782
0.11100432482655564,0.11100432482655564
0.05582542530222187,0.05582542530222187
-0.014067847428600901,-0.014067847428600901
-0.041044198307164076,-0.041044198307164076
-0.0428834949579752,-0.0428834949579752
-0.041044198307164076,-0.041044198307164076
-0.06066336258248275,-0.06066336258248275
-0.041044198307164076,-0.041044198307164076
-0.027556022867882488,-0.027556022867882488
-0.041044198307164076,-0.041044198307164076
-0.059437164815275334,-0.059437164815275334
0.05582542530222187,0.05582542530222187
0.22626691494405285,0.22626691494405285
0.25017777140459746,0.25017777140459746
0.06808740297429604,0.06808740297429604
-0.041044198307164076,-0.041044198307164076
0.03804555767771432,0.03804555767771432
0.05582542530222187,0.05582542530222187
-0.30528981714036246,-0.30528981714036246
-0.9147101074424487,-0.9147101074424487
-1.4425882462252417,-1.4425882462252417
-1.6915063929683474,-1.6915063929683474
-1.6424584822800508,-1.6424584822800508
-1.2059320771542104,-1.2059320771542104
-0.3856057708924483,-0.3856057708924483
0.7351389883351309,0.7351389883351309
2.108480487607438,2.108480487607438
3.6473586854527467,3.6473586854527467
4.719668632875632,4.719668632875632
4.520411495704428,4.520411495704428
3.0918910969077866,3.0918910969077866
1.6088048974704157,1.6088048974704157
1.0239085625124777,1.0239085625124777
1.1232305816562784,1.1232305816562784
1.1440759436988046,1.1440759436988046
0.9294913344375065,0.9294913344375065
0.7277818017318864,0.7277818017318864
0.541399741116359,0.541399741116359
0.14043307123953366,0.14043307123953366
-0.3322661680189256,-0.3322661680189256
-0.5407197884441866,-0.5407197884441866
-0.4297488905119153,-0.4297488905119153
-0.30467671825675874,-0.30467671825675874
-0.3322661680189256,-0.3322661680189256
-0.4248440994430856,-0.4248440994430856
-0.4297488905119153,-0.4297488905119153
-0.37640928763839265,-0.37640928763839265
-0.3322661680189256,-0.3322661680189256
-0.3371709590877553,-0.3371709590877553
-0.3322661680189256,-0.3322661680189256
-0.3537246289450554,-0.3537246289450554
-0.4297488905119153,-0.4297488905119153
-0.5652437437883349,-0.5652437437883349
-0.6234881377306872,-0.6234881377306872
-0.5799581169948239,-0.5799581169948239
-0.5266185141213012,-0.5266185141213012
-0.5707616337407683,-0.5707616337407683
-0.6234881377306872,-0.6234881377306872
-0.6253274343814983,-0.6253274343814983
-0.6234881377306872,-0.6234881377306872
-0.7185184646892621,-0.7185184646892621
-0.8178404838330628,-0.8178404838330628
-0.8178404838330628,-0.8178404838330628
-0.7203577613400731,-0.7203577613400731
-0.6516906863764578,-0.6516906863764578
-0.6234881377306872,-0.6234881377306872
-0.6216488410798761,-0.6216488410798761
-0.6234881377306872,-0.6234881377306872
-0.6467858953076281,-0.6467858953076281
-0.6234881377306872,-0.6234881377306872
-0.5401066895605828,-0.5401066895605828
-0.4297488905119153,-0.4297488905119153
-0.3702782988023556,-0.3702782988023556
-0.3322661680189256,-0.3322661680189256
-0.2942540372354957,-0.2942540372354957
-0.2353965444095397,-0.2353965444095397
-0.16734256832952804,-0.16734256832952804
-0.041044198307164076,-0.041044198307164076
0.11713531366259272,0.11713531366259272
0.25017777140459746,0.25017777140459746
0.3004518798601016,0.3004518798601016
0.3470473950139834,0.3470473950139834
0.4371729309037286,0.4371729309037286
0.541399741116359,0.541399741116359
0.541399741116359,0.541399741116359
0.44391701862336935,0.44391701862336935
0.34152950506155005,0.34152950506155005
0.3470473950139834,0.3470473950139834
0.41448827221039136,0.41448827221039136
0.44391701862336935,0.44391701862336935
0.36298796598767985,0.36298796598767985
0.25017777140459746,0.25017777140459746
0.17108801541971908,0.17108801541971908
0.15269504891160782,0.15269504891160782
0.14717715895917444,0.14717715895917444
0.15269504891160782,0.15269504891160782
0.12449250026583723,0.12449250026583723
0.05582542530222187,0.05582542530222187
-0.0054844630581489815,-0.0054844630581489815
0.05582542530222187,0.05582542530222187
0.16250463104926716,0.16250463104926716
0.15269504891160782,0.15269504891160782
0.004938217963114063,0.004938217963114063
-0.041044198307164076,-0.041044198307164076
0.0791231828791628,0.0791231828791628
0.15269504891160782,0.15269504891160782
-0.017133341846619445,-0.017133341846619445
-0.2353965444095397,-0.2353965444095397
-0.2660514885897251,-0.2660514885897251
-0.13852692080015375,-0.13852692080015375
-0.08825281234464963,-0.08825281234464963
-0.13852692080015375,-0.13852692080015375
-0.1783783482343948,-0.1783783482343948
-0.13852692080015375,-0.13852692080015375
-0.09193140564627189,-0.09193140564627189
-0.041044198307164076,-0.041044198307164076
0.013521602333565983,0.013521602333565983
0.05582542530222187,0.05582542530222187
0.019652591169603068,0.019652591169603068
-0.041044198307164076,-0.041044198307164076
-0.07047294472014208,-0.07047294472014208
-0.041044198307164076,-0.041044198307164076
-0.025716726217071363,-0.025716726217071363
-0.041044198307164076,-0.041044198307164076
-0.09499690006429043,-0.09499690006429043
-0.13852692080015375,-0.13852692080015375
-0.1581460850754724,-0.1581460850754724
-0.13852692080015375,-0.13852692080015375
-0.15324129400664274,-0.15324129400664274
-0.2353965444095397,-0.2353965444095397
-0.3426888490401887,-0.3426888490401887
-0.3322661680189256,-0.3322661680189256
-0.19493201809169491,-0.19493201809169491
-0.041044198307164076,-0.041044198307164076
-0.004258265290941564,-0.004258265290941564
-0.041044198307164076,-0.041044198307164076
-0.06740745030212354,-0.06740745030212354
-0.041044198307164076,-0.041044198307164076
-0.030008418402297322,-0.030008418402297322
-0.041044198307164076,-0.041044198307164076
-0.06188956034969017,-0.06188956034969017
-0.041044198307164076,-0.041044198307164076
-0.03368701170391957,-0.03368701170391957
-0.041044198307164076,-0.041044198307164076
-0.06250265923329387,-0.06250265923329387
-0.041044198307164076,-0.041044198307164076
-0.049627582677615995,-0.049627582677615995
-0.13852692080015375,-0.13852692080015375
-0.2280393578062952,-0.2280393578062952
-0.13852692080015375,-0.13852692080015375
0.0067775146139251894,0.0067775146139251894
-0.13852692080015375,-0.13852692080015375
-0.6988993004139433,-0.6988993004139433
-1.3028017007635964,-1.3028017007635964
-1.6283572079571655,-1.6283572079571655
-1.6915063929683474,-1.6915063929683474
-1.5615294296443614,-1.5615294296443614
-1.0115797310518346,-1.0115797310518346
0.03191456884167724,0.03191456884167724
1.3175829277586542,1.3175829277586542
2.617352560998516,2.617352560998516
3.938580655164508,3.938580655164508
4.8692647604749375,4.8692647604749375
4.617894218197417,4.617894218197417
3.019545428642549,3.019545428642549
1.1232305816562784,1.1232305816562784
-0.004258265290941564,-0.004258265290941564
-0.3322661680189256,-0.3322661680189256
-0.43404058269714124,-0.43404058269714124
-0.4297488905119153,-0.4297488905119153
-0.19861061139331718,-0.19861061139331718
0.05582542530222187,0.05582542530222187
-0.03123461616950474,-0.03123461616950474
-0.3322661680189256,-0.3322661680189256
-0.48921948222147504,-0.48921948222147504
-0.4297488905119153,-0.4297488905119153
-0.3886712653104668,-0.3886712653104668
-0.4297488905119153,-0.4297488905119153
-0.4567252413904785,-0.4567252413904785
-0.4297488905119153,-0.4297488905119153
-0.4285226927447079,-0.4285226927447079
-0.4297488905119153,-0.4297488905119153
-0.39909394633172984,-0.39909394633172984
-0.3322661680189256,-0.3322661680189256
-0.31877799257964406,-0.31877799257964406
-0.3322661680189256,-0.3322661680189256
-0.3500460356434332,-0.3500460356434332
-0.3322661680189256,-0.3322661680189256
-0.32490898141568114,-0.32490898141568114
-0.3322661680189256,-0.3322661680189256
-0.3500460356434332,-0.3500460356434332
-0.3322661680189256,-0.3322661680189256
-0.3163255970452292,-0.3163255970452292
-0.3322661680189256,-0.3322661680189256
-0.39602845191371133,-0.39602845191371133
-0.4297488905119153,-0.4297488905119153
-0.43097508827912273,-0.43097508827912273
-0.4297488905119153,-0.4297488905119153
-0.4548859447396673,-0.4548859447396673
-0.4297488905119153,-0.4297488905119153
-0.36476040884992217,-0.36476040884992217
-0.3322661680189256,-0.3322661680189256
-0.39112366084488165,-0.39112366084488165
-0.4297488905119153,-0.4297488905119153
-0.3923498586120891,-0.3923498586120891
-0.3322661680189256,-0.3322661680189256
-0.34146265127298125,-0.34146265127298125
-0.3322661680189256,-0.3322661680189256
-0.22436076450467293,-0.22436076450467293
-0.041044198307164076,-0.041044198307164076
0.08586727059880359,0.08586727059880359
0.15269504891160782,0.15269504891160782
0.19622506964747113,0.19622506964747113
0.25017777140459746,0.25017777140459746
0.2863506055372163,0.2863506055372163
0.3470473950139834,0.3470473950139834
0.43533363425291743,0.43533363425291743
0.541399741116359,0.541399741116359
0.6284597825880857,0.6284597825880857
0.7351389883351309,0.7351389883351309
0.8246514253412723,0.8246514253412723
0.8326217108281206,0.8326217108281206
0.7326865928007161,0.7326865928007161
0.638269364725745,0.638269364725745
0.5879952562702409,0.5879952562702409
0.541399741116359,0.541399741116359
0.45556589741183984,0.45556589741183984
0.44391701862336935,0.44391701862336935
0.5082924014017588,0.5082924014017588
0.541399741116359,0.541399741116359
0.4120358766759765,0.4120358766759765
0.25017777140459746,0.25017777140459746
0.19622506964747113,0.19622506964747113
0.25017777140459746,0.25017777140459746
0.2648921446110865,0.2648921446110865
0.25017777140459746,0.25017777140459746
0.2507908702882012,0.2507908702882012
0.25017777140459746,0.25017777140459746
0.10426023710691484,0.10426023710691484
-0.2353965444095397,-0.2353965444095397
-0.7608222876579179,-0.7608222876579179
-1.3028017007635964,-1.3028017007635964
-1.5345530787657982,-1.5345530787657982
-1.1090624535448244,-1.1090624535448244
-0.11461606433960911,-0.11461606433960911
1.1232305816562784,1.1232305816562784
2.495345883161378,2.495345883161378
4.035450278773894,4.035450278773894
5.127379390472099,5.127379390472099
4.811633465416189,4.811633465416189
3.1004744812782383,3.1004744812782383
1.41445255136804,1.41445255136804
0.9110983679293952,0.9110983679293952
1.2207133041492682,1.2207133041492682
1.2391062706573794,1.2391062706573794
0.7351389883351309,0.7351389883351309
0.2232014205260343,0.2232014205260343
-0.041044198307164076,-0.041044198307164076
-0.3310399702517182,-0.3310399702517182
-0.7203577613400731,-0.7203577613400731
-0.9705021058503862,-0.9705021058503862
-0.9147101074424487,-0.9147101074424487
-0.7356852334301659,-0.7356852334301659
-0.6234881377306872,-0.6234881377306872
-0.6167440500110464,-0.6167440500110464
-0.6234881377306872,-0.6234881377306872
-0.625940533265102,-0.625940533265102
-0.6234881377306872,-0.6234881377306872
-0.6406549064715911,-0.6406549064715911
-0.6234881377306872,-0.6234881377306872
-0.6099999622914056,-0.6099999622914056
-0.6234881377306872,-0.6234881377306872
-0.6725360484189838,-0.6725360484189838
-0.6234881377306872,-0.6234881377306872
-0.46776102129534525,-0.46776102129534525
-0.3322661680189256,-0.3322661680189256
-0.35617702447947025,-0.35617702447947025
-0.4297488905119153,-0.4297488905119153
-0.4223917039086708,-0.4223917039086708
-0.3322661680189256,-0.3322661680189256
-0.2991588283043254,-0.2991588283043254
-0.3322661680189256,-0.3322661680189256
-0.3641473099663185,-0.3641473099663185
-0.3322661680189256,-0.3322661680189256
-0.308355311558381,-0.308355311558381
-0.3322661680189256,-0.3322661680189256
-0.4003201440989373,-0.4003201440989373
-0.4297488905119153,-0.4297488905119153
-0.40645113293497437,-0.40645113293497437
-0.3322661680189256,-0.3322661680189256
-0.24643232431440643,-0.24643232431440643
-0.13852692080015375,-0.13852692080015375
-0.05759786816446421,-0.05759786816446421
-0.041044198307164076,-0.041044198307164076
-0.10174098778393122,-0.10174098778393122
-0.13852692080015375,-0.13852692080015375
-0.11032437215438314,-0.11032437215438314
-0.041044198307164076,-0.041044198307164076
0.0006465257778881039,0.0006465257778881039
0.05582542530222187,0.05582542530222187
0.1441116645411559,0.1441116645411559
0.25017777140459746,0.25017777140459746
0.3090352642305535,0.3090352642305535
0.3470473950139834,0.3470473950139834
0.3599224715696613,0.3599224715696613
0.3470473950139834,0.3470473950139834
0.3096483631141572,0.3096483631141572
0.3470473950139834,0.3470473950139834
0.45740519406265095,0.45740519406265095
0.541399741116359,0.541399741116359
0.4794767538723845,0.4794767538723845
0.3470473950139834,0.3470473950139834
0.25385636470621975,0.25385636470621975
0.25017777140459746,0.25017777140459746
0.2593742546586531,0.2593742546586531
0.25017777140459746,0.25017777140459746
0.17783210313935988,0.17783210313935988
0.05582542530222187,0.05582542530222187
-0.06127646146608646,-0.06127646146608646
-0.041044198307164076,-0.041044198307164076
0.10487333599051855,0.10487333599051855
0.25017777140459746,0.25017777140459746
0.272249331214331,0.272249331214331
0.25017777140459746,0.25017777140459746
0.24956467252099376,0.24956467252099376
0.25017777140459746,0.25017777140459746
0.164957026583682,0.164957026583682
0.05582542530222187,0.05582542530222187
-0.018359539613826862,-0.018359539613826862
-0.041044198307164076,-0.041044198307164076
-0.060050263698879044,-0.060050263698879044
-0.041044198307164076,-0.041044198307164076
-0.01468094631220461,-0.01468094631220461
-0.041044198307164076,-0.041044198307164076
-0.1575329861918687,-0.1575329861918687
-0.2353965444095397,-0.2353965444095397
-0.21148568794899505,-0.21148568794899505
-0.13852692080015375,-0.13852692080015375
-0.12994353642970183,-0.12994353642970183
-0.13852692080015375,-0.13852692080015375
-0.10480648220194977,-0.10480648220194977
-0.041044198307164076,-0.041044198307164076
-0.058824065931671624,-0.058824065931671624
-0.13852692080015375,-0.13852692080015375
-0.19186652367367638,-0.19186652367367638
-0.13852692080015375,-0.13852692080015375
-0.060050263698879044,-0.060050263698879044
-0.041044198307164076,-0.041044198307164076
-0.10235408666753493,-0.10235408666753493
-0.13852692080015375,-0.13852692080015375
-0.10848507550357202,-0.10848507550357202
-0.041044198307164076,-0.041044198307164076
-0.024490528449863946,-0.024490528449863946
-0.041044198307164076,-0.041044198307164076
-0.058824065931671624,-0.058824065931671624
-0.041044198307164076,-0.041044198307164076
-0.03368701170391957,-0.03368701170391957
-0.041044198307164076,-0.041044198307164076
-0.08273492239221626,-0.08273492239221626
-0.13852692080015375,-0.13852692080015375
-0.20842019353097652,-0.20842019353097652
-0.2353965444095397,-0.2353965444095397
-0.2078070946473728,-0.2078070946473728
-0.13852692080015375,-0.13852692080015375
-0.10787197661996831,-0.10787197661996831
-0.13852692080015375,-0.13852692080015375
-0.23478344552593597,-0.23478344552593597
-0.3322661680189256,-0.3322661680189256
-0.3837664742416371,-0.3837664742416371
-0.3322661680189256,-0.3322661680189256
-0.23110485222431373,-0.23110485222431373
-0.13852692080015375,-0.13852692080015375
-0.0931576034134793,-0.0931576034134793
-0.041044198307164076,-0.041044198307164076
-0.007936858592563815,-0.007936858592563815
-0.041044198307164076,-0.041044198307164076
-0.13055663531330552,-0.13055663531330552
-0.13852692080015375,-0.13852692080015375
-0.06556815365131242,-0.06556815365131242
-0.041044198307164076,-0.041044198307164076
-0.1501757995886242,-0.1501757995886242
-0.2353965444095397,-0.2353965444095397
-0.23662274217674711,-0.23662274217674711
-0.2353965444095397,-0.2353965444095397
-0.3212303881140589,-0.3212303881140589
-0.3322661680189256,-0.3322661680189256
-0.21822977566863586,-0.21822977566863586
-0.13852692080015375,-0.13852692080015375
-0.23355724775872855,-0.23355724775872855
-0.3322661680189256,-0.3322661680189256
-0.337784057971359,-0.337784057971359
-0.4297488905119153,-0.4297488905119153
-0.8135487916478369,-0.8135487916478369
-1.3028017007635964,-1.3028017007635964
-1.6259048124227506,-1.6259048124227506
-1.6915063929683474,-1.6915063929683474
-1.5069636290036312,-1.5069636290036312
-0.9147101074424487,-0.9147101074424487
0.12020080808061127,0.12020080808061127
1.41445255136804,1.41445255136804
2.7522343153913322,2.7522343153913322
4.035450278773894,4.035450278773894
4.861907573871693,4.861907573871693
4.617894218197417,4.617894218197417
3.162397468522213,3.162397468522213
1.3175829277586542,1.3175829277586542
0.0864803694824073,0.0864803694824073
-0.2353965444095397,-0.2353965444095397
-0.10541958108555348,-0.10541958108555348
0.05582542530222187,0.05582542530222187
0.15698674109683378,0.15698674109683378
0.25017777140459746,0.25017777140459746
0.23668959596531589,0.23668959596531589
0.05582542530222187,0.05582542530222187
-0.2004499080441283,-0.2004499080441283
-0.3322661680189256,-0.3322661680189256
-0.3310399702517182,-0.3310399702517182
-0.3322661680189256,-0.3322661680189256
-0.41074282512020033,-0.41074282512020033
-0.4297488905119153,-0.4297488905119153
-0.3322661680189256,-0.3322661680189256
-0.2353965444095397,-0.2353965444095397
-0.27586107072738447,-0.27586107072738447
-0.3322661680189256,-0.3322661680189256
-0.3285875747173034,-0.3285875747173034
-0.3322661680189256,-0.3322661680189256
-0.4714396145969675,-0.4714396145969675
-0.6234881377306872,-0.6234881377306872
-0.6897028171598877,-0.6897028171598877
-0.7203577613400731,-0.7203577613400731
-0.8031261106265738,-0.8031261106265738
-0.8178404838330628,-0.8178404838330628
-0.7154529702712434,-0.7154529702712434
-0.6234881377306872,-0.6234881377306872
-0.6982862015303396,-0.6982862015303396
-0.8178404838330628,-0.8178404838330628
-0.8472692302460408,-0.8472692302460408
-0.8178404838330628,-0.8178404838330628
-0.865662196754152,-0.865662196754152
-0.9147101074424487,-0.9147101074424487
-0.8350072525739667,-0.8350072525739667
-0.6234881377306872,-0.6234881377306872
-0.46776102129534525,-0.46776102129534525
-0.4297488905119153,-0.4297488905119153
-0.42790959386110416,-0.42790959386110416
-0.3322661680189256,-0.3322661680189256
-0.19861061139331718,-0.19861061139331718
-0.13852692080015375,-0.13852692080015375
-0.19799751250971345,-0.19799751250971345
-0.2353965444095397,-0.2353965444095397
-0.14465790963619082,-0.14465790963619082
0.05582542530222187,0.05582542530222187
0.20603465178513047,0.20603465178513047
0.25017777140459746,0.25017777140459746
0.22810621159486397,0.22810621159486397
0.25017777140459746,0.25017777140459746
0.32804132962226845,0.32804132962226845
0.44391701862336935,0.44391701862336935
0.5211674779574367,0.5211674779574367
0.541399741116359,0.541399741116359
0.520554379073833,0.520554379073833
0.541399741116359,0.541399741116359
0.595965541757089,0.595965541757089
0.638269364725745,0.638269364725745
0.6063882227783521,0.6063882227783521
0.541399741116359,0.541399741116359
0.4500480074594065,0.4500480074594065
0.3470473950139834,0.3470473950139834
0.2514039691718049,0.2514039691718049
0.25017777140459746,0.25017777140459746
0.29002919883883854,0.29002919883883854
0.25017777140459746,0.25017777140459746
0.0791231828791628,0.0791231828791628
-0.041044198307164076,-0.041044198307164076
0.0037120201959066467,0.0037120201959066467
0.15269504891160782,0.15269504891160782
0.23668959596531589,0.23668959596531589
0.25017777140459746,0.25017777140459746
0.22013592610801577,0.22013592610801577
0.15269504891160782,0.15269504891160782
0.028235975540054987,0.028235975540054987
-0.041044198307164076,-0.041044198307164076
-0.012228550777789775,-0.012228550777789775
0.05582542530222187,0.05582542530222187
0.058277820836636705,0.058277820836636705
0.05582542530222187,0.05582542530222187
0.09751614938727406,0.09751614938727406
0.15269504891160782,0.15269504891160782
0.12020080808061127,0.12020080808061127
0.05582542530222187,0.05582542530222187
0.053986128651410746,0.053986128651410746
0.15269504891160782,0.15269504891160782
0.24098128815054184,0.24098128815054184
0.25017777140459746,0.25017777140459746
0.16189153216566346,0.16189153216566346
0.05582542530222187,0.05582542530222187
-0.025103627333467656,-0.025103627333467656
-0.041044198307164076,-0.041044198307164076
-0.03797870388914554,-0.03797870388914554
-0.041044198307164076,-0.041044198307164076
-0.08825281234464963,-0.08825281234464963
-0.13852692080015375,-0.13852692080015375
-0.16366397502790578,-0.16366397502790578
-0.13852692080015375,-0.13852692080015375
-0.11829465764123136,-0.11829465764123136
-0.13852692080015375,-0.13852692080015375
-0.20412850134575056,-0.20412850134575056
-0.2353965444095397,-0.2353965444095397
-0.2139380834834099,-0.2139380834834099
-0.13852692080015375,-0.13852692080015375
-0.05759786816446421,-0.05759786816446421
0.05582542530222187,0.05582542530222187
0.14288546677394848,0.14288546677394848
0.15269504891160782,0.15269504891160782
0.05153373311699591,0.05153373311699591
-0.041044198307164076,-0.041044198307164076
-0.03430011058752328,-0.03430011058752328
0.05582542530222187,0.05582542530222187
0.05521232641861817,0.05521232641861817
-0.13852692080015375,-0.13852692080015375
-0.5094517453803974,-0.5094517453803974
-0.9147101074424487,-0.9147101074424487
-1.2666288666309775,-1.2666288666309775
-1.4971540468659719,-1.4971540468659719
-1.551719847506702,-1.551719847506702
-1.3028017007635964,-1.3028017007635964
-0.6762146417206061,-0.6762146417206061
0.3470473950139834,0.3470473950139834
1.6400729405342047,1.6400729405342047
2.967432023536234,2.967432023536234
3.9054733154499077,3.9054733154499077
4.035450278773894,4.035450278773894
3.1826297316811356,3.1826297316811356
1.7056745210798017,1.7056745210798017
0.2802196167011792,0.2802196167011792
-0.5266185141213012,-0.5266185141213012
-0.708095783667999,-0.708095783667999
-0.6234881377306872,-0.6234881377306872
-0.5958986879685203,-0.5958986879685203
-0.6234881377306872,-0.6234881377306872
-0.6559823785616837,-0.6559823785616837
-0.7203577613400731,-0.7203577613400731
-0.8534002190820779,-0.8534002190820779
-0.9147101074424487,-0.9147101074424487
-0.8337810548067592,-0.8337810548067592
-0.7203577613400731,-0.7203577613400731
-0.7381376289645807,-0.7381376289645807
-0.8178404838330628,-0.8178404838330628
-0.8227452749018924,-0.8227452749018924
-0.7203577613400731,-0.7203577613400731
-0.6179702477782538,-0.6179702477782538
-0.5266185141213012,-0.5266185141213012
-0.4579514391576859,-0.4579514391576859
-0.4297488905119153,-0.4297488905119153
-0.5106779431476048,-0.5106779431476048
-0.6234881377306872,-0.6234881377306872
-0.6731491473025876,-0.6731491473025876
-0.6234881377306872,-0.6234881377306872
-0.5860891058308609,-0.5860891058308609
-0.6234881377306872,-0.6234881377306872
-0.7074826847843952,-0.7074826847843952
-0.7203577613400731,-0.7203577613400731
-0.6688574551173616,-0.6688574551173616
-0.6234881377306872,-0.6234881377306872
-0.6369763131699688,-0.6369763131699688
-0.6234881377306872,-0.6234881377306872
-0.5652437437883349,-0.5652437437883349
-0.5266185141213012,-0.5266185141213012
-0.5762795236932017,-0.5762795236932017
-0.6234881377306872,-0.6234881377306872
-0.6234881377306872,-0.6234881377306872
-0.6234881377306872,-0.6234881377306872
-0.689089718276284,-0.689089718276284
-0.7203577613400731,-0.7203577613400731
-0.6768277406042098,-0.6768277406042098
-0.6234881377306872,-0.6234881377306872
-0.6418811042387984,-0.6418811042387984
-0.6234881377306872,-0.6234881377306872
-0.5002552621263417,-0.5002552621263417
-0.3322661680189256,-0.3322661680189256
-0.23110485222431373,-0.23110485222431373
-0.13852692080015375,-0.13852692080015375
-0.021425034031845404,-0.021425034031845404
0.05582542530222187,0.05582542530222187
0.01106920679915115,0.01106920679915115
-0.041044198307164076,-0.041044198307164076
0.012295404566358565,0.012295404566358565
0.15269504891160782,0.15269504891160782
0.23301100266369365,0.23301100266369365
0.25017777140459746,0.25017777140459746
0.29799948432568674,0.29799948432568674
0.44391701862336935,0.44391701862336935
0.5610189053916778,0.5610189053916778
0.541399741116359,0.541399741116359
0.4151013710939951,0.4151013710939951
0.3470473950139834,0.3470473950139834
0.3323330218074944,0.3323330218074944
0.25017777140459746,0.25017777140459746
0.06318261190546637,0.06318261190546637
-0.041044198307164076,-0.041044198307164076
0.004325119079510355,0.004325119079510355
0.05582542530222187,0.05582542530222187
-0.036139407238334406,-0.036139407238334406
-0.13852692080015375,-0.13852692080015375
-0.11890775652483507,-0.11890775652483507
-0.041044198307164076,-0.041044198307164076
-0.06802054918572725,-0.06802054918572725
-0.13852692080015375,-0.13852692080015375
-0.15324129400664274,-0.15324129400664274
-0.13852692080015375,-0.13852692080015375
-0.21884287455223955,-0.21884287455223955
-0.3322661680189256,-0.3322661680189256
-0.3733437932203741,-0.3733437932203741
-0.3322661680189256,-0.3322661680189256
-0.3426888490401887,-0.3426888490401887
-0.4297488905119153,-0.4297488905119153
-0.5535948649998644,-0.5535948649998644
-0.6234881377306872,-0.6234881377306872
-0.5903807980160869,-0.5903807980160869
-0.4297488905119153,-0.4297488905119153
-0.28996234505026974,-0.28996234505026974
-0.3322661680189256,-0.3322661680189256
-0.5333626018409421,-0.5333626018409421
-0.6234881377306872,-0.6234881377306872
-0.5014814598935492,-0.5014814598935492
-0.3322661680189256,-0.3322661680189256
-0.30467671825675874,-0.30467671825675874
-0.3322661680189256,-0.3322661680189256
-0.32490898141568114,-0.32490898141568114
-0.3322661680189256,-0.3322661680189256
-0.445076362602008,-0.445076362602008
-0.5266185141213012,-0.5266185141213012
-0.49044567998868244,-0.49044567998868244
-0.4297488905119153,-0.4297488905119153
-0.5296840085393197,-0.5296840085393197
-0.7203577613400731,-0.7203577613400731
-0.8601443068017187,-0.8601443068017187
-0.9147101074424487,-0.9147101074424487
-0.9747937980356122,-0.9747937980356122
-1.0115797310518346,-1.0115797310518346
-0.9729545013848011,-0.9729545013848011
-0.9147101074424487,-0.9147101074424487
-1.021389313189494,-1.021389313189494
-1.3028017007635964,-1.3028017007635964
-1.5615294296443614,-1.5615294296443614
-1.4971540468659719,-1.4971540468659719
-1.029972697559946,-1.029972697559946
-0.3322661680189256,-0.3322661680189256
0.2796065178175755,0.2796065178175755
0.7351389883351309,0.7351389883351309
1.2409455673081904,1.2409455673081904
1.9968964907915632,1.9968964907915632
2.708091195771865,2.708091195771865
2.773692776317462,2.773692776317462
1.8552706486791064,1.8552706486791064
0.3470473950139834,0.3470473950139834
-1.027520302025531,-1.027520302025531
-1.7883760165777334,-1.7883760165777334
-1.9956034392357869,-1.9956034392357869
-1.8852456401871194,-1.8852456401871194
-1.6111904392162617,-1.6111904392162617
-1.2059320771542104,-1.2059320771542104
-0.8239714726690999,-0.8239714726690999
-0.6234881377306872,-0.6234881377306872
-0.5995772812701425,-0.5995772812701425
-0.5266185141213012,-0.5266185141213012
-0.327361376950096,-0.327361376950096
-0.13852692080015375,-0.13852692080015375
-0.11155056992159056,-0.11155056992159056
-0.13852692080015375,-0.13852692080015375
-0.10419338331834606,-0.10419338331834606
-0.041044198307164076,-0.041044198307164076
-0.07783013132338659,-0.07783013132338659
-0.13852692080015375,-0.13852692080015375
-0.12565184424447587,-0.12565184424447587
-0.041044198307164076,-0.041044198307164076
-0.020198836264637986,-0.020198836264637986
-0.041044198307164076,-0.041044198307164076
-0.026329825100675074,-0.026329825100675074
0.05582542530222187,0.05582542530222187
0.09567685273646293,0.09567685273646293
0.05582542530222187,0.05582542530222187
0.001872723545095521,0.001872723545095521
0.05582542530222187,0.05582542530222187
0.1729273120705302,0.1729273120705302
0.25017777140459746,0.25017777140459746
0.2373026948489196,0.2373026948489196
0.25017777140459746,0.25017777140459746
0.31148765976496834,0.31148765976496834
0.3470473950139834,0.3470473950139834
0.2863506055372163,0.2863506055372163
0.25017777140459746,0.25017777140459746
0.2949339899076682,0.2949339899076682
0.3470473950139834,0.3470473950139834
0.29861258320929046,0.29861258320929046
0.25017777140459746,0.25017777140459746
0.2808327155847829,0.2808327155847829
0.3470473950139834,0.3470473950139834
0.34275570282875745,0.34275570282875745
0.3470473950139834,0.3470473950139834
0.42736334876606924,0.42736334876606924
0.541399741116359,0.541399741116359
0.5653105975769037,0.5653105975769037
0.541399741116359,0.541399741116359
0.5303639612114923,0.5303639612114923
0.541399741116359,0.541399741116359
0.5248460712590589,0.5248460712590589
0.541399741116359,0.541399741116359
0.5978048384079002,0.5978048384079002
0.638269364725745,0.638269364725745
0.5929000473390705,0.5929000473390705
0.541399741116359,0.541399741116359
0.5064531047509476,0.5064531047509476
0.44391701862336935,0.44391701862336935
0.31823174748460914,0.31823174748460914
0.25017777140459746,0.25017777140459746
0.2612135513094642,0.2612135513094642
0.25017777140459746,0.25017777140459746
0.1361413790543077,0.1361413790543077
0.05582542530222187,0.05582542530222187
0.06563500743988121,0.06563500743988121
0.05582542530222187,0.05582542530222187
-0.09131830676266818,-0.09131830676266818
-0.2353965444095397,-0.2353965444095397
-0.26359909305531026,-0.26359909305531026
-0.2353965444095397,-0.2353965444095397
-0.2875099495158549,-0.2875099495158549
-0.3322661680189256,-0.3322661680189256
-0.264212191938914,-0.264212191938914
-0.13852692080015375,-0.13852692080015375
-0.13300903084772037,-0.13300903084772037
-0.2353965444095397,-0.2353965444095397
-0.3298137724845108,-0.3298137724845108
-0.3322661680189256,-0.3322661680189256
-0.32674827806649226,-0.32674827806649226
-0.3322661680189256,-0.3322661680189256
-0.35801632113028137,-0.35801632113028137
-0.3322661680189256,-0.3322661680189256
-0.2562419064520658,-0.2562419064520658
-0.13852692080015375,-0.13852692080015375
-0.06618125253491612,-0.06618125253491612
-0.041044198307164076,-0.041044198307164076
-0.021425034031845404,-0.021425034031845404
0.05582542530222187,0.05582542530222187
0.07421839181033313,0.07421839181033313
-0.13852692080015375,-0.13852692080015375
-0.6713098506517765,-0.6713098506517765
-1.3028017007635964,-1.3028017007635964
-1.6596252510209546,-1.6596252510209546
-1.4971540468659719,-1.4971540468659719
-0.9484305460406527,-0.9484305460406527
-0.13852692080015375,-0.13852692080015375
1.115873395053034,1.115873395053034
2.967432023536234,2.967432023536234
4.722734127293651,4.722734127293651
5.200338157620941,5.200338157620941
4.053843245282005,4.053843245282005
2.3856011829963144,2.3856011829963144
1.4359110122941698,1.4359110122941698
1.3175829277586542,1.3175829277586542
1.2955113679489205,1.2955113679489205
1.0263609580468924,1.0263609580468924
0.7179722195942271,0.7179722195942271
0.541399741116359,0.541399741116359
0.3225234396698351,0.3225234396698351
-0.041044198307164076,-0.041044198307164076
-0.4732789112477786,-0.4732789112477786
-0.8178404838330628,-0.8178404838330628
-1.0121928299354384,-1.0121928299354384
-1.0115797310518346,-1.0115797310518346
-0.8987695364687524,-0.8987695364687524
-0.8178404838330628,-0.8178404838330628
-0.8589181090345113,-0.8589181090345113
-0.9147101074424487,-0.9147101074424487
-0.8993826353523561,-0.8993826353523561
-0.8178404838330628,-0.8178404838330628
-0.7675663753775587,-0.7675663753775587
-0.7203577613400731,-0.7203577613400731
-0.6737622461861913,-0.6737622461861913
-0.6234881377306872,-0.6234881377306872
-0.6204226433126686,-0.6204226433126686
-0.6234881377306872,-0.6234881377306872
-0.625940533265102,-0.625940533265102
-0.6234881377306872,-0.6234881377306872
-0.6400418075879873,-0.6400418075879873
-0.6234881377306872,-0.6234881377306872
-0.6038689734553685,-0.6038689734553685
-0.6234881377306872,-0.6234881377306872
-0.6737622461861913,-0.6737622461861913
-0.6234881377306872,-0.6234881377306872
-0.49044567998868244,-0.49044567998868244
-0.4297488905119153,-0.4297488905119153
-0.5333626018409421,-0.5333626018409421
-0.6234881377306872,-0.6234881377306872
-0.5652437437883349,-0.5652437437883349
-0.4297488905119153,-0.4297488905119153
-0.39112366084488165,-0.39112366084488165
-0.4297488905119153,-0.4297488905119153
-0.47757060343300456,-0.47757060343300456
-0.5266185141213012,-0.5266185141213012
-0.6124523578258204,-0.6124523578258204
-0.6234881377306872,-0.6234881377306872
-0.5027076576607566,-0.5027076576607566
-0.3322661680189256,-0.3322661680189256
-0.28015276291261043,-0.28015276291261043
-0.3322661680189256,-0.3322661680189256
-0.405224935167767,-0.405224935167767
-0.4297488905119153,-0.4297488905119153
-0.41993930837425597,-0.41993930837425597
-0.3322661680189256,-0.3322661680189256
-0.15998538172628354,-0.15998538172628354
0.05582542530222187,0.05582542530222187
0.19867746518188598,0.19867746518188598
0.25017777140459746,0.25017777140459746
0.24220748591774927,0.24220748591774927
0.25017777140459746,0.25017777140459746
0.2563087602406346,0.2563087602406346
0.25017777140459746,0.25017777140459746
0.2287193104784677,0.2287193104784677
0.25017777140459746,0.25017777140459746
0.272249331214331,0.272249331214331
0.25017777140459746,0.25017777140459746
0.2011298607163008,0.2011298607163008
0.25017777140459746,0.25017777140459746
0.3525652849664168,0.3525652849664168
0.3470473950139834,0.3470473950139834
0.17660590537215246,0.17660590537215246
0.05582542530222187,0.05582542530222187
0.09015896278402954,0.09015896278402954
0.15269504891160782,0.15269504891160782
0.09751614938727406,0.09751614938727406
0.05582542530222187,0.05582542530222187
0.1152960170117816,0.1152960170117816
0.15269504891160782,0.15269504891160782
0.015360898984377109,0.015360898984377109
-0.13852692080015375,-0.13852692080015375
-0.14036621745096486,-0.14036621745096486
-0.041044198307164076,-0.041044198307164076
-0.020811935148241693,-0.020811935148241693
-0.041044198307164076,-0.041044198307164076
-0.03797870388914554,-0.03797870388914554
-0.041044198307164076,-0.041044198307164076
-0.11706845987402394,-0.11706845987402394
-0.13852692080015375,-0.13852692080015375
-0.045335890492390035,-0.045335890492390035
0.05582542530222187,0.05582542530222187
0.023944283354829028,0.023944283354829028
-0.041044198307164076,-0.041044198307164076
-0.04901448379401229,-0.04901448379401229
-0.041044198307164076,-0.041044198307164076
-0.10358028443474235,-0.10358028443474235
-0.13852692080015375,-0.13852692080015375
-0.08825281234464963,-0.08825281234464963
-0.041044198307164076,-0.041044198307164076
-0.12565184424447587,-0.12565184424447587
-0.2353965444095397,-0.2353965444095397
-0.2439799287799916,-0.2439799287799916
-0.13852692080015375,-0.13852692080015375
-0.06679435141851983,-0.06679435141851983
-0.041044198307164076,-0.041044198307164076
-0.04349659384157891,-0.04349659384157891
-0.041044198307164076,-0.041044198307164076
-0.08641351569383851,-0.08641351569383851
-0.13852692080015375,-0.13852692080015375
-0.1293304375460981,-0.1293304375460981
-0.041044198307164076,-0.041044198307164076
-0.08028252685780142,-0.08028252685780142
-0.4297488905119153,-0.4297488905119153
-1.021389313189494,-1.021389313189494
-1.4971540468659719,-1.4971540468659719
-1.6688217342750102,-1.6688217342750102
-1.5940236704753579,-1.5940236704753579
-1.309545788483237,-1.309545788483237
-0.6234881377306872,-0.6234881377306872
0.46292308401508436,0.46292308401508436
1.7056745210798017,1.7056745210798017
2.9527176503297445,2.9527176503297445
4.229189525992666,4.229189525992666
5.085075567503443,5.085075567503443
4.714763841806803,4.714763841806803
3.0164799342245305,3.0164799342245305
1.1232305816562784,1.1232305816562784
0.14472476342475962,0.14472476342475962
0.05582542530222187,0.05582542530222187
0.14165926900674106,0.14165926900674106
0.15269504891160782,0.15269504891160782
0.21277873950477125,0.21277873950477125
0.25017777140459746,0.25017777140459746
0.023944283354829028,0.023944283354829028
-0.3322661680189256,-0.3322661680189256
-0.5296840085393197,-0.5296840085393197
-0.5266185141213012,-0.5266185141213012
-0.5149696353328308,-0.5149696353328308
-0.5266185141213012,-0.5266185141213012
-0.5204875252852642,-0.5204875252852642
-0.5266185141213012,-0.5266185141213012
-0.602642775688161,-0.602642775688161
-0.6234881377306872,-0.6234881377306872
-0.5309102063065272,-0.5309102063065272
-0.4297488905119153,-0.4297488905119153
-0.5168089319836419,-0.5168089319836419
-0.7203577613400731,-0.7203577613400731
-0.8619836034525298,-0.8619836034525298
-0.8178404838330628,-0.8178404838330628
-0.6970600037631323,-0.6970600037631323
-0.6234881377306872,-0.6234881377306872
-0.65536927967808,-0.65536927967808
-0.7203577613400731,-0.7203577613400731
-0.7847331441184625,-0.7847331441184625
-0.8178404838330628,-0.8178404838330628
-0.8417513402936074,-0.8417513402936074
-0.8178404838330628,-0.8178404838330628
-0.7442686178006178,-0.7442686178006178
-0.6234881377306872,-0.6234881377306872
-0.5168089319836419,-0.5168089319836419
-0.4297488905119153,-0.4297488905119153
-0.3739568921039778,-0.3739568921039778
-0.3322661680189256,-0.3322661680189256
-0.3298137724845108,-0.3298137724845108
-0.3322661680189256,-0.3322661680189256
-0.3163255970452292,-0.3163255970452292
-0.2353965444095397,-0.2353965444095397
-0.13055663531330552,-0.13055663531330552
-0.041044198307164076,-0.041044198307164076
-0.02387742956626024,-0.02387742956626024
-0.041044198307164076,-0.041044198307164076
-0.03797870388914554,-0.03797870388914554
0.05582542530222187,0.05582542530222187
0.2011298607163008,0.2011298607163008
0.3470473950139834,0.3470473950139834
0.4482087108085953,0.4482087108085953
0.541399741116359,0.541399741116359
0.6125192116143893,0.6125192116143893
0.638269364725745,0.638269364725745
0.5910607506882595,0.5910607506882595
0.541399741116359,0.541399741116359
0.5236198734918515,0.5236198734918515
0.541399741116359,0.541399741116359
0.5432390377671702,0.5432390377671702
0.541399741116359,0.541399741116359
0.5144233902377958,0.5144233902377958
0.44391701862336935,0.44391701862336935
0.29861258320929046,0.29861258320929046
0.15269504891160782,0.15269504891160782
0.06686120520708863,0.06686120520708863
0.05582542530222187,0.05582542530222187
0.025170481122036445,0.025170481122036445
-0.041044198307164076,-0.041044198307164076
-0.0931576034134793,-0.0931576034134793
-0.041044198307164076,-0.041044198307164076
0.04478964539735512,0.04478964539735512
0.05582542530222187,0.05582542530222187
-0.05269307709563454,-0.05269307709563454
-0.13852692080015375,-0.13852692080015375
-0.11829465764123136,-0.11829465764123136
-0.041044198307164076,-0.041044198307164076
-0.05146687932842712,-0.05146687932842712
-0.13852692080015375,-0.13852692080015375
-0.1998368091605246,-0.1998368091605246
-0.13852692080015375,-0.13852692080015375
-0.02694292398427878,-0.02694292398427878
0.05582542530222187,0.05582542530222187
0.05643852418582558,0.05643852418582558
0.05582542530222187,0.05582542530222187
0.05643852418582558,0.05643852418582558
0.05582542530222187,0.05582542530222187
0.011682305682754858,0.011682305682754858
-0.041044198307164076,-0.041044198307164076
-0.10051479001672381,-0.10051479001672381
-0.13852692080015375,-0.13852692080015375
-0.15385439289024644,-0.15385439289024644
-0.13852692080015375,-0.13852692080015375
-0.21822977566863586,-0.21822977566863586
-0.5266185141213012,-0.5266185141213012
-1.0796337071318463,-1.0796337071318463
-1.5940236704753579,-1.5940236704753579
-1.7190958427305143,-1.7190958427305143
-1.3028017007635964,-1.3028017007635964
-0.5597258538359015,-0.5597258538359015
0.3470473950139834,0.3470473950139834
1.5487212068772522,1.5487212068772522
3.1617843696386094,3.1617843696386094
4.581108285181195,4.581108285181195
4.811633465416189,4.811633465416189
3.5731737205366976,3.5731737205366976
1.8031572435727912,1.8031572435727912
0.5610189053916778,0.5610189053916778
0.05582542530222187,0.05582542530222187
-0.1213601520592499,-0.1213601520592499
-0.13852692080015375,-0.13852692080015375
-0.011615451894186068,-0.011615451894186068
0.05582542530222187,0.05582542530222187
-0.1783783482343948,-0.1783783482343948
-0.5266185141213012,-0.5266185141213012
-0.680506333905832,-0.680506333905832
-0.6234881377306872,-0.6234881377306872
-0.5916069957832943,-0.5916069957832943
-0.6234881377306872,-0.6234881377306872
-0.6339108187519502,-0.6339108187519502
-0.6234881377306872,-0.6234881377306872
-0.7031909925991693,-0.7031909925991693
-0.8178404838330628,-0.8178404838330628
-0.8429775380608149,-0.8429775380608149
-0.7203577613400731,-0.7203577613400731
-0.6130654567094241,-0.6130654567094241
-0.6234881377306872,-0.6234881377306872
-0.7442686178006178,-0.7442686178006178
-0.8178404838330628,-0.8178404838330628
-0.8209059782510814,-0.8209059782510814
-0.8178404838330628,-0.8178404838330628
-0.8497216257804556,-0.8497216257804556
-0.8178404838330628,-0.8178404838330628
-0.7369114311973732,-0.7369114311973732
-0.7203577613400731,-0.7203577613400731
-0.8117094949970257,-0.8117094949970257
-0.8178404838330628,-0.8178404838330628
-0.6688574551173616,-0.6688574551173616
-0.5266185141213012,-0.5266185141213012
-0.5591127549522978,-0.5591127549522978
-0.6234881377306872,-0.6234881377306872
-0.5652437437883349,-0.5652437437883349
-0.4297488905119153,-0.4297488905119153
-0.37089139768595925,-0.37089139768595925
-0.3322661680189256,-0.3322661680189256
-0.2372358410603508,-0.2372358410603508
-0.13852692080015375,-0.13852692080015375
-0.1642770739115095,-0.1642770739115095
-0.2353965444095397,-0.2353965444095397
-0.23110485222431373,-0.23110485222431373
-0.13852692080015375,-0.13852692080015375
-0.07415153802176434,-0.07415153802176434
-0.041044198307164076,-0.041044198307164076
-0.0036451664073378558,-0.0036451664073378558
0.05582542530222187,0.05582542530222187
0.07053979850871088,0.07053979850871088
0.05582542530222187,0.05582542530222187
0.039271755444921744,0.039271755444921744
0.05582542530222187,0.05582542530222187
0.06256951302186267,0.06256951302186267
0.05582542530222187,0.05582542530222187
0.034366964376092074,0.034366964376092074
0.05582542530222187,0.05582542530222187
0.13123658798547802,0.13123658798547802
0.25017777140459746,0.25017777140459746
0.3084221653469498,0.3084221653469498
0.25017777140459746,0.25017777140459746
0.08586727059880359,0.08586727059880359
-0.041044198307164076,-0.041044198307164076
-0.04840138491040858,-0.04840138491040858
0.05582542530222187,0.05582542530222187
0.13981997235592994,0.13981997235592994
0.15269504891160782,0.15269504891160782
0.12387940138223352,0.12387940138223352
0.15269504891160782,0.15269504891160782
0.22136212387522317,0.22136212387522317
0.25017777140459746,0.25017777140459746
0.14043307123953366,0.14043307123953366
-0.041044198307164076,-0.041044198307164076
-0.16734256832952804,-0.16734256832952804
-0.13852692080015375,-0.13852692080015375
-0.05330617597923825,-0.05330617597923825
-0.041044198307164076,-0.041044198307164076
-0.14711030517060567,-0.14711030517060567
-0.2353965444095397,-0.2353965444095397
-0.22620006115548405,-0.22620006115548405
-0.13852692080015375,-0.13852692080015375
-0.07599083467257546,-0.07599083467257546
-0.041044198307164076,-0.041044198307164076
-0.028782220635089905,-0.028782220635089905
-0.041044198307164076,-0.041044198307164076
-0.12994353642970183,-0.12994353642970183
-0.2353965444095397,-0.2353965444095397
-0.25992049975368803,-0.25992049975368803
-0.13852692080015375,-0.13852692080015375
0.012295404566358565,0.012295404566358565
0.05582542530222187,0.05582542530222187
-0.06802054918572725,-0.06802054918572725
-0.2353965444095397,-0.2353965444095397
-0.3353316624369442,-0.3353316624369442
-0.3322661680189256,-0.3322661680189256
-0.3175517948124366,-0.3175517948124366
-0.3322661680189256,-0.3322661680189256
-0.3874450675432594,-0.3874450675432594
-0.4297488905119153,-0.4297488905119153
-0.4518204503216488,-0.4518204503216488
-0.4297488905119153,-0.4297488905119153
-0.3856057708924483,-0.3856057708924483
-0.3322661680189256,-0.3322661680189256
-0.31877799257964406,-0.31877799257964406
-0.3322661680189256,-0.3322661680189256
-0.35433772782865913,-0.35433772782865913
-0.3322661680189256,-0.3322661680189256
-0.2826051584470252,-0.2826051584470252
-0.2353965444095397,-0.2353965444095397
-0.25685500533566946,-0.25685500533566946
-0.3322661680189256,-0.3322661680189256
-0.4230048027922745,-0.4230048027922745
-0.4297488905119153,-0.4297488905119153
-0.3586294200138851,-0.3586294200138851
-0.2353965444095397,-0.2353965444095397
-0.15508059065745386,-0.15508059065745386
-0.13852692080015375,-0.13852692080015375
-0.21209878683259875,-0.21209878683259875
-0.3322661680189256,-0.3322661680189256
-0.4315881871627264,-0.4315881871627264
-0.4297488905119153,-0.4297488905119153
-0.43587987934795236,-0.43587987934795236
-0.6234881377306872,-0.6234881377306872
-1.0244548076075126,-1.0244548076075126
-1.4002844232565859,-1.4002844232565859
-1.5909581760573392,-1.5909581760573392
-1.5940236704753579,-1.5940236704753579
-1.3984451266057747,-1.3984451266057747
-0.8178404838330628,-0.8178404838330628
0.1582129388640412,0.1582129388640412
1.3175829277586542,1.3175829277586542
2.4861493999073225,2.4861493999073225
3.6473586854527467,3.6473586854527467
4.440708640835945,4.440708640835945
4.229189525992666,4.229189525992666
2.853395631185944,2.853395631185944
1.1232305816562784,1.1232305816562784
-0.03184771505310845,-0.03184771505310845
-0.4297488905119153,-0.4297488905119153
-0.5106779431476048,-0.5106779431476048
-0.5266185141213012,-0.5266185141213012
-0.4604038346921007,-0.4604038346921007
-0.3322661680189256,-0.3322661680189256
-0.3206172892304552,-0.3206172892304552
-0.4297488905119153,-0.4297488905119153
-0.5260054152376975,-0.5260054152376975
-0.5266185141213012,-0.5266185141213012
-0.537654294026168,-0.537654294026168
-0.6234881377306872,-0.6234881377306872
-0.7264887501761103,-0.7264887501761103
-0.7203577613400731,-0.7203577613400731
-0.6486251919584393,-0.6486251919584393
-0.6234881377306872,-0.6234881377306872
-0.6958338059959248,-0.6958338059959248
-0.7203577613400731,-0.7203577613400731
-0.6645657629321357,-0.6645657629321357
-0.6234881377306872,-0.6234881377306872
-0.7203577613400731,-0.7203577613400731
-0.8178404838330628,-0.8178404838330628
-0.7749235619808033,-0.7749235619808033
-0.6234881377306872,-0.6234881377306872
-0.5609520516031089,-0.5609520516031089
-0.6234881377306872,-0.6234881377306872
-0.7154529702712434,-0.7154529702712434
-0.7203577613400731,-0.7203577613400731
-0.6731491473025876,-0.6731491473025876
-0.6234881377306872,-0.6234881377306872
-0.6198095444290649,-0.6198095444290649
-0.6234881377306872,-0.6234881377306872
-0.606934467873387,-0.606934467873387
-0.5266185141213012,-0.5266185141213012
-0.4217786050250671,-0.4217786050250671
-0.3322661680189256,-0.3322661680189256
-0.31693869592883295,-0.31693869592883295
-0.3322661680189256,-0.3322661680189256
-0.29977192718792905,-0.29977192718792905
-0.13852692080015375,-0.13852692080015375
0.058277820836636705,0.058277820836636705
0.15269504891160782,0.15269504891160782
0.10180784157250002,0.10180784157250002
0.05582542530222187,0.05582542530222187
0.08893276501682214,0.08893276501682214
0.15269504891160782,0.15269504891160782
0.1790583009065673,0.1790583009065673
0.25017777140459746,0.25017777140459746
0.3721844492417355,0.3721844492417355
0.44391701862336935,0.44391701862336935
0.3887381190990356,0.3887381190990356
0.3470473950139834,0.3470473950139834
0.3973215034694875,0.3973215034694875
0.44391701862336935,0.44391701862336935
0.35808317491885017,0.35808317491885017
0.25017777140459746,0.25017777140459746
0.2305586071292788,0.2305586071292788
0.25017777140459746,0.25017777140459746
0.16863561988530423,0.16863561988530423
0.05582542530222187,0.05582542530222187
0.017200195635188233,0.017200195635188233
0.05582542530222187,0.05582542530222187
0.06686120520708863,0.06686120520708863
0.05582542530222187,0.05582542530222187
0.02271808558762161,0.02271808558762161
-0.041044198307164076,-0.041044198307164076
-0.13178283308051295,-0.13178283308051295
-0.13852692080015375,-0.13852692080015375
-0.09683619671510156,-0.09683619671510156
-0.13852692080015375,-0.13852692080015375
-0.29118854281747714,-0.29118854281747714
-0.3322661680189256,-0.3322661680189256
-0.186348633721243,-0.186348633721243
-0.041044198307164076,-0.041044198307164076
-0.10603267996915718,-0.10603267996915718
-0.2353965444095397,-0.2353965444095397
-0.21209878683259875,-0.21209878683259875
-0.041044198307164076,-0.041044198307164076
0.03743245879411062,0.03743245879411062
-0.041044198307164076,-0.041044198307164076
-0.1507888984722279,-0.1507888984722279
-0.13852692080015375,-0.13852692080015375
-0.06924674695293467,-0.06924674695293467
-0.041044198307164076,-0.041044198307164076
-0.06863364806933096,-0.06863364806933096
-0.041044198307164076,-0.041044198307164076
0.030075272190866115,0.030075272190866115
0.05582542530222187,0.05582542530222187
-0.012228550777789775,-0.012228550777789775
-0.041044198307164076,-0.041044198307164076
0.013521602333565983,0.013521602333565983
0.05582542530222187,0.05582542530222187
-0.030621517285901033,-0.030621517285901033
-0.13852692080015375,-0.13852692080015375
-0.16672946944592432,-0.16672946944592432
-0.13852692080015375,-0.13852692080015375
-0.14833650293781306,-0.14833650293781306
-0.13852692080015375,-0.13852692080015375
-0.08334802127581997,-0.08334802127581997
-0.041044198307164076,-0.041044198307164076
-0.06618125253491612,-0.06618125253491612
-0.041044198307164076,-0.041044198307164076
0.04601584316456254,0.04601584316456254
0.05582542530222187,0.05582542530222187
-0.10174098778393122,-0.10174098778393122
-0.2353965444095397,-0.2353965444095397
-0.1881879303720541,-0.1881879303720541
-0.041044198307164076,-0.041044198307164076
-0.0005796719893193132,-0.0005796719893193132
-0.041044198307164076,-0.041044198307164076
-0.06556815365131242,-0.06556815365131242
-0.041044198307164076,-0.041044198307164076
-0.07721703243978288,-0.07721703243978288
-0.13852692080015375,-0.13852692080015375
-0.17040806274754658,-0.17040806274754658
-0.13852692080015375,-0.13852692080015375
-0.12503874536087214,-0.12503874536087214
-0.13852692080015375,-0.13852692080015375
-0.14894960182141678,-0.14894960182141678
-0.13852692080015375,-0.13852692080015375
-0.25562880756846207,-0.25562880756846207
-0.6234881377306872,-0.6234881377306872
-1.1740509352068174,-1.1740509352068174
-1.5940236704753579,-1.5940236704753579
-1.6951849862699697,-1.6951849862699697
-1.4971540468659719,-1.4971540468659719
-1.071663421644998,-1.071663421644998
-0.3322661680189256,-0.3322661680189256
0.7032578463877381,0.7032578463877381
1.9000268671821772,1.9000268671821772
3.160558171871402,3.160558171871402
4.423541872095042,4.423541872095042
5.175814202276792,5.175814202276792
4.714763841806803,4.714763841806803
3.046521779521112,3.046521779521112
1.2207133041492682,1.2207133041492682
0.1723142131869265,0.1723142131869265
-0.13852692080015375,-0.13852692080015375
-0.2660514885897251,-0.2660514885897251
-0.3322661680189256,-0.3322661680189256
-0.2353965444095397,-0.2353965444095397
-0.13852692080015375,-0.13852692080015375
-0.3212303881140589,-0.3212303881140589
-0.6234881377306872,-0.6234881377306872
-0.7283280468269213,-0.7283280468269213
-0.6234881377306872,-0.6234881377306872
-0.5726009303915793,-0.5726009303915793
-0.6234881377306872,-0.6234881377306872
-0.6584347740960986,-0.6584347740960986
-0.6234881377306872,-0.6234881377306872
-0.6136785555930279,-0.6136785555930279
-0.6234881377306872,-0.6234881377306872
-0.6314584232175354,-0.6314584232175354
-0.6234881377306872,-0.6234881377306872
-0.6694705540009653,-0.6694705540009653
-0.7203577613400731,-0.7203577613400731
-0.7473341122186363,-0.7473341122186363
-0.7203577613400731,-0.7203577613400731
-0.684798026091058,-0.684798026091058
-0.6234881377306872,-0.6234881377306872
-0.5388804917933754,-0.5388804917933754
-0.4297488905119153,-0.4297488905119153
-0.3592425188974888,-0.3592425188974888
-0.3322661680189256,-0.3322661680189256
-0.3445281456909998,-0.3445281456909998
-0.3322661680189256,-0.3322661680189256
-0.29118854281747714,-0.29118854281747714
-0.2353965444095397,-0.2353965444095397
-0.24765852208161385,-0.24765852208161385
-0.3322661680189256,-0.3322661680189256
-0.4297488905119153,-0.4297488905119153
-0.4297488905119153,-0.4297488905119153
-0.367212804384337,-0.367212804384337
-0.3322661680189256,-0.3322661680189256
-0.3623080133155073,-0.3623080133155073
-0.3322661680189256,-0.3322661680189256
-0.19922371027692087,-0.19922371027692087
-0.041044198307164076,-0.041044198307164076
0.022104986704017903,0.022104986704017903
0.05582542530222187,0.05582542530222187
0.1582129388640412,0.1582129388640412
0.3470473950139834,0.3470473950139834
0.49419112707887347,0.49419112707887347
0.541399741116359,0.541399741116359
0.49909591814770315,0.49909591814770315
0.44391701862336935,0.44391701862336935
0.38628572356462076,0.38628572356462076
0.3470473950139834,0.3470473950139834
0.3255889340878536,0.3255889340878536
0.3470473950139834,0.3470473950139834
0.3636010648712836,0.3636010648712836
0.3470473950139834,0.3470473950139834
0.2875768033044237,0.2875768033044237
0.25017777140459746,0.25017777140459746
0.2158442339227898,0.2158442339227898
0.15269504891160782,0.15269504891160782
0.06195641413825896,0.06195641413825896
0.05582542530222187,0.05582542530222187
0.12387940138223352,0.12387940138223352
0.15269504891160782,0.15269504891160782
0.05582542530222187,0.05582542530222187
-0.041044198307164076,-0.041044198307164076
-0.05759786816446421,-0.05759786816446421
-0.041044198307164076,-0.041044198307164076
-0.09560999894789414,-0.09560999894789414
-0.13852692080015375,-0.13852692080015375
-0.1072588777363646,-0.1072588777363646
-0.041044198307164076,-0.041044198307164076
-0.03797870388914554,-0.03797870388914554
-0.041044198307164076,-0.041044198307164076
0.001872723545095521,0.001872723545095521
0.05582542530222187,0.05582542530222187
0.02333118447122532,0.02333118447122532
-0.041044198307164076,-0.041044198307164076
-0.07108604360374579,-0.07108604360374579
-0.041044198307164076,-0.041044198307164076
-0.040431099423560365,-0.040431099423560365
-0.041044198307164076,-0.041044198307164076
-0.01958573738103428,-0.01958573738103428
0.05582542530222187,0.05582542530222187
0.11590911589538531,0.11590911589538531
0.15269504891160782,0.15269504891160782
0.18334999309179326,0.18334999309179326
0.25017777140459746,0.25017777140459746
0.22810621159486397,0.22810621159486397
-0.041044198307164076,-0.041044198307164076
-0.5952855890849166,-0.5952855890849166
-1.2059320771542104,-1.2059320771542104
-1.6731134264602363,-1.6731134264602363
-1.8852456401871194,-1.8852456401871194
-1.7252268315665515,-1.7252268315665515
-1.0115797310518346,-1.0115797310518346
0.13368898351989286,0.13368898351989286
1.41445255136804,1.41445255136804
2.7552998098093506,2.7552998098093506
4.229189525992666,4.229189525992666
5.262261144864914,5.262261144864914
4.909116187909179,4.909116187909179
3.1679153584746462,3.1679153584746462
1.41445255136804,1.41445255136804
0.7486271637744125,0.7486271637744125
0.8326217108281206,0.8326217108281206
0.7737642180021645,0.7737642180021645
0.541399741116359,0.541399741116359
0.5144233902377958,0.5144233902377958
0.541399741116359,0.541399741116359
0.16802252100170054,0.16802252100170054
-0.4297488905119153,-0.4297488905119153
-0.7516258044038623,-0.7516258044038623
-0.7203577613400731,-0.7203577613400731
-0.6774408394878135,-0.6774408394878135
-0.7203577613400731,-0.7203577613400731
-0.7412031233825992,-0.7412031233825992
-0.7203577613400731,-0.7203577613400731
-0.7412031233825992,-0.7412031233825992
-0.7203577613400731,-0.7203577613400731
-0.644946598656817,-0.644946598656817
-0.6234881377306872,-0.6234881377306872
-0.74794721110224,-0.74794721110224
-0.8178404838330628,-0.8178404838330628
-0.7362983323137695,-0.7362983323137695
-0.6234881377306872,-0.6234881377306872
-0.6516906863764578,-0.6516906863764578
-0.7203577613400731,-0.7203577613400731
-0.7283280468269213,-0.7283280468269213
-0.7203577613400731,-0.7203577613400731
-0.7969951217905367,-0.7969951217905367
-0.8178404838330628,-0.8178404838330628
-0.6651788618157394,-0.6651788618157394
-0.4297488905119153,-0.4297488905119153
-0.34636744234181094,-0.34636744234181094
-0.4297488905119153,-0.4297488905119153
-0.5345887996081494,-0.5345887996081494
-0.5266185141213012,-0.5266185141213012
-0.4401715715331783,-0.4401715715331783
-0.3322661680189256,-0.3322661680189256
-0.28996234505026974,-0.28996234505026974
-0.3322661680189256,-0.3322661680189256
-0.41993930837425597,-0.41993930837425597
-0.4297488905119153,-0.4297488905119153
-0.37089139768595925,-0.37089139768595925
-0.3322661680189256,-0.3322661680189256
-0.36169491443190366,-0.36169491443190366
-0.3322661680189256,-0.3322661680189256
-0.19554511697529864,-0.19554511697529864
-0.041044198307164076,-0.041044198307164076
-0.00609756194175269,-0.00609756194175269
-0.041044198307164076,-0.041044198307164076
-0.0637288570005013,-0.0637288570005013
-0.041044198307164076,-0.041044198307164076
-0.015907144079412027,-0.015907144079412027
0.05582542530222187,0.05582542530222187
0.16740942211809684,0.16740942211809684
0.25017777140459746,0.25017777140459746
0.1931595752294526,0.1931595752294526
0.05582542530222187,0.05582542530222187
-0.04840138491040858,-0.04840138491040858
-0.041044198307164076,-0.041044198307164076
0.008616811264736315,0.008616811264736315
0.05582542530222187,0.05582542530222187
0.087093468366011,0.087093468366011
0.15269504891160782,0.15269504891160782
0.21829662945720463,0.21829662945720463
0.25017777140459746,0.25017777140459746
0.2360764970817122,0.2360764970817122
0.25017777140459746,0.25017777140459746
0.2747017267487458,0.2747017267487458
0.25017777140459746,0.25017777140459746
0.1373675768215151,0.1373675768215151
0.05582542530222187,0.05582542530222187
0.07299219404312571,0.07299219404312571
0.15269504891160782,0.15269504891160782
0.20296915736711194,0.20296915736711194
0.25017777140459746,0.25017777140459746
0.3084221653469498,0.3084221653469498
0.3470473950139834,0.3470473950139834
0.3010649787437053,0.3010649787437053
0.25017777140459746,0.25017777140459746
0.23362410154729735,0.23362410154729735
0.25017777140459746,0.25017777140459746
0.21032634397035643,0.21032634397035643
0.15269504891160782,0.15269504891160782
0.09996854492168888,0.09996854492168888
0.05582542530222187,0.05582542530222187
-0.013454748544997192,-0.013454748544997192
-0.041044198307164076,-0.041044198307164076
-0.04410969272518262,-0.04410969272518262
-0.13852692080015375,-0.13852692080015375
-0.4800229989674194,-0.4800229989674194
-1.0115797310518346,-1.0115797310518346
-1.5609163307607576,-1.5609163307607576
-1.8852456401871194,-1.8852456401871194
-1.7797926322072815,-1.7797926322072815
-1.1090624535448244,-1.1090624535448244
-0.03123461616950474,-0.03123461616950474
1.2207133041492682,1.2207133041492682
2.580566627982294,2.580566627982294
4.035450278773894,4.035450278773894
5.018860888074243,5.018860888074243
4.714763841806803,4.714763841806803
3.0734981303996753,3.0734981303996753
1.2207133041492682,1.2207133041492682
0.23975509038333442,0.23975509038333442
0.15269504891160782,0.15269504891160782
0.26366594684387906,0.26366594684387906
0.25017777140459746,0.25017777140459746
0.20174295959990451,0.20174295959990451
0.15269504891160782,0.15269504891160782
-0.050240681561219705,-0.050240681561219705
-0.3322661680189256,-0.3322661680189256
-0.48247539450183424,-0.48247539450183424
-0.4297488905119153,-0.4297488905119153
-0.34698054122541466,-0.34698054122541466
-0.3322661680189256,-0.3322661680189256
-0.3500460356434332,-0.3500460356434332
-0.3322661680189256,-0.3322661680189256
-0.3451412445746035,-0.3451412445746035
-0.4297488905119153,-0.4297488905119153
-0.541945986211394,-0.541945986211394
-0.5266185141213012,-0.5266185141213012
-0.4138083195382189,-0.4138083195382189
-0.3322661680189256,-0.3322661680189256
-0.38131407870722234,-0.38131407870722234
-0.4297488905119153,-0.4297488905119153
-0.41932620949065225,-0.41932620949065225
-0.4297488905119153,-0.4297488905119153
-0.518648228634453,-0.518648228634453
-0.5266185141213012,-0.5266185141213012
-0.4082904295857855,-0.4082904295857855
-0.3322661680189256,-0.3322661680189256
-0.4616300324593081,-0.4616300324593081
-0.6234881377306872,-0.6234881377306872
-0.6290060276831205,-0.6290060276831205
-0.5266185141213012,-0.5266185141213012
-0.5290709096557161,-0.5290709096557161
-0.6234881377306872,-0.6234881377306872
-0.6780539383714173,-0.6780539383714173
-0.6234881377306872,-0.6234881377306872
-0.5603389527195052,-0.5603389527195052
-0.5266185141213012,-0.5266185141213012
-0.5253923163540938,-0.5253923163540938
-0.5266185141213012,-0.5266185141213012
-0.5468507772802236,-0.5468507772802236
-0.5266185141213012,-0.5266185141213012
-0.4248440994430856,-0.4248440994430856
-0.2353965444095397,-0.2353965444095397
-0.08334802127581997,-0.08334802127581997
-0.041044198307164076,-0.041044198307164076
-0.07415153802176434,-0.07415153802176434
-0.041044198307164076,-0.041044198307164076
0.039271755444921744,0.039271755444921744
0.05582542530222187,0.05582542530222187
-0.030008418402297322,-0.030008418402297322
-0.041044198307164076,-0.041044198307164076
0.09015896278402954,0.09015896278402954
0.25017777140459746,0.25017777140459746
0.30474357204532754,0.30474357204532754
0.3470473950139834,0.3470473950139834
0.42429785434805073,0.42429785434805073
0.44391701862336935,0.44391701862336935
0.32620203297145733,0.32620203297145733
0.25017777140459746,0.25017777140459746
0.32988062627307957,0.32988062627307957
0.44391701862336935,0.44391701862336935
0.389964316866243,0.389964316866243
0.25017777140459746,0.25017777140459746
0.19622506964747113,0.19622506964747113
0.25017777140459746,0.25017777140459746
0.27163623233072726,0.27163623233072726
0.25017777140459746,0.25017777140459746
0.23301100266369365,0.23301100266369365
0.25017777140459746,0.25017777140459746
0.2434336836849567,0.2434336836849567
0.25017777140459746,0.25017777140459746
0.25385636470621975,0.25385636470621975
0.25017777140459746,0.25017777140459746
0.22442761829324173,0.22442761829324173
0.25017777140459746,0.25017777140459746
0.28512440777000886,0.28512440777000886
0.25017777140459746,0.25017777140459746
0.12755799468385579,0.12755799468385579
0.05582542530222187,0.05582542530222187
0.004325119079510355,0.004325119079510355
-0.2353965444095397,-0.2353965444095397
-0.8215190771346851,-0.8215190771346851
-1.4971540468659719,-1.4971540468659719
-1.8294536417791818,-1.8294536417791818
-1.5940236704753579,-1.5940236704753579
-0.9747937980356122,-0.9747937980356122
-0.13852692080015375,-0.13852692080015375
0.9865095306126515,0.9865095306126515
2.4824708066057,2.4824708066057
3.8711397779681,3.8711397779681
4.3266722484856555,4.3266722484856555
3.4407443616782967,3.4407443616782967
1.8031572435727912,1.8031572435727912
0.4163275688612025,0.4163275688612025
-0.13852692080015375,-0.13852692080015375
-0.04840138491040858,-0.04840138491040858
0.25017777140459746,0.25017777140459746
0.44207772197255824,0.44207772197255824
0.44391701862336935,0.44391701862336935
0.2225883216424306,0.2225883216424306
-0.13852692080015375,-0.13852692080015375
-0.4806360978510231,-0.4806360978510231
-0.6234881377306872,-0.6234881377306872
-0.5891546002488796,-0.5891546002488796
-0.5266185141213012,-0.5266185141213012
-0.5615651504867126,-0.5615651504867126
-0.6234881377306872,-0.6234881377306872
-0.6149047533602353,-0.6149047533602353
-0.5266185141213012,-0.5266185141213012
-0.46408242799372296,-0.46408242799372296
-0.4297488905119153,-0.4297488905119153
-0.39786774856452245,-0.39786774856452245
-0.3322661680189256,-0.3322661680189256
-0.308355311558381,-0.308355311558381
-0.3322661680189256,-0.3322661680189256
-0.3935760563792965,-0.3935760563792965
-0.4297488905119153,-0.4297488905119153
-0.44078467041678204,-0.44078467041678204
-0.4297488905119153,-0.4297488905119153
-0.45549904362327104,-0.45549904362327104
-0.5266185141213012,-0.5266185141213012
-0.6400418075879873,-0.6400418075879873
-0.7203577613400731,-0.7203577613400731
-0.7442686178006178,-0.7442686178006178
-0.7203577613400731,-0.7203577613400731
-0.7387507278481844,-0.7387507278481844
-0.8178404838330628,-0.8178404838330628
-0.9165494040932599,-0.9165494040932599
-0.9147101074424487,-0.9147101074424487
-0.7957689240233293,-0.7957689240233293
-0.6234881377306872,-0.6234881377306872
-0.5296840085393197,-0.5296840085393197
-0.5266185141213012,-0.5266185141213012
-0.5591127549522978,-0.5591127549522978
-0.5266185141213012,-0.5266185141213012
-0.44078467041678204,-0.44078467041678204
-0.3322661680189256,-0.3322661680189256
-0.24152753324557677,-0.24152753324557677
-0.13852692080015375,-0.13852692080015375
-0.05821096704806791,-0.05821096704806791
-0.041044198307164076,-0.041044198307164076
-0.10480648220194977,-0.10480648220194977
-0.13852692080015375,-0.13852692080015375
-0.07905632909059401,-0.07905632909059401
0.05582542530222187,0.05582542530222187
0.16802252100170054,0.16802252100170054
0.25017777140459746,0.25017777140459746
0.30474357204532754,0.30474357204532754
0.3470473950139834,0.3470473950139834
0.3507259883156057,0.3507259883156057
0.3470473950139834,0.3470473950139834
0.316392450833798,0.316392450833798
0.25017777140459746,0.25017777140459746
0.16005223551485231,0.16005223551485231
0.15269504891160782,0.15269504891160782
0.2164573328063935,0.2164573328063935
0.25017777140459746,0.25017777140459746
0.16618322435088942,0.16618322435088942
0.05582542530222187,0.05582542530222187
-0.009163056359771233,-0.009163056359771233
-0.041044198307164076,-0.041044198307164076
-0.08150872462500884,-0.08150872462500884
-0.041044198307164076,-0.041044198307164076
0.09812924827087777,0.09812924827087777
0.25017777140459746,0.25017777140459746
0.2777672211667644,0.2777672211667644
0.25017777140459746,0.25017777140459746
0.23423720043090107,0.23423720043090107
0.25017777140459746,0.25017777140459746
0.23914199149973073,0.23914199149973073
0.25017777140459746,0.25017777140459746
0.3004518798601016,0.3004518798601016
0.3470473950139834,0.3470473950139834
0.27041003456351986,0.27041003456351986
0.05582542530222187,0.05582542530222187
-0.2881230483994586,-0.2881230483994586
-0.7203577613400731,-0.7203577613400731
-1.212676164873851,-1.212676164873851
-1.5940236704753579,-1.5940236704753579
-1.6449108778144657,-1.6449108778144657
-1.2059320771542104,-1.2059320771542104
-0.36843900215154446,-0.36843900215154446
0.7351389883351309,0.7351389883351309
2.043492005945445,2.043492005945445
3.4530063393503707,3.4530063393503707
4.411892993306571,4.411892993306571
4.229189525992666,4.229189525992666
2.8123180059844954,2.8123180059844954
1.0263609580468924,1.0263609580468924
-0.14711030517060567,-0.14711030517060567
-0.4297488905119153,-0.4297488905119153
-0.25195021426683983,-0.25195021426683983
-0.041044198307164076,-0.041044198307164076
0.003098921312302938,0.003098921312302938
-0.13852692080015375,-0.13852692080015375
-0.4138083195382189,-0.4138083195382189
-0.6234881377306872,-0.6234881377306872
-0.6688574551173616,-0.6688574551173616
-0.6234881377306872,-0.6234881377306872
-0.625940533265102,-0.625940533265102
-0.6234881377306872,-0.6234881377306872
-0.5431721839786013,-0.5431721839786013
-0.4297488905119153,-0.4297488905119153
-0.4297488905119153,-0.4297488905119153
-0.5266185141213012,-0.5266185141213012
-0.5971248857357278,-0.5971248857357278
-0.5266185141213012,-0.5266185141213012
-0.4070642318185781,-0.4070642318185781
-0.3322661680189256,-0.3322661680189256
-0.3426888490401887,-0.3426888490401887
-0.3322661680189256,-0.3322661680189256
-0.2795396640290067,-0.2795396640290067
-0.2353965444095397,-0.2353965444095397
-0.2721824774257622,-0.2721824774257622
-0.3322661680189256,-0.3322661680189256
-0.381927177590826,-0.381927177590826
-0.4297488905119153,-0.4297488905119153
-0.5284578107721124,-0.5284578107721124
-0.6234881377306872,-0.6234881377306872
-0.6817325316730395,-0.6817325316730395
-0.7203577613400731,-0.7203577613400731
-0.8141618905314405,-0.8141618905314405
-0.9147101074424487,-0.9147101074424487
-0.9588532270619158,-0.9588532270619158
-0.9147101074424487,-0.9147101074424487
-0.8601443068017187,-0.8601443068017187
-0.8178404838330628,-0.8178404838330628
-0.7884117374200847,-0.7884117374200847
-0.7203577613400731,-0.7203577613400731
-0.630232225450328,-0.630232225450328
-0.5266185141213012,-0.5266185141213012
-0.46285623022651556,-0.46285623022651556
-0.4297488905119153,-0.4297488905119153
-0.4070642318185781,-0.4070642318185781
-0.3322661680189256,-0.3322661680189256
-0.23355724775872855,-0.23355724775872855
-0.13852692080015375,-0.13852692080015375
-0.064341955884105,-0.064341955884105
0.05582542530222187,0.05582542530222187
0.21093944285396013,0.21093944285396013
0.3470473950139834,0.3470473950139834
0.4040655911891283,0.4040655911891283
0.44391701862336935,0.44391701862336935
0.4954173248460809,0.4954173248460809
0.541399741116359,0.541399741116359
0.5377211478147368,0.5377211478147368
0.541399741116359,0.541399741116359
0.5573403120900554,0.5573403120900554
0.541399741116359,0.541399741116359
0.4402384253217471,0.4402384253217471
0.3470473950139834,0.3470473950139834
0.3243627363206462,0.3243627363206462
0.3470473950139834,0.3470473950139834
0.3176186486010054,0.3176186486010054
0.25017777140459746,0.25017777140459746
0.1582129388640412,0.1582129388640412
0.05582542530222187,0.05582542530222187
-0.0428834949579752,-0.0428834949579752
-0.041044198307164076,-0.041044198307164076
0.03191456884167724,0.03191456884167724
0.05582542530222187,0.05582542530222187
-0.046562088259597456,-0.046562088259597456
-0.13852692080015375,-0.13852692080015375
-0.14772340405420936,-0.14772340405420936
-0.13852692080015375,-0.13852692080015375
-0.19861061139331718,-0.19861061139331718
-0.2353965444095397,-0.2353965444095397
-0.22068217120305067,-0.22068217120305067
-0.2353965444095397,-0.2353965444095397
-0.3304268713681145,-0.3304268713681145
-0.3322661680189256,-0.3322661680189256
-0.1796045460016022,-0.1796045460016022
-0.041044198307164076,-0.041044198307164076
-0.13116973419690922,-0.13116973419690922
-0.3322661680189256,-0.3322661680189256
-0.41993930837425597,-0.41993930837425597
-0.3322661680189256,-0.3322661680189256
-0.24704542319801015,-0.24704542319801015
-0.2353965444095397,-0.2353965444095397
-0.23171795110791743,-0.23171795110791743
-0.13852692080015375,-0.13852692080015375
-0.04349659384157891,-0.04349659384157891
-0.041044198307164076,-0.041044198307164076
-0.12319944871006103,-0.12319944871006103
-0.13852692080015375,-0.13852692080015375
-0.07660393355617917,-0.07660393355617917
-0.041044198307164076,-0.041044198307164076
-0.1072588777363646,-0.1072588777363646
-0.13852692080015375,-0.13852692080015375
-0.05330617597923825,-0.05330617597923825
0.05582542530222187,0.05582542530222187
0.014134701217169691,0.014134701217169691
-0.13852692080015375,-0.13852692080015375
-0.27647416961098814,-0.27647416961098814
-0.3322661680189256,-0.3322661680189256
-0.3574032222466777,-0.3574032222466777
-0.3322661680189256,-0.3322661680189256
-0.25378951091765095,-0.25378951091765095
-0.13852692080015375,-0.13852692080015375
-0.0422703960743715,-0.0422703960743715
0.05582542530222187,0.05582542530222187
0.1073257315249334,0.1073257315249334
0.05582542530222187,0.05582542530222187
-0.08273492239221626,-0.08273492239221626
-0.13852692080015375,-0.13852692080015375
-0.08334802127581997,-0.08334802127581997
-0.041044198307164076,-0.041044198307164076
-0.10603267996915718,-0.10603267996915718
-0.13852692080015375,-0.13852692080015375
-0.07599083467257546,-0.07599083467257546
-0.041044198307164076,-0.041044198307164076
-0.171634260514754,-0.171634260514754
-0.3322661680189256,-0.3322661680189256
-0.3788616831728075,-0.3788616831728075
-0.3322661680189256,-0.3322661680189256
-0.3298137724845108,-0.3298137724845108
-0.3322661680189256,-0.3322661680189256
-0.2856706528650438,-0.2856706528650438
-0.2353965444095397,-0.2353965444095397
-0.30161122383874023,-0.30161122383874023
-0.4297488905119153,-0.4297488905119153
-0.522939920819679,-0.522939920819679
-0.5266185141213012,-0.5266185141213012
-0.4732789112477786,-0.4732789112477786
-0.3322661680189256,-0.3322661680189256
-0.1501757995886242,-0.1501757995886242
-0.041044198307164076,-0.041044198307164076
-0.13178283308051295,-0.13178283308051295
-0.3322661680189256,-0.3322661680189256
-0.4751182078985897,-0.4751182078985897
-0.4297488905119153,-0.4297488905119153
-0.249497818732425,-0.249497818732425
-0.041044198307164076,-0.041044198307164076
0.06992669962510717,0.06992669962510717
0.05582542530222187,0.05582542530222187
-0.05269307709563454,-0.05269307709563454
-0.13852692080015375,-0.13852692080015375
-0.13730072303294633,-0.13730072303294633
-0.041044198307164076,-0.041044198307164076
0.039271755444921744,0.039271755444921744
0.05582542530222187,0.05582542530222187
-0.0030320675237341475,-0.0030320675237341475
-0.041044198307164076,-0.041044198307164076
-0.04901448379401229,-0.04901448379401229
-0.041044198307164076,-0.041044198307164076
-0.0569847692808605,-0.0569847692808605
-0.041044198307164076,-0.041044198307164076
0.015973997867980816,0.015973997867980816
0.05582542530222187,0.05582542530222187
-0.07599083467257546,-0.07599083467257546
-0.4297488905119153,-0.4297488905119153
-0.939234062786597,-0.939234062786597
-1.4002844232565859,-1.4002844232565859
-1.631422702375184,-1.631422702375184
-1.4971540468659719,-1.4971540468659719
-0.9937998634273272,-0.9937998634273272
-0.13852692080015375,-0.13852692080015375
0.9950929149831034,0.9950929149831034
2.2881184605033247,2.2881184605033247
3.4346133728422594,3.4346133728422594
4.035450278773894,4.035450278773894
3.7571033856178104,3.7571033856178104
2.676210053824472,2.676210053824472
1.2660826215359424,1.2660826215359424
0.15269504891160782,0.15269504891160782
-0.37763548540560005,-0.37763548540560005
-0.4297488905119153,-0.4297488905119153
-0.29793263053711794,-0.29793263053711794
-0.13852692080015375,-0.13852692080015375
-0.03736560500554183,-0.03736560500554183
-0.041044198307164076,-0.041044198307164076
-0.1796045460016022,-0.1796045460016022
-0.3322661680189256,-0.3322661680189256
-0.3856057708924483,-0.3856057708924483
-0.3322661680189256,-0.3322661680189256
-0.3236827836484737,-0.3236827836484737
-0.4297488905119153,-0.4297488905119153
-0.5799581169948239,-0.5799581169948239
-0.6234881377306872,-0.6234881377306872
-0.577505721460409,-0.577505721460409
-0.5266185141213012,-0.5266185141213012
-0.5131303386820196,-0.5131303386820196
-0.4297488905119153,-0.4297488905119153
-0.3242958825320774,-0.3242958825320774
-0.3322661680189256,-0.3322661680189256
-0.5033207565443604,-0.5033207565443604
-0.6234881377306872,-0.6234881377306872
-0.5897676991324832,-0.5897676991324832
-0.5266185141213012,-0.5266185141213012
-0.5824105125292387,-0.5824105125292387
-0.6234881377306872,-0.6234881377306872
-0.5382673929097717,-0.5382673929097717
-0.4297488905119153,-0.4297488905119153
-0.49228497663949355,-0.49228497663949355
-0.6234881377306872,-0.6234881377306872
-0.6149047533602353,-0.6149047533602353
-0.4297488905119153,-0.4297488905119153
-0.29731953165351427,-0.29731953165351427
-0.3322661680189256,-0.3322661680189256
-0.44262396706759316,-0.44262396706759316
-0.4297488905119153,-0.4297488905119153
-0.28873614728306235,-0.28873614728306235
-0.13852692080015375,-0.13852692080015375
-0.10664577885276089,-0.10664577885276089
-0.13852692080015375,-0.13852692080015375
-0.1366876241493426,-0.1366876241493426
-0.041044198307164076,-0.041044198307164076
0.06992669962510717,0.06992669962510717
0.15269504891160782,0.15269504891160782
0.19622506964747113,0.19622506964747113
0.25017777140459746,0.25017777140459746
0.29983878097649785,0.29983878097649785
0.3470473950139834,0.3470473950139834
0.38322022914660225,0.38322022914660225
0.44391701862336935,0.44391701862336935
0.5033876103329291,0.5033876103329291
0.541399741116359,0.541399741116359
0.5340425545131146,0.5340425545131146
0.541399741116359,0.541399741116359
0.5806380696669964,0.5806380696669964
0.638269364725745,0.638269364725745
0.6260073870536708,0.6260073870536708
0.541399741116359,0.541399741116359
0.42061926104642844,0.42061926104642844
0.3470473950139834,0.3470473950139834
0.3010649787437053,0.3010649787437053
0.25017777140459746,0.25017777140459746
0.1508557522607967,0.1508557522607967
0.05582542530222187,0.05582542530222187
-0.012841649661393484,-0.012841649661393484
-0.041044198307164076,-0.041044198307164076
-0.08150872462500884,-0.08150872462500884
-0.13852692080015375,-0.13852692080015375
-0.23478344552593597,-0.23478344552593597
-0.3322661680189256,-0.3322661680189256
-0.3917367597284854,-0.3917367597284854
-0.3322661680189256,-0.3322661680189256
-0.18941412813926153,-0.18941412813926153
-0.041044198307164076,-0.041044198307164076
0.024557382238432738,0.024557382238432738
0.05582542530222187,0.05582542530222187
0.09874234715448146,0.09874234715448146
0.15269504891160782,0.15269504891160782
0.13552828017070398,0.13552828017070398
0.05582542530222187,0.05582542530222187
-0.030008418402297322,-0.030008418402297322
-0.041044198307164076,-0.041044198307164076
-0.03246081393671216,-0.03246081393671216
-0.041044198307164076,-0.041044198307164076
-0.08334802127581997,-0.08334802127581997
-0.041044198307164076,-0.041044198307164076
0.0944506549692555,0.0944506549692555
0.25017777140459746,0.25017777140459746
0.2673445401455013,0.2673445401455013
0.15269504891160782,0.15269504891160782
0.03559316214329949,0.03559316214329949
0.05582542530222187,0.05582542530222187
0.08280177618078505,0.08280177618078505
-0.13852692080015375,-0.13852692080015375
-0.7203577613400731,-0.7203577613400731
-1.4002844232565859,-1.4002844232565859
-1.831292938429993,-1.831292938429993
-1.7883760165777334,-1.7883760165777334
-1.2390394168688106,-1.2390394168688106
-0.2353965444095397,-0.2353965444095397
0.9595331797340882,0.9595331797340882
2.0943792132845527,2.0943792132845527
3.1538140841517612,3.1538140841517612
4.229189525992666,4.229189525992666
4.864359969406108,4.864359969406108
4.3266722484856555,4.3266722484856555
2.6339062308558163,2.6339062308558163
0.9294913344375065,0.9294913344375065
0.18886788304422664,0.18886788304422664
0.25017777140459746,0.25017777140459746
0.3470473950139834,0.3470473950139834
0.25017777140459746,0.25017777140459746
0.12142700584781868,0.12142700584781868
-0.041044198307164076,-0.041044198307164076
-0.36169491443190366,-0.36169491443190366
-0.6234881377306872,-0.6234881377306872
-0.602642775688161,-0.602642775688161
-0.4297488905119153,-0.4297488905119153
-0.3886712653104668,-0.3886712653104668
-0.4297488905119153,-0.4297488905119153
-0.3972546496809187,-0.3972546496809187
-0.3322661680189256,-0.3322661680189256
-0.37824858428920377,-0.37824858428920377
-0.4297488905119153,-0.4297488905119153
-0.3874450675432594,-0.3874450675432594
-0.3322661680189256,-0.3322661680189256
-0.4469156592528191,-0.4469156592528191
-0.6234881377306872,-0.6234881377306872
-0.6933814104615099,-0.6933814104615099
-0.6234881377306872,-0.6234881377306872
-0.5836367102964461,-0.5836367102964461
-0.6234881377306872,-0.6234881377306872
-0.6731491473025876,-0.6731491473025876
-0.6234881377306872,-0.6234881377306872
-0.5149696353328308,-0.5149696353328308
-0.4297488905119153,-0.4297488905119153
-0.4732789112477786,-0.4732789112477786
-0.6234881377306872,-0.6234881377306872
-0.7828938474676514,-0.7828938474676514
-0.8178404838330628,-0.8178404838330628
-0.7657270787267476,-0.7657270787267476
-0.7203577613400731,-0.7203577613400731
-0.7136136736204324,-0.7136136736204324
-0.6234881377306872,-0.6234881377306872
-0.4536597469724599,-0.4536597469724599
-0.3322661680189256,-0.3322661680189256
-0.3665997055007333,-0.3665997055007333
-0.4297488905119153,-0.4297488905119153
-0.41319522065461517,-0.41319522065461517
-0.3322661680189256,-0.3322661680189256
-0.264212191938914,-0.264212191938914
-0.13852692080015375,-0.13852692080015375
0.06440880967267379,0.06440880967267379
0.25017777140459746,0.25017777140459746
0.3108745608813646,0.3108745608813646
0.3470473950139834,0.3470473950139834
0.438399128670936,0.438399128670936
0.541399741116359,0.541399741116359
0.5536617187884332,0.5536617187884332
0.541399741116359,0.541399741116359
0.5493700266032072,0.5493700266032072
0.541399741116359,0.541399741116359
0.467827875083914,0.467827875083914
0.44391701862336935,0.44391701862336935
0.5052269069837403,0.5052269069837403
0.541399741116359,0.541399741116359
0.4181668655120136,0.4181668655120136
0.25017777140459746,0.25017777140459746
0.1882547841606229,0.1882547841606229
0.25017777140459746,0.25017777140459746
0.28451130888640513,0.28451130888640513
0.25017777140459746,0.25017777140459746
0.18580238862620807,0.18580238862620807
0.15269504891160782,0.15269504891160782
0.11345672036097047,0.11345672036097047
0.05582542530222187,0.05582542530222187
-0.01038925412697865,-0.01038925412697865
-0.041044198307164076,-0.041044198307164076
-0.07783013132338659,-0.07783013132338659
-0.13852692080015375,-0.13852692080015375
-0.19861061139331718,-0.19861061139331718
-0.13852692080015375,-0.13852692080015375
-0.013454748544997192,-0.013454748544997192
0.05582542530222187,0.05582542530222187
-0.00609756194175269,-0.00609756194175269
-0.041044198307164076,-0.041044198307164076
0.0067775146139251894,0.0067775146139251894
0.05582542530222187,0.05582542530222187
0.030075272190866115,0.030075272190866115
0.05582542530222187,0.05582542530222187
0.08402797394799247,0.08402797394799247
-0.13852692080015375,-0.13852692080015375
-0.7123874758532249,-0.7123874758532249
-1.3028017007635964,-1.3028017007635964
-1.6743396242274435,-1.6743396242274435
-1.8852456401871194,-1.8852456401871194
-1.8993469145100046,-1.8993469145100046
-1.3028017007635964,-1.3028017007635964
0.009843009031943732,0.009843009031943732
1.6088048974704157,1.6088048974704157
3.109670964532294,3.109670964532294
4.520411495704428,4.520411495704428
5.452934897665668,5.452934897665668
5.1028554351279505,5.1028554351279505
3.44626225163073,3.44626225163073
1.8031572435727912,1.8031572435727912
1.254433742747472,1.254433742747472
1.41445255136804,1.41445255136804
1.2979637634833354,1.2979637634833354
0.8326217108281206,0.8326217108281206
0.5040007092165328,0.5040007092165328
0.3470473950139834,0.3470473950139834
0.004938217963114063,0.004938217963114063
-0.4297488905119153,-0.4297488905119153
-0.6099999622914056,-0.6099999622914056
-0.5266185141213012,-0.5266185141213012
-0.48247539450183424,-0.48247539450183424
-0.5266185141213012,-0.5266185141213012
-0.518648228634453,-0.518648228634453
-0.4297488905119153,-0.4297488905119153
-0.3733437932203741,-0.3733437932203741
-0.3322661680189256,-0.3322661680189256
-0.29731953165351427,-0.29731953165351427
-0.3322661680189256,-0.3322661680189256
-0.5505293705818459,-0.5505293705818459
-0.8178404838330628,-0.8178404838330628
-0.962531820363538,-0.962531820363538
-0.9147101074424487,-0.9147101074424487
-0.8276500659707221,-0.8276500659707221
-0.8178404838330628,-0.8178404838330628
-0.8901861520983004,-0.8901861520983004
-0.9147101074424487,-0.9147101074424487
-0.8705669878229817,-0.8705669878229817
-0.8178404838330628,-0.8178404838330628
-0.8497216257804556,-0.8497216257804556
-0.9147101074424487,-0.9147101074424487
-0.9502698426914639,-0.9502698426914639
-0.9147101074424487,-0.9147101074424487
-0.8399120436427963,-0.8399120436427963
-0.7203577613400731,-0.7203577613400731
-0.6271667310323095,-0.6271667310323095
-0.6234881377306872,-0.6234881377306872
-0.7044171903663767,-0.7044171903663767
-0.7203577613400731,-0.7203577613400731
-0.6572085763288912,-0.6572085763288912
-0.6234881377306872,-0.6234881377306872
-0.6964469048795285,-0.6964469048795285
-0.7203577613400731,-0.7203577613400731
-0.6063213689897834,-0.6063213689897834
-0.4297488905119153,-0.4297488905119153
-0.3022243227223439,-0.3022243227223439
-0.13852692080015375,-0.13852692080015375
0.08770656724961472,0.08770656724961472
0.25017777140459746,0.25017777140459746
0.223814519409638,0.223814519409638
0.15269504891160782,0.15269504891160782
0.1741535098377376,0.1741535098377376
0.25017777140459746,0.25017777140459746
0.25201706805540863,0.25201706805540863
0.25017777140459746,0.25017777140459746
0.3292675273894759,0.3292675273894759
0.44391701862336935,0.44391701862336935
0.44269082085616196,0.44269082085616196
0.3470473950139834,0.3470473950139834
0.2593742546586531,0.2593742546586531
0.25017777140459746,0.25017777140459746
0.253243265822616,0.253243265822616
0.25017777140459746,0.25017777140459746
0.2452729803357678,0.2452729803357678
0.25017777140459746,0.25017777140459746
0.19009408081143403,0.19009408081143403
0.05582542530222187,0.05582542530222187
-0.06924674695293467,-0.06924674695293467
-0.041044198307164076,-0.041044198307164076
0.08280177618078505,0.08280177618078505
0.15269504891160782,0.15269504891160782
0.08464107283159618,0.08464107283159618
0.05582542530222187,0.05582542530222187
0.1441116645411559,0.1441116645411559
0.25017777140459746,0.25017777140459746
0.19622506964747113,0.19622506964747113
0.05582542530222187,0.05582542530222187
-0.015907144079412027,-0.015907144079412027
0.05582542530222187,0.05582542530222187
0.1508557522607967,0.1508557522607967
0.15269504891160782,0.15269504891160782
-0.0637288570005013,-0.0637288570005013
-0.5266185141213012,-0.5266185141213012
-1.143395991026632,-1.143395991026632
-1.5940236704753579,-1.5940236704753579
-1.5793092972688687,-1.5793092972688687
-1.0115797310518346,-1.0115797310518346
-0.11952085540843876,-0.11952085540843876
0.9294913344375065,0.9294913344375065
2.1771475625710535,2.1771475625710535
3.6473586854527467,3.6473586854527467
4.815925157601415,4.815925157601415
4.909116187909179,4.909116187909179
3.7098947715803248,3.7098947715803248
1.9968964907915632,1.9968964907915632
0.7320734939171124,0.7320734939171124
0.25017777140459746,0.25017777140459746
0.2293324093620714,0.2293324093620714
0.3470473950139834,0.3470473950139834
0.423684755464447,0.423684755464447
0.3470473950139834,0.3470473950139834
0.03559316214329949,0.03559316214329949
-0.3322661680189256,-0.3322661680189256
-0.5125172397984159,-0.5125172397984159
-0.4297488905119153,-0.4297488905119153
-0.28199205956342155,-0.28199205956342155
-0.2353965444095397,-0.2353965444095397
-0.293640938351892,-0.293640938351892
-0.3322661680189256,-0.3322661680189256
-0.33349236578613306,-0.33349236578613306
-0.3322661680189256,-0.3322661680189256
-0.36108181554829993,-0.36108181554829993
-0.3322661680189256,-0.3322661680189256
-0.264212191938914,-0.264212191938914
-0.2353965444095397,-0.2353965444095397
-0.3322661680189256,-0.3322661680189256
-0.4297488905119153,-0.4297488905119153
-0.42055240725785964,-0.42055240725785964
-0.3322661680189256,-0.3322661680189256
-0.32797447583369965,-0.32797447583369965
-0.4297488905119153,-0.4297488905119153
-0.5621782493703164,-0.5621782493703164
-0.6234881377306872,-0.6234881377306872
-0.6382025109371762,-0.6382025109371762
-0.6234881377306872,-0.6234881377306872
-0.596511786852124,-0.596511786852124
-0.5266185141213012,-0.5266185141213012
-0.4567252413904785,-0.4567252413904785
-0.4297488905119153,-0.4297488905119153
-0.5027076576607566,-0.5027076576607566
-0.6234881377306872,-0.6234881377306872
-0.7209708602236768,-0.7209708602236768
-0.7203577613400731,-0.7203577613400731
-0.6725360484189838,-0.6725360484189838
-0.6234881377306872,-0.6234881377306872
-0.5983510835029351,-0.5983510835029351
-0.5266185141213012,-0.5266185141213012
-0.39786774856452245,-0.39786774856452245
-0.2353965444095397,-0.2353965444095397
-0.12013395429204247,-0.12013395429204247
-0.041044198307164076,-0.041044198307164076
0.0362062610269032,0.0362062610269032
0.15269504891160782,0.15269504891160782
0.2360764970817122,0.2360764970817122
0.25017777140459746,0.25017777140459746
0.2452729803357678,0.2452729803357678
0.3470473950139834,0.3470473950139834
0.4966435226132883,0.4966435226132883
0.541399741116359,0.541399741116359
0.42736334876606924,0.42736334876606924
0.3470473950139834,0.3470473950139834
0.41326207444318397,0.41326207444318397
0.541399741116359,0.541399741116359
0.5683760919949222,0.5683760919949222
0.541399741116359,0.541399741116359
0.5371080489311331,0.5371080489311331
0.541399741116359,0.541399741116359
0.45617899629544356,0.45617899629544356
0.3470473950139834,0.3470473950139834
0.31148765976496834,0.31148765976496834
0.3470473950139834,0.3470473950139834
0.3084221653469498,0.3084221653469498
0.15269504891160782,0.15269504891160782
-0.0422703960743715,-0.0422703960743715
-0.13852692080015375,-0.13852692080015375
-0.1501757995886242,-0.1501757995886242
-0.13852692080015375,-0.13852692080015375
-0.18450933707043188,-0.18450933707043188
-0.2353965444095397,-0.2353965444095397
-0.28996234505026974,-0.28996234505026974
-0.3322661680189256,-0.3322661680189256
-0.3727306943367704,-0.3727306943367704
-0.3322661680189256,-0.3322661680189256
-0.20596779799656167,-0.20596779799656167
-0.041044198307164076,-0.041044198307164076
0.03130146995807353,0.03130146995807353
-0.041044198307164076,-0.041044198307164076
-0.29977192718792905,-0.29977192718792905
-0.7203577613400731,-0.7203577613400731
-1.259271680027733,-1.259271680027733
-1.6915063929683474,-1.6915063929683474
-1.7098993594764587,-1.7098993594764587
-1.1090624535448244,-1.1090624535448244
-0.07108604360374579,-0.07108604360374579
1.1232305816562784,1.1232305816562784
2.4131906327584813,2.4131906327584813
3.8410979326715182,3.8410979326715182
4.909116187909179,4.909116187909179
4.811633465416189,4.811633465416189
3.4131549119161297,3.4131549119161297
1.7056745210798017,1.7056745210798017
0.7198115162450383,0.7198115162450383
0.541399741116359,0.541399741116359
0.5775725752489779,0.5775725752489779
0.541399741116359,0.541399741116359
0.49725662149689204,0.49725662149689204
0.44391701862336935,0.44391701862336935
0.21032634397035643,0.21032634397035643
-0.13852692080015375,-0.13852692080015375
-0.381927177590826,-0.381927177590826
-0.4297488905119153,-0.4297488905119153
-0.445076362602008,-0.445076362602008
-0.5266185141213012,-0.5266185141213012
-0.6234881377306872,-0.6234881377306872
-0.6234881377306872,-0.6234881377306872
-0.5627913482539201,-0.5627913482539201
-0.5266185141213012,-0.5266185141213012
-0.5762795236932017,-0.5762795236932017
-0.6234881377306872,-0.6234881377306872
-0.6357501154027614,-0.6357501154027614
-0.6234881377306872,-0.6234881377306872
-0.6706967517681728,-0.6706967517681728
-0.7203577613400731,-0.7203577613400731
-0.7087088825516027,-0.7087088825516027
-0.6234881377306872,-0.6234881377306872
-0.5824105125292387,-0.5824105125292387
-0.6234881377306872,-0.6234881377306872
-0.7062564870171878,-0.7062564870171878
-0.7203577613400731,-0.7203577613400731
-0.6768277406042098,-0.6768277406042098
-0.6234881377306872,-0.6234881377306872
-0.6204226433126686,-0.6204226433126686
-0.6234881377306872,-0.6234881377306872
-0.6247143354978946,-0.6247143354978946
-0.6234881377306872,-0.6234881377306872
-0.644946598656817,-0.644946598656817
-0.6234881377306872,-0.6234881377306872
-0.5437852828622051,-0.5437852828622051
-0.4297488905119153,-0.4297488905119153
-0.36169491443190366,-0.36169491443190366
-0.3322661680189256,-0.3322661680189256
-0.3304268713681145,-0.3304268713681145
-0.3322661680189256,-0.3322661680189256
-0.3506591345270369,-0.3506591345270369
-0.3322661680189256,-0.3322661680189256
-0.2580812031028769,-0.2580812031028769
-0.13852692080015375,-0.13852692080015375
-0.06311575811689758,-0.06311575811689758
-0.041044198307164076,-0.041044198307164076
-0.028169121751486198,-0.028169121751486198
0.05582542530222187,0.05582542530222187
0.16863561988530423,0.16863561988530423
0.25017777140459746,0.25017777140459746
0.27838032005036806,0.27838032005036806
0.3470473950139834,0.3470473950139834
0.4616968862478769,0.4616968862478769
0.541399741116359,0.541399741116359
0.4800898527559882,0.4800898527559882
0.3470473950139834,0.3470473950139834
0.2514039691718049,0.2514039691718049
0.25017777140459746,0.25017777140459746
0.26060045242586055,0.26060045242586055
0.25017777140459746,0.25017777140459746
0.22810621159486397,0.22810621159486397
0.25017777140459746,0.25017777140459746
0.2728624300979347,0.2728624300979347
0.25017777140459746,0.25017777140459746
0.1508557522607967,0.1508557522607967
0.05582542530222187,0.05582542530222187
0.02026569005320678,0.02026569005320678
0.05582542530222187,0.05582542530222187
0.08096247952997392,0.08096247952997392
0.05582542530222187,0.05582542530222187
-0.03675250612193812,-0.03675250612193812
-0.13852692080015375,-0.13852692080015375
-0.2237476656210692,-0.2237476656210692
-0.2353965444095397,-0.2353965444095397
-0.20596779799656167,-0.20596779799656167
-0.13852692080015375,-0.13852692080015375
-0.08886591122825334,-0.08886591122825334
-0.041044198307164076,-0.041044198307164076
-0.02694292398427878,-0.02694292398427878
-0.041044198307164076,-0.041044198307164076
-0.07108604360374579,-0.07108604360374579
-0.041044198307164076,-0.041044198307164076
-0.018359539613826862,-0.018359539613826862
-0.13852692080015375,-0.13852692080015375
-0.4849277900362491,-0.4849277900362491
-0.9147101074424487,-0.9147101074424487
-1.2874742286735035,-1.2874742286735035
-1.4971540468659719,-1.4971540468659719
-1.4113202031614527,-1.4113202031614527
-0.8178404838330628,-0.8178404838330628
0.23668959596531589,0.23668959596531589
1.5119352738610297,1.5119352738610297
2.858913521138377,2.858913521138377
4.229189525992666,4.229189525992666
5.1028554351279505,5.1028554351279505
4.714763841806803,4.714763841806803
3.0410038895686786,3.0410038895686786
1.2207133041492682,1.2207133041492682
0.32988062627307957,0.32988062627307957
0.3470473950139834,0.3470473950139834
0.5297508623278886,0.5297508623278886
0.541399741116359,0.541399741116359
0.47089336950193256,0.47089336950193256
0.3470473950139834,0.3470473950139834
0.03743245879411062,0.03743245879411062
-0.3322661680189256,-0.3322661680189256
-0.5296840085393197,-0.5296840085393197
-0.5266185141213012,-0.5266185141213012
-0.5339757007245457,-0.5339757007245457
-0.6234881377306872,-0.6234881377306872
-0.7166791680384509,-0.7166791680384509
-0.7203577613400731,-0.7203577613400731
-0.6774408394878135,-0.6774408394878135
-0.6234881377306872,-0.6234881377306872
-0.6124523578258204,-0.6124523578258204
-0.6234881377306872,-0.6234881377306872
-0.653529983027269,-0.653529983027269
-0.6234881377306872,-0.6234881377306872
-0.5401066895605828,-0.5401066895605828
-0.4297488905119153,-0.4297488905119153
-0.3856057708924483,-0.3856057708924483
-0.4297488905119153,-0.4297488905119153
-0.5413328873277903,-0.5413328873277903
-0.6234881377306872,-0.6234881377306872
-0.649238290842043,-0.649238290842043
-0.6234881377306872,-0.6234881377306872
-0.6155178522438389,-0.6155178522438389
-0.6234881377306872,-0.6234881377306872
-0.6388156098207799,-0.6388156098207799
-0.6234881377306872,-0.6234881377306872
-0.6155178522438389,-0.6155178522438389
-0.6234881377306872,-0.6234881377306872
-0.6467858953076281,-0.6467858953076281
-0.6234881377306872,-0.6234881377306872
-0.5738271281587868,-0.5738271281587868
-0.5266185141213012,-0.5266185141213012
-0.5027076576607566,-0.5027076576607566
-0.4297488905119153,-0.4297488905119153
-0.31939109146324773,-0.31939109146324773
-0.2353965444095397,-0.2353965444095397
-0.23478344552593597,-0.23478344552593597
-0.2353965444095397,-0.2353965444095397
-0.19615821585890234,-0.19615821585890234
-0.13852692080015375,-0.13852692080015375
-0.11155056992159056,-0.11155056992159056
-0.041044198307164076,-0.041044198307164076
0.1011947426888963,0.1011947426888963
0.25017777140459746,0.25017777140459746
0.28451130888640513,0.28451130888640513
0.25017777140459746,0.25017777140459746
0.24956467252099376,0.24956467252099376
0.3470473950139834,0.3470473950139834
0.4653754795494992,0.4653754795494992
0.541399741116359,0.541399741116359
0.5254591701426626,0.5254591701426626
0.44391701862336935,0.44391701862336935
0.3255889340878536,0.3255889340878536
0.25017777140459746,0.25017777140459746
0.2287193104784677,0.2287193104784677
0.25017777140459746,0.25017777140459746
0.25569566135703087,0.25569566135703087
0.25017777140459746,0.25017777140459746
0.21155254173756385,0.21155254173756385
0.15269504891160782,0.15269504891160782
0.08034938064637022,0.08034938064637022
0.05582542530222187,0.05582542530222187
0.06011711748744783,0.06011711748744783
0.05582542530222187,0.05582542530222187
3.342689428439532e-05,3.342689428439532e-05
-0.041044198307164076,-0.041044198307164076
-0.04901448379401229,-0.04901448379401229
-0.041044198307164076,-0.041044198307164076
-0.08396112015942367,-0.08396112015942367
-0.13852692080015375,-0.13852692080015375
-0.16672946944592432,-0.16672946944592432
-0.13852692080015375,-0.13852692080015375
-0.09928859224951639,-0.09928859224951639
-0.041044198307164076,-0.041044198307164076
0.013521602333565983,0.013521602333565983
0.05582542530222187,0.05582542530222187
0.029462173307262404,0.029462173307262404
-0.041044198307164076,-0.041044198307164076
-0.12013395429204247,-0.12013395429204247
-0.13852692080015375,-0.13852692080015375
-0.1072588777363646,-0.1072588777363646
-0.041044198307164076,-0.041044198307164076
0.009843009031943732,0.009843009031943732
0.05582542530222187,0.05582542530222187
0.0944506549692555,0.0944506549692555
0.15269504891160782,0.15269504891160782
0.21032634397035643,0.21032634397035643
0.25017777140459746,0.25017777140459746
0.22565381606044912,0.22565381606044912
0.15269504891160782,0.15269504891160782
0.06563500743988121,0.06563500743988121
0.05582542530222187,0.05582542530222187
0.12817109356745948,0.12817109356745948
0.25017777140459746,0.25017777140459746
0.29677328655847934,0.29677328655847934
0.25017777140459746,0.25017777140459746
0.13430208240349656,0.13430208240349656
0.05582542530222187,0.05582542530222187
0.033753865492488364,0.033753865492488364
0.05582542530222187,0.05582542530222187
0.0435634476301477,0.0435634476301477
-0.041044198307164076,-0.041044198307164076
-0.25992049975368803,-0.25992049975368803
-0.6234881377306872,-0.6234881377306872
-1.120711332333295,-1.120711332333295
-1.5940236704753579,-1.5940236704753579
-1.8398763228004449,-1.8398763228004449
-1.6915063929683474,-1.6915063929683474
-1.1930570005985324,-1.1930570005985324
-0.4297488905119153,-0.4297488905119153
0.5855428607358261,0.5855428607358261
1.9000268671821772,1.9000268671821772
3.2623325865496176,3.2623325865496176
4.13231990238328,4.13231990238328
4.010313224546142,4.010313224546142
2.967432023536234,2.967432023536234
1.5646617778509486,1.5646617778509486
0.44391701862336935,0.44391701862336935
-0.16059848060988724,-0.16059848060988724
-0.3322661680189256,-0.3322661680189256
-0.2574681042192732,-0.2574681042192732
-0.041044198307164076,-0.041044198307164076
0.12571869803304464,0.12571869803304464
0.05582542530222187,0.05582542530222187
-0.28321825733062894,-0.28321825733062894
-0.6234881377306872,-0.6234881377306872
-0.733232837895751,-0.733232837895751
-0.6234881377306872,-0.6234881377306872
-0.49780286659192696,-0.49780286659192696
-0.4297488905119153,-0.4297488905119153
-0.3856057708924483,-0.3856057708924483
-0.3322661680189256,-0.3322661680189256
-0.3218434869976626,-0.3218434869976626
-0.3322661680189256,-0.3322661680189256
-0.34698054122541466,-0.34698054122541466
-0.3322661680189256,-0.3322661680189256
-0.33349236578613306,-0.33349236578613306
-0.3322661680189256,-0.3322661680189256
-0.3665997055007333,-0.3665997055007333
-0.4297488905119153,-0.4297488905119153
-0.4806360978510231,-0.4806360978510231
-0.4297488905119153,-0.4297488905119153
-0.36108181554829993,-0.36108181554829993
-0.4297488905119153,-0.4297488905119153
-0.6615002685141171,-0.6615002685141171
-0.8178404838330628,-0.8178404838330628
-0.7675663753775587,-0.7675663753775587
-0.6234881377306872,-0.6234881377306872
-0.5867022047144647,-0.5867022047144647
-0.6234881377306872,-0.6234881377306872
-0.6400418075879873,-0.6400418075879873
-0.6234881377306872,-0.6234881377306872
-0.6412680053551948,-0.6412680053551948
-0.6234881377306872,-0.6234881377306872
-0.5333626018409421,-0.5333626018409421
-0.4297488905119153,-0.4297488905119153
-0.41748691283984113,-0.41748691283984113
-0.4297488905119153,-0.4297488905119153
-0.3984808474481262,-0.3984808474481262
-0.3322661680189256,-0.3322661680189256
-0.29731953165351427,-0.29731953165351427
-0.2353965444095397,-0.2353965444095397
-0.13300903084772037,-0.13300903084772037
-0.041044198307164076,-0.041044198307164076
-0.01038925412697865,-0.01038925412697865
0.05582542530222187,0.05582542530222187
0.17108801541971908,0.17108801541971908
0.25017777140459746,0.25017777140459746
0.2311717060128825,0.2311717060128825
0.25017777140459746,0.25017777140459746
0.3574700760352465,0.3574700760352465
0.44391701862336935,0.44391701862336935
0.39793460235309125,0.39793460235309125
0.3470473950139834,0.3470473950139834
0.3887381190990356,0.3887381190990356
0.44391701862336935,0.44391701862336935
0.3685058559401132,0.3685058559401132
0.25017777140459746,0.25017777140459746
0.21032634397035643,0.21032634397035643
0.25017777140459746,0.25017777140459746
0.25692185912423826,0.25692185912423826
0.25017777140459746,0.25017777140459746
0.2563087602406346,0.2563087602406346
0.25017777140459746,0.25017777140459746
0.1575998399804375,0.1575998399804375
0.05582542530222187,0.05582542530222187
0.019652591169603068,0.019652591169603068
0.05582542530222187,0.05582542530222187
0.06808740297429604,0.06808740297429604
0.05582542530222187,0.05582542530222187
0.04049795321212916,0.04049795321212916
0.05582542530222187,0.05582542530222187
0.058277820836636705,0.058277820836636705
0.05582542530222187,0.05582542530222187
0.04601584316456254,0.04601584316456254
0.05582542530222187,0.05582542530222187
0.05582542530222187,0.05582542530222187
0.05582542530222187,0.05582542530222187
0.04601584316456254,0.04601584316456254
0.05582542530222187,0.05582542530222187
0.058277820836636705,0.058277820836636705
0.05582542530222187,0.05582542530222187
0.03988485432852545,0.03988485432852545
0.05582542530222187,0.05582542530222187
0.07360529292672942,0.07360529292672942
0.05582542530222187,0.05582542530222187
-0.03981800053995666,-0.03981800053995666
-0.13852692080015375,-0.13852692080015375
-0.1789914471179985,-0.1789914471179985
-0.13852692080015375,-0.13852692080015375
-0.08396112015942367,-0.08396112015942367
-0.041044198307164076,-0.041044198307164076
-0.0355263083547307,-0.0355263083547307
-0.041044198307164076,-0.041044198307164076
-0.05821096704806791,-0.05821096704806791
-0.041044198307164076,-0.041044198307164076
-0.03246081393671216,-0.03246081393671216
-0.041044198307164076,-0.041044198307164076
-0.07292534025455692,-0.07292534025455692
-0.041044198307164076,-0.041044198307164076
0.023944283354829028,0.023944283354829028
0.05582542530222187,0.05582542530222187
0.029462173307262404,0.029462173307262404
0.05582542530222187,0.05582542530222187
0.11774841254619643,0.11774841254619643
0.05582542530222187,0.05582542530222187
-0.2721824774257622,-0.2721824774257622
-0.7203577613400731,-0.7203577613400731
-1.0722765205286018,-1.0722765205286018
-1.2059320771542104,-1.2059320771542104
-1.1397173977250097,-1.1397173977250097
-0.8178404838330628,-0.8178404838330628
-0.171634260514754,-0.171634260514754
0.8326217108281206,0.8326217108281206
2.0815041367288747,2.0815041367288747
3.356136715740985,3.356136715740985
4.220606141622214,4.220606141622214
4.229189525992666,4.229189525992666
3.217576368046547,3.217576368046547
1.6088048974704157,1.6088048974704157
0.1373675768215151,0.1373675768215151
-0.6234881377306872,-0.6234881377306872
-0.6866373227418692,-0.6866373227418692
-0.4297488905119153,-0.4297488905119153
-0.21884287455223955,-0.21884287455223955
-0.13852692080015375,-0.13852692080015375
-0.2071939957637691,-0.2071939957637691
-0.4297488905119153,-0.4297488905119153
-0.7399769256153919,-0.7399769256153919
-0.9147101074424487,-0.9147101074424487
-0.8907992509819042,-0.8907992509819042
-0.8178404838330628,-0.8178404838330628
-0.8331679559231555,-0.8331679559231555
-0.8178404838330628,-0.8178404838330628
-0.703804091482773,-0.703804091482773
-0.6234881377306872,-0.6234881377306872
-0.7191315635728657,-0.7191315635728657
-0.8178404838330628,-0.8178404838330628
-0.7651139798431439,-0.7651139798431439
-0.6234881377306872,-0.6234881377306872
-0.5916069957832943,-0.5916069957832943
-0.6234881377306872,-0.6234881377306872
-0.6314584232175354,-0.6314584232175354
-0.6234881377306872,-0.6234881377306872
-0.6547561807944763,-0.6547561807944763
-0.6234881377306872,-0.6234881377306872
-0.5100648442640011,-0.5100648442640011
-0.4297488905119153,-0.4297488905119153
-0.4830884933854379,-0.4830884933854379
-0.5266185141213012,-0.5266185141213012
-0.4738920101313823,-0.4738920101313823
-0.4297488905119153,-0.4297488905119153
-0.5266185141213012,-0.5266185141213012
-0.6234881377306872,-0.6234881377306872
-0.571374732624372,-0.571374732624372
-0.4297488905119153,-0.4297488905119153
-0.4138083195382189,-0.4138083195382189
-0.5266185141213012,-0.5266185141213012
-0.6339108187519502,-0.6339108187519502
-0.6234881377306872,-0.6234881377306872
-0.541945986211394,-0.541945986211394
-0.4297488905119153,-0.4297488905119153
-0.3292006736009071,-0.3292006736009071
-0.2353965444095397,-0.2353965444095397
-0.15201509623943532,-0.15201509623943532
-0.041044198307164076,-0.041044198307164076
0.04662894204816624,0.04662894204816624
0.05582542530222187,0.05582542530222187
-0.01958573738103428,-0.01958573738103428
-0.041044198307164076,-0.041044198307164076
0.0650219085562775,0.0650219085562775
0.25017777140459746,0.25017777140459746
0.3537914827336242,0.3537914827336242
0.3470473950139834,0.3470473950139834
0.3071959675797424,0.3071959675797424
0.3470473950139834,0.3470473950139834
0.4230716565808433,0.4230716565808433
0.44391701862336935,0.44391701862336935
0.3556307793844353,0.3556307793844353
0.25017777140459746,0.25017777140459746
0.18273689420818953,0.18273689420818953
0.15269504891160782,0.15269504891160782
0.1011947426888963,0.1011947426888963
0.05582542530222187,0.05582542530222187
0.014134701217169691,0.014134701217169691
-0.041044198307164076,-0.041044198307164076
-0.14649720628700194,-0.14649720628700194
