ECG,PPG
-2.556068789801799,-2.556068789801799
-2.354474817570973,-2.354474817570973
-2.355277980806952,-2.355277980806952
-2.2564889027814874,-2.2564889027814874
-1.850891468611897,-1.850891468611897
-1.2902835298982844,-1.2902835298982844
-0.8437247706937452,-0.8437247706937452
-0.5939410043041558,-0.5939410043041558
-0.38993754236539135,-0.38993754236539135
-0.1473822450996164,-0.1473822450996164
0.06304652272698308,0.06304652272698308
0.16745774340430342,0.16745774340430342
0.2646404949578093,0.2646404949578093
0.43812375392935693,0.43812375392935693
0.6172291555527604,0.6172291555527604
0.6662221129475029,0.6662221129475029
0.6172291555527604,0.6172291555527604
0.5859057893495642,0.5859057893495642
0.6172291555527604,0.6172291555527604
0.6477493585199771,0.6477493585199771
0.6678284394194617,0.6678284394194617
0.6943328262067815,0.6943328262067815
0.7184277232861631,0.7184277232861631
0.658190480587709,0.658190480587709
0.5168337510553369,0.5168337510553369
0.3923434494785319,0.3923434494785319
0.4156351833219341,0.4156351833219341
0.5650235452141001,0.5650235452141001
0.7184277232861631,0.7184277232861631
0.7706333336248233,0.7706333336248233
0.7682238439168851,0.7682238439168851
0.7489479262533798,0.7489479262533798
0.7184277232861631,0.7184277232861631
0.6774663982512144,0.6774663982512144
0.7184277232861631,0.7184277232861631
0.8268547601433804,0.8268547601433804
0.9200216955169893,0.9200216955169893
0.9722273058556495,0.9722273058556495
1.1208125045118362,1.1208125045118362
1.342485557642147,1.342485557642147
1.423605044476065,1.423605044476065
1.228436378133074,1.228436378133074
0.9698178161477113,0.9698178161477113
0.8621939425264734,0.8621939425264734
0.8694224116502879,0.8694224116502879
0.8123978218957514,0.8123978218957514
0.7184277232861631,0.7184277232861631
0.676663235015235,0.676663235015235
0.6678284394194617,0.6678284394194617
0.5658267084500795,0.5658267084500795
0.4156351833219341,0.4156351833219341
0.334515696488016,0.334515696488016
0.3658390626912121,0.3658390626912121
0.3810991641748204,0.3810991641748204
0.3152397788245107,0.3152397788245107
0.20360008902337584,0.20360008902337584
0.16424509046038588,0.16424509046038588
0.19074947724770566,0.19074947724770566
0.21404121109110788,0.21404121109110788
0.15460713162863324,0.15460713162863324
0.06304652272698308,0.06304652272698308
0.00039979032059086697,0.00039979032059086697
0.013250402096261063,0.013250402096261063
0.06063703301904491,0.06063703301904491
0.11364580659368448,0.11364580659368448
0.08633825657038531,0.08633825657038531
-0.03734888177044034,-0.03734888177044034
-0.16183918334724537,-0.16183918334724537
-0.08794816563714174,-0.08794816563714174
0.1827178448879118,0.1827178448879118
0.4156351833219341,0.4156351833219341
0.3802960009388411,0.3802960009388411
0.16424509046038588,0.16424509046038588
0.018872544748116775,0.018872544748116775
0.06304652272698308,0.06304652272698308
0.16504825369636528,0.16504825369636528
0.16424509046038588,0.16424509046038588
0.02288836092801371,0.02288836092801371
-0.13854744950384312,-0.13854744950384312
-0.1779024480668331,-0.1779024480668331
-0.03734888177044034,-0.03734888177044034
0.13452805072914856,0.13452805072914856
0.16424509046038588,0.16424509046038588
0.034132646231725135,0.034132646231725135
-0.08794816563714174,-0.08794816563714174
-0.19557203925837963,-0.19557203925837963
-0.4405368262320928,-0.4405368262320928
-0.8782607898408589,-0.8782607898408589
-1.2967088357861196,-1.2967088357861196
-1.5922729066265342,-1.5922729066265342
-1.9014907524785982,-1.9014907524785982
-2.363309613166746,-2.363309613166746
-2.8082620458993266,-2.8082620458993266
-3.0749122402444833,-3.0749122402444833
-3.211449990360979,-3.211449990360979
-3.325499169870052,-3.325499169870052
-3.2620492742276803,-3.2620492742276803
-2.865286635653863,-2.865286635653863
-2.254079413073549,-2.254079413073549
-1.7408581052827208,-1.7408581052827208
-1.3979074035195225,-1.3979074035195225
-1.0870832311954994,-1.0870832311954994
-0.6927300823296204,-0.6927300823296204
-0.32006234083518464,-0.32006234083518464
-0.08794816563714174,-0.08794816563714174
-0.01807296410693504,-0.01807296410693504
0.013250402096261063,0.013250402096261063
0.09677937863811735,0.09677937863811735
0.2646404949578093,0.2646404949578093
0.4405332436372951,0.4405332436372951
0.5674330349220383,0.5674330349220383
0.6172291555527604,0.6172291555527604
0.6172291555527604,0.6172291555527604
0.548157117258533,0.548157117258533
0.4156351833219341,0.4156351833219341
0.28391641262131456,0.28391641262131456
0.2646404949578093,0.2646404949578093
0.34254732884780986,0.34254732884780986
0.4156351833219341,0.4156351833219341
0.44535222305317146,0.44535222305317146
0.5168337510553369,0.5168337510553369
0.6116070129009046,0.6116070129009046
0.6172291555527604,0.6172291555527604
0.523259056943172,0.523259056943172
0.5168337510553369,0.5168337510553369
0.6260639511485335,0.6260639511485335
0.6678284394194617,0.6678284394194617
0.5497634437304918,0.5497634437304918
0.5168337510553369,0.5168337510553369
0.6991518056226578,0.6991518056226578
0.8694224116502879,0.8694224116502879
0.7409162938935859,0.7409162938935859
0.4662344671886355,0.4662344671886355
0.369854878871109,0.369854878871109
0.5168337510553369,0.5168337510553369
0.6461430320480183,0.6461430320480183
0.6172291555527604,0.6172291555527604
0.49595150691987283,0.49595150691987283
0.4156351833219341,0.4156351833219341
0.3690517156351296,0.3690517156351296
0.3152397788245107,0.3152397788245107
0.22367916992286055,0.22367916992286055
0.16424509046038588,0.16424509046038588
0.21484437432708728,0.21484437432708728
0.4156351833219341,0.4156351833219341
0.6108038496649252,0.6108038496649252
0.6172291555527604,0.6172291555527604
0.4035877347822433,0.4035877347822433
0.16424509046038588,0.16424509046038588
0.02288836092801371,0.02288836092801371
-0.03734888177044034,-0.03734888177044034
-0.0895544921091005,-0.0895544921091005
-0.08794816563714174,-0.08794816563714174
-0.04377418765827543,-0.04377418765827543
-0.03734888177044034,-0.03734888177044034
-0.11766520536837907,-0.11766520536837907
-0.13854744950384312,-0.13854744950384312
-0.022088780286831977,-0.022088780286831977
0.11364580659368448,0.11364580659368448
0.0614401962550243,0.0614401962550243
-0.13854744950384312,-0.13854744950384312
-0.2718725466764214,-0.2718725466764214
-0.18834357013456515,-0.18834357013456515
-0.016466637634976265,-0.016466637634976265
0.06304652272698308,0.06304652272698308
0.004415606500487804,0.004415606500487804
-0.03734888177044034,-0.03734888177044034
0.027707340343890035,0.027707340343890035
0.16424509046038588,0.16424509046038588
0.2517898831821391,0.2517898831821391
0.2646404949578093,0.2646404949578093
0.17870202870801485,0.17870202870801485
0.013250402096261063,0.013250402096261063
-0.13372847008796682,-0.13372847008796682
-0.08794816563714174,-0.08794816563714174
0.09758254187409673,0.09758254187409673
0.16424509046038588,0.16424509046038588
-0.044577350894254825,-0.044577350894254825
-0.28954213786796795,-0.28954213786796795
-0.2734788731483802,-0.2734788731483802
0.013250402096261063,0.013250402096261063
0.28552273909327336,0.28552273909327336
0.3658390626912121,0.3658390626912121
0.25259304641811847,0.25259304641811847
0.06304652272698308,0.06304652272698308
-0.11686204213239967,-0.11686204213239967
-0.18834357013456515,-0.18834357013456515
-0.14336642891971946,-0.14336642891971946
-0.03734888177044034,-0.03734888177044034
0.02047887122007555,0.02047887122007555
0.013250402096261063,0.013250402096261063
-0.05582163619796624,-0.05582163619796624
-0.13854744950384312,-0.13854744950384312
-0.19075305984250332,-0.19075305984250332
-0.13854744950384312,-0.13854744950384312
-0.005222352331264844,-0.005222352331264844
0.11364580659368448,0.11364580659368448
0.12408692866141652,0.12408692866141652
0.06304652272698308,0.06304652272698308
0.006825096208425965,0.006825096208425965
0.013250402096261063,0.013250402096261063
0.07027499185079757,0.07027499185079757
0.16424509046038588,0.16424509046038588
0.24134876111440706,0.24134876111440706
0.2646404949578093,0.2646404949578093
0.22528549639481932,0.22528549639481932
0.21404121109110788,0.21404121109110788
0.29275120821708783,0.29275120821708783
0.4156351833219341,0.4156351833219341
0.40519406125420204,0.40519406125420204
0.16424509046038588,0.16424509046038588
-0.2477776495970398,-0.2477776495970398
-0.642130798462919,-0.642130798462919
-0.9658055825626121,-0.9658055825626121
-1.2967088357861196,-1.2967088357861196
-1.7239916773271537,-1.7239916773271537
-2.1536840085761257,-2.1536840085761257
-2.4604923647202517,-2.4604923647202517
-2.6066680736685,-2.6066680736685
-2.6934097031542743,-2.6934097031542743
-2.7576627620326253,-2.7576627620326253
-2.773726026752213,-2.773726026752213
-2.6572673575352015,-2.6572673575352015
-2.405074101437674,-2.405074101437674
-2.052485440842723,-2.052485440842723
-1.703912596427669,-1.703912596427669
-1.3979074035195225,-1.3979074035195225
-1.1119812915108604,-1.1119812915108604
-0.7425262029603424,-0.7425262029603424
-0.2863294849240504,-0.2863294849240504
0.16424509046038588,0.16424509046038588
0.44133640687327447,0.44133640687327447
0.5168337510553369,0.5168337510553369
0.4686439568965737,0.4686439568965737
0.4156351833219341,0.4156351833219341
0.34094100237585107,0.34094100237585107
0.21404121109110788,0.21404121109110788
0.10079519481801429,0.10079519481801429
0.16424509046038588,0.16424509046038588
0.39957191860234637,0.39957191860234637
0.6172291555527604,0.6172291555527604
0.6477493585199771,0.6477493585199771
0.5674330349220383,0.5674330349220383
0.5160305878193575,0.5160305878193575
0.5168337510553369,0.5168337510553369
0.47587242602038815,0.47587242602038815
0.4156351833219341,0.4156351833219341
0.4333047745134806,0.4333047745134806
0.5674330349220383,0.5674330349220383
0.68308854090307,0.68308854090307
0.6678284394194617,0.6678284394194617
0.5264717098870896,0.5264717098870896
0.4156351833219341,0.4156351833219341
0.43250161127750125,0.43250161127750125
0.5674330349220383,0.5674330349220383
0.6718442555993587,0.6718442555993587
0.6678284394194617,0.6678284394194617
0.5746615040458528,0.5746615040458528
0.5168337510553369,0.5168337510553369
0.5369128319548215,0.5369128319548215
0.6172291555527604,0.6172291555527604
0.68308854090307,0.68308854090307
0.7184277232861631,0.7184277232861631
0.6919233364988433,0.6919233364988433
0.6172291555527604,0.6172291555527604
0.5264717098870896,0.5264717098870896
0.5168337510553369,0.5168337510553369
0.5883152790575024,0.5883152790575024
0.6678284394194617,0.6678284394194617
0.6605999702956472,0.6605999702956472
0.6172291555527604,0.6172291555527604
0.5955437481813168,0.5955437481813168
0.6172291555527604,0.6172291555527604
0.6308829305644099,0.6308829305644099
0.6172291555527604,0.6172291555527604
0.5184400775272957,0.5184400775272957
0.3152397788245107,0.3152397788245107
0.07107815508677695,0.07107815508677695
-0.03734888177044034,-0.03734888177044034
0.006825096208425965,0.006825096208425965
0.06304652272698308,0.06304652272698308
0.010037749152343515,0.010037749152343515
-0.03734888177044034,-0.03734888177044034
0.02931366681584881,0.02931366681584881
0.16424509046038588,0.16424509046038588
0.21805702727100482,0.21805702727100482
0.21404121109110788,0.21404121109110788
0.2381361081704895,0.2381361081704895
0.3152397788245107,0.3152397788245107
0.35057896120760373,0.35057896120760373
0.3152397788245107,0.3152397788245107
0.20279692578739647,0.20279692578739647
0.06304652272698308,0.06304652272698308
-0.036545718534460946,-0.036545718534460946
0.013250402096261063,0.013250402096261063
0.1754893757640973,0.1754893757640973
0.3152397788245107,0.3152397788245107
0.320058758240387,0.320058758240387
0.2646404949578093,0.2646404949578093
0.21484437432708728,0.21484437432708728
0.16424509046038588,0.16424509046038588
0.08071611391852959,0.08071611391852959
0.06304652272698308,0.06304652272698308
0.156213458100592,0.156213458100592
0.2646404949578093,0.2646404949578093
0.22367916992286055,0.22367916992286055
0.06304652272698308,0.06304652272698308
-0.06305010532178074,-0.06305010532178074
-0.03734888177044034,-0.03734888177044034
0.08071611391852959,0.08071611391852959
0.16424509046038588,0.16424509046038588
0.09838570511007612,0.09838570511007612
-0.08794816563714174,-0.08794816563714174
-0.23653336429332839,-0.23653336429332839
-0.18834357013456515,-0.18834357013456515
-0.01807296410693504,-0.01807296410693504
0.06304652272698308,0.06304652272698308
-0.023695106758790753,-0.023695106758790753
-0.08794816563714174,-0.08794816563714174
-0.005222352331264844,-0.005222352331264844
0.11364580659368448,0.11364580659368448
0.06063703301904491,0.06063703301904491
-0.13854744950384312,-0.13854744950384312
-0.34415723791456626,-0.34415723791456626
-0.49113611009879415,-0.49113611009879415
-0.6846984499698265,-0.6846984499698265
-0.99471945905787,-0.99471945905787
-1.4509161770941619,-1.4509161770941619
-2.001886156976022,-2.001886156976022
-2.562494095689634,-2.562494095689634
-2.9592567342634513,-2.9592567342634513
-3.1134640755714935,-3.1134640755714935
-3.0604553019968543,-3.0604553019968543
-2.9070511239247914,-2.9070511239247914
-2.6572673575352015,-2.6572673575352015
-2.3111040028280856,-2.3111040028280856
-1.9014907524785982,-1.9014907524785982
-1.5207913786243688,-1.5207913786243688
-1.1963134312886963,-1.1963134312886963
-0.9537581340229212,-0.9537581340229212
-0.7425262029603424,-0.7425262029603424
-0.45820641742363927,-0.45820641742363927
0.013250402096261063,0.013250402096261063
0.5184400775272957,0.5184400775272957
0.7682238439168851,0.7682238439168851
0.6461430320480183,0.6461430320480183
0.4156351833219341,0.4156351833219341
0.3248777376562633,0.3248777376562633
0.3658390626912121,0.3658390626912121
0.3891307965346143,0.3891307965346143
0.4156351833219341,0.4156351833219341
0.4935420172119347,0.4935420172119347
0.5674330349220383,0.5674330349220383
0.5489602804945124,0.5489602804945124
0.5168337510553369,0.5168337510553369
0.5537792599103887,0.5537792599103887
0.6172291555527604,0.6172291555527604
0.6019690540691519,0.6019690540691519
0.5674330349220383,0.5674330349220383
0.6100006864289458,0.6100006864289458
0.7184277232861631,0.7184277232861631
0.7449321100734829,0.7449321100734829
0.6678284394194617,0.6678284394194617
0.5987564011252344,0.5987564011252344
0.6678284394194617,0.6678284394194617
0.8043661895359575,0.8043661895359575
0.8694224116502879,0.8694224116502879
0.7963345571761636,0.7963345571761636
0.7184277232861631,0.7184277232861631
0.747341599781421,0.747341599781421
0.8694224116502879,0.8694224116502879
0.9409039396524534,0.9409039396524534
0.9200216955169893,0.9200216955169893
0.8517528204587415,0.8517528204587415
0.8188231277835866,0.8188231277835866
0.7955313939401842,0.7955313939401842
0.7682238439168851,0.7682238439168851
0.7561763953771943,0.7561763953771943
0.8188231277835866,0.8188231277835866
0.8919109822577108,0.8919109822577108
0.8694224116502879,0.8694224116502879
0.7095929276903898,0.7095929276903898
0.5674330349220383,0.5674330349220383
0.5883152790575024,0.5883152790575024
0.7682238439168851,0.7682238439168851
0.8983362881455459,0.8983362881455459
0.8188231277835866,0.8188231277835866
0.5304875260669865,0.5304875260669865
0.21404121109110788,0.21404121109110788
0.018069381512137387,0.018069381512137387
0.013250402096261063,0.013250402096261063
0.14015019338100426,0.14015019338100426
0.3152397788245107,0.3152397788245107
0.39876875536636697,0.39876875536636697
0.3152397788245107,0.3152397788245107
0.07107815508677695,0.07107815508677695
-0.18834357013456515,-0.18834357013456515
-0.3698584614659067,-0.3698584614659067
-0.4405368262320928,-0.4405368262320928
-0.42126090856858744,-0.42126090856858744
-0.28954213786796795,-0.28954213786796795
-0.1345316333239462,-0.1345316333239462
-0.08794816563714174,-0.08794816563714174
-0.1915562230784827,-0.1915562230784827
-0.28954213786796795,-0.28954213786796795
-0.31363703494734957,-0.31363703494734957
-0.3401414217346693,-0.3401414217346693
-0.4188514188606493,-0.4188514188606493
-0.38993754236539135,-0.38993754236539135
-0.18031193777477128,-0.18031193777477128
0.06304652272698308,0.06304652272698308
0.12970907131327222,0.12970907131327222
0.06304652272698308,0.06304652272698308
-0.006025515567244231,-0.006025515567244231
-0.03734888177044034,-0.03734888177044034
-0.08312918622126542,-0.08312918622126542
-0.08794816563714174,-0.08794816563714174
-0.016466637634976265,-0.016466637634976265
0.06304652272698308,0.06304652272698308
0.018872544748116775,0.018872544748116775
-0.08794816563714174,-0.08794816563714174
-0.08071969651332725,-0.08071969651332725
0.11364580659368448,0.11364580659368448
0.27267212731760315,0.27267212731760315
0.16424509046038588,0.16424509046038588
-0.16906765247105984,-0.16906765247105984
-0.38993754236539135,-0.38993754236539135
-0.3072117290595145,-0.3072117290595145
-0.03734888177044034,-0.03734888177044034
0.17147355958420035,0.17147355958420035
0.2646404949578093,0.2646404949578093
0.2662468214297681,0.2662468214297681
0.16424509046038588,0.16424509046038588
-0.07509755386147154,-0.07509755386147154
-0.28954213786796795,-0.28954213786796795
-0.2919516275759061,-0.2919516275759061
-0.08794816563714174,-0.08794816563714174
0.055014890367189206,0.055014890367189206
-0.03734888177044034,-0.03734888177044034
-0.2734788731483802,-0.2734788731483802
-0.38993754236539135,-0.38993754236539135
-0.3184560143632259,-0.3184560143632259
-0.18834357013456515,-0.18834357013456515
-0.1473822450996164,-0.1473822450996164
-0.13854744950384312,-0.13854744950384312
-0.07268806415353338,-0.07268806415353338
0.013250402096261063,0.013250402096261063
-0.029317249410646465,-0.029317249410646465
-0.18834357013456515,-0.18834357013456515
-0.2742820363843596,-0.2742820363843596
-0.13854744950384312,-0.13854744950384312
0.08553509333440593,0.08553509333440593
0.16424509046038588,0.16424509046038588
0.05340856389523043,0.05340856389523043
-0.03734888177044034,-0.03734888177044034
-0.0012065361513679076,-0.0012065361513679076
0.06304652272698308,0.06304652272698308
0.03493580946770452,0.03493580946770452
0.013250402096261063,0.013250402096261063
0.07670029773863266,0.07670029773863266
0.11364580659368448,0.11364580659368448
-0.09838928770487378,-0.09838928770487378
-0.5409322307295161,-0.5409322307295161
-1.0324681311489012,-1.0324681311489012
-1.4477035241502445,-1.4477035241502445
-1.8733800392193196,-1.8733800392193196
-2.355277980806952,-2.355277980806952
-2.7954114341236562,-2.7954114341236562
-3.0098560181301526,-3.0098560181301526
-2.9809421416348947,-2.9809421416348947
-2.8082620458993266,-2.8082620458993266
-2.5849826662970568,-2.5849826662970568
-2.254079413073549,-2.254079413073549
-1.791457389149422,-1.791457389149422
-1.2967088357861196,-1.2967088357861196
-0.9730340516864265,-0.9730340516864265
-0.8437247706937452,-0.8437247706937452
-0.7577863044439508,-0.7577863044439508
-0.5409322307295161,-0.5409322307295161
-0.25259662901291613,-0.25259662901291613
-0.03734888177044034,-0.03734888177044034
0.05903070654708614,0.05903070654708614
0.16424509046038588,0.16424509046038588
0.28632590232925276,0.28632590232925276
0.3152397788245107,0.3152397788245107
0.21082855814719034,0.21082855814719034
0.16424509046038588,0.16424509046038588
0.2774911067334795,0.2774911067334795
0.4156351833219341,0.4156351833219341
0.3899339597705937,0.3899339597705937
0.2646404949578093,0.2646404949578093
0.18512733459584996,0.18512733459584996
0.16424509046038588,0.16424509046038588
0.12408692866141652,0.12408692866141652
0.11364580659368448,0.11364580659368448
0.18030835517997362,0.18030835517997362
0.2646404949578093,0.2646404949578093
0.270262637609665,0.270262637609665
0.2646404949578093,0.2646404949578093
0.3224682479483252,0.3224682479483252
0.4156351833219341,0.4156351833219341
0.4405332436372951,0.4405332436372951
0.4156351833219341,0.4156351833219341
0.3819023274107998,0.3819023274107998
0.3658390626912121,0.3658390626912121
0.35620110385945947,0.35620110385945947
0.4156351833219341,0.4156351833219341
0.5312906893029659,0.5312906893029659
0.6172291555527604,0.6172291555527604
0.5746615040458528,0.5746615040458528
0.4662344671886355,0.4662344671886355
0.384311817118738,0.384311817118738
0.3658390626912121,0.3658390626912121
0.34094100237585107,0.34094100237585107
0.3152397788245107,0.3152397788245107
0.32889355383616026,0.32889355383616026
0.4156351833219341,0.4156351833219341
0.4855103848521408,0.4855103848521408
0.4662344671886355,0.4662344671886355
0.3650358994552327,0.3650358994552327
0.3152397788245107,0.3152397788245107
0.3835086538827586,0.3835086538827586
0.5168337510553369,0.5168337510553369
0.5449444643146154,0.5449444643146154
0.4156351833219341,0.4156351833219341
0.21886019050698421,0.21886019050698421
0.11364580659368448,0.11364580659368448
0.0927635624582204,0.0927635624582204
0.06304652272698308,0.06304652272698308
-0.016466637634976265,-0.016466637634976265
-0.03734888177044034,-0.03734888177044034
0.019675707984096163,0.019675707984096163
0.06304652272698308,0.06304652272698308
0.02047887122007555,0.02047887122007555
0.013250402096261063,0.013250402096261063
0.12007111248151957,0.12007111248151957
0.2646404949578093,0.2646404949578093
0.29194804498110843,0.29194804498110843
0.21404121109110788,0.21404121109110788
0.09196039922224102,0.09196039922224102
-0.03734888177044034,-0.03734888177044034
-0.1658549995271423,-0.1658549995271423
-0.18834357013456515,-0.18834357013456515
-0.09357030828899744,-0.09357030828899744
0.013250402096261063,0.013250402096261063
0.004415606500487804,0.004415606500487804
-0.03734888177044034,-0.03734888177044034
0.0020061167925496414,0.0020061167925496414
0.11364580659368448,0.11364580659368448
0.11766162277358141,0.11766162277358141
-0.03734888177044034,-0.03734888177044034
-0.20761948779807043,-0.20761948779807043
-0.18834357013456515,-0.18834357013456515
-0.03012041264662585,-0.03012041264662585
0.06304652272698308,0.06304652272698308
-0.023695106758790753,-0.023695106758790753
-0.13854744950384312,-0.13854744950384312
-0.13854744950384312,-0.13854744950384312
-0.03734888177044034,-0.03734888177044034
0.04537693153543656,0.04537693153543656
0.11364580659368448,0.11364580659368448
0.17147355958420035,0.17147355958420035
0.16424509046038588,0.16424509046038588
0.036542135939663295,0.036542135939663295
-0.08794816563714174,-0.08794816563714174
-0.07188490091755399,-0.07188490091755399
0.06304652272698308,0.06304652272698308
0.14657549926883937,0.14657549926883937
0.11364580659368448,0.11364580659368448
0.04618009477141594,0.04618009477141594
0.06304652272698308,0.06304652272698308
0.1618356007524477,0.1618356007524477
0.2646404949578093,0.2646404949578093
0.27427845378956195,0.27427845378956195
0.21404121109110788,0.21404121109110788
0.18512733459584996,0.18512733459584996
0.2646404949578093,0.2646404949578093
0.31845243176842825,0.31845243176842825
0.16424509046038588,0.16424509046038588
-0.2293048951695139,-0.2293048951695139
-0.642130798462919,-0.642130798462919
-0.9384980325393129,-0.9384980325393129
-1.1963134312886963,-1.1963134312886963
-1.5970918860424104,-1.5970918860424104
-2.1030847247094244,-2.1030847247094244
-2.5496434839139637,-2.5496434839139637
-2.8082620458993266,-2.8082620458993266
-2.9182954092285027,-2.9182954092285027
-2.90865745039675,-2.90865745039675
-2.784167148819945,-2.784167148819945
-2.506272669171077,-2.506272669171077
-2.1071005408893213,-2.1071005408893213
-1.6492974963810707,-1.6492974963810707
-1.2677949592908617,-1.2677949592908617
-0.99471945905787,-0.99471945905787
-0.7256597750047753,-0.7256597750047753
-0.28954213786796795,-0.28954213786796795
0.21564753756306668,0.21564753756306668
0.5168337510553369,0.5168337510553369
0.4855103848521408,0.4855103848521408
0.3658390626912121,0.3658390626912121
0.38511498035471736,0.38511498035471736
0.5168337510553369,0.5168337510553369
0.5899216055294612,0.5899216055294612
0.6172291555527604,0.6172291555527604
0.6541746644078121,0.6541746644078121
0.6678284394194617,0.6678284394194617
0.59152793200142,0.59152793200142
0.5168337510553369,0.5168337510553369
0.5208495672352338,0.5208495672352338
0.5674330349220383,0.5674330349220383
0.5931342584733786,0.5931342584733786
0.6678284394194617,0.6678284394194617
0.7866965983444111,0.7866965983444111
0.8188231277835866,0.8188231277835866
0.6887106835549258,0.6887106835549258
0.5674330349220383,0.5674330349220383
0.5754646672818322,0.5754646672818322
0.6172291555527604,0.6172291555527604
0.5296843628310071,0.5296843628310071
0.4156351833219341,0.4156351833219341
0.45579334512090347,0.45579334512090347
0.6678284394194617,0.6678284394194617
0.8445243513349269,0.8445243513349269
0.8694224116502879,0.8694224116502879
0.7666175174449263,0.7666175174449263
0.6678284394194617,0.6678284394194617
0.6429303791041007,0.6429303791041007
0.7184277232861631,0.7184277232861631
0.7883029248163698,0.7883029248163698
0.7682238439168851,0.7682238439168851
0.6774663982512144,0.6774663982512144
0.6678284394194617,0.6678284394194617
0.7537669056692562,0.7537669056692562
0.8188231277835866,0.8188231277835866
0.7577827218491531,0.7577827218491531
0.6678284394194617,0.6678284394194617
0.6284734408564717,0.6284734408564717
0.6172291555527604,0.6172291555527604
0.5577950760902857,0.5577950760902857
0.5168337510553369,0.5168337510553369
0.5537792599103887,0.5537792599103887
0.6172291555527604,0.6172291555527604
0.55217293343843,0.55217293343843
0.3658390626912121,0.3658390626912121
0.2068127419672934,0.2068127419672934
0.21404121109110788,0.21404121109110788
0.2831132493853352,0.2831132493853352
0.2646404949578093,0.2646404949578093
0.1618356007524477,0.1618356007524477
0.16424509046038588,0.16424509046038588
0.2911448817451291,0.2911448817451291
0.3658390626912121,0.3658390626912121
0.2517898831821391,0.2517898831821391
0.11364580659368448,0.11364580659368448
0.10240152128997305,0.10240152128997305
0.16424509046038588,0.16424509046038588
0.13452805072914856,0.13452805072914856
0.06304652272698308,0.06304652272698308
0.04537693153543656,0.04537693153543656
0.06304652272698308,0.06304652272698308
0.005218769736467191,0.005218769736467191
-0.08794816563714174,-0.08794816563714174
-0.14256326568374006,-0.14256326568374006
-0.13854744950384312,-0.13854744950384312
-0.11605887889642029,-0.11605887889642029
-0.03734888177044034,-0.03734888177044034
0.05581805360316859,0.05581805360316859
0.06304652272698308,0.06304652272698308
-0.04377418765827543,-0.04377418765827543
-0.08794816563714174,-0.08794816563714174
0.02047887122007555,0.02047887122007555
0.16424509046038588,0.16424509046038588
0.1618356007524477,0.1618356007524477
0.06304652272698308,0.06304652272698308
-0.016466637634976265,-0.016466637634976265
-0.03734888177044034,-0.03734888177044034
-0.05421530972600747,-0.05421530972600747
-0.03734888177044034,-0.03734888177044034
0.024494687399972487,0.024494687399972487
0.11364580659368448,0.11364580659368448
0.21725386403502545,0.21725386403502545
0.4156351833219341,0.4156351833219341
0.6638126232395648,0.6638126232395648
0.7682238439168851,0.7682238439168851
0.5577950760902857,0.5577950760902857
0.16424509046038588,0.16424509046038588
-0.1530043877514721,-0.1530043877514721
-0.23894285400126655,-0.23894285400126655
-0.16746132599910107,-0.16746132599910107
-0.03734888177044034,-0.03734888177044034
0.07830662421059144,0.07830662421059144
0.16424509046038588,0.16424509046038588
0.19155264048368503,0.19155264048368503
0.16424509046038588,0.16424509046038588
0.07670029773863266,0.07670029773863266
-0.03734888177044034,-0.03734888177044034
-0.12971265390806988,-0.12971265390806988
-0.13854744950384312,-0.13854744950384312
-0.08875132887312112,-0.08875132887312112
-0.03734888177044034,-0.03734888177044034
0.0036124432645084164,0.0036124432645084164
0.11364580659368448,0.11364580659368448
0.28391641262131456,0.28391641262131456
0.4156351833219341,0.4156351833219341
0.3963592656584288,0.3963592656584288
0.2646404949578093,0.2646404949578093
0.0678655021428594,0.0678655021428594
-0.18834357013456515,-0.18834357013456515
-0.5561923322131246,-0.5561923322131246
-0.99471945905787,-0.99471945905787
-1.457341482981997,-1.457341482981997
-1.9014907524785982,-1.9014907524785982
-2.314316655772003,-2.314316655772003
-2.6066680736685,-2.6066680736685
-2.7440089870209756,-2.7440089870209756
-2.7576627620326253,-2.7576627620326253
-2.7279457223013877,-2.7279457223013877
-2.6066680736685,-2.6066680736685
-2.3335925734355087,-2.3335925734355087
-1.9014907524785982,-1.9014907524785982
-1.4236086270708628,-1.4236086270708628
-0.99471945905787,-0.99471945905787
-0.6967458985095173,-0.6967458985095173
-0.49113611009879415,-0.49113611009879415
-0.24376183341714286,-0.24376183341714286
0.16424509046038588,0.16424509046038588
0.5457476275505948,0.5457476275505948
0.6172291555527604,0.6172291555527604
0.39475293918647003,0.39475293918647003
0.2646404949578093,0.2646404949578093
0.37467385828698535,0.37467385828698535
0.4662344671886355,0.4662344671886355
0.344956818555748,0.344956818555748
0.2646404949578093,0.2646404949578093
0.423666815681728,0.423666815681728
0.6172291555527604,0.6172291555527604
0.6043785437770901,0.6043785437770901
0.5674330349220383,0.5674330349220383
0.7176245600501837,0.7176245600501837
0.8694224116502879,0.8694224116502879
0.6991518056226578,0.6991518056226578
0.3152397788245107,0.3152397788245107
0.06063703301904491,0.06063703301904491
0.06304652272698308,0.06304652272698308
0.1441660095609012,0.1441660095609012
0.21404121109110788,0.21404121109110788
0.3007828405768817,0.3007828405768817
0.4156351833219341,0.4156351833219341
0.4582028348288416,0.4582028348288416
0.4156351833219341,0.4156351833219341
0.35138212444358313,0.35138212444358313
0.3658390626912121,0.3658390626912121
0.45017120246904774,0.45017120246904774
0.5674330349220383,0.5674330349220383
0.6421272158681213,0.6421272158681213
0.6678284394194617,0.6678284394194617
0.6453398688120389,0.6453398688120389
0.6172291555527604,0.6172291555527604
0.5794804834617291,0.5794804834617291
0.5674330349220383,0.5674330349220383
0.618835482024719,0.618835482024719
0.7682238439168851,0.7682238439168851
0.8951236352016283,0.8951236352016283
0.8694224116502879,0.8694224116502879
0.687104357082967,0.687104357082967
0.5168337510553369,0.5168337510553369
0.4389269171653363,0.4389269171653363
0.4156351833219341,0.4156351833219341
0.4116193671420372,0.4116193671420372
0.5168337510553369,0.5168337510553369
0.7087897644544104,0.7087897644544104
0.8188231277835866,0.8188231277835866
0.7007581320946166,0.7007581320946166
0.5168337510553369,0.5168337510553369
0.5071957922235842,0.5071957922235842
0.6678284394194617,0.6678284394194617
0.6718442555993587,0.6718442555993587
0.3658390626912121,0.3658390626912121
0.018872544748116775,0.018872544748116775
0.06304652272698308,0.06304652272698308
0.43009212156956306,0.43009212156956306
0.6172291555527604,0.6172291555527604
0.29757018763296417,0.29757018763296417
-0.23894285400126655,-0.23894285400126655
-0.577877739584568,-0.577877739584568
-0.642130798462919,-0.642130798462919
-0.6164295749115786,-0.6164295749115786
-0.49113611009879415,-0.49113611009879415
-0.17950877453879188,-0.17950877453879188
0.21404121109110788,0.21404121109110788
0.39314661271451123,0.39314661271451123
0.2646404949578093,0.2646404949578093
-0.030923575882605237,-0.030923575882605237
-0.28954213786796795,-0.28954213786796795
-0.4501747850638454,-0.4501747850638454
-0.49113611009879415,-0.49113611009879415
-0.4317020306363195,-0.4317020306363195
-0.28954213786796795,-0.28954213786796795
-0.14256326568374006,-0.14256326568374006
-0.03734888177044034,-0.03734888177044034
-0.015663474398996877,-0.015663474398996877
-0.03734888177044034,-0.03734888177044034
-0.046986840602192985,-0.046986840602192985
0.013250402096261063,0.013250402096261063
0.08553509333440593,0.08553509333440593
0.11364580659368448,0.11364580659368448
0.08071611391852959,0.08071611391852959
0.06304652272698308,0.06304652272698308
0.06947182861481817,0.06947182861481817
0.06304652272698308,0.06304652272698308
0.002809280028529029,0.002809280028529029
-0.03734888177044034,-0.03734888177044034
-0.011647658219099943,-0.011647658219099943
0.06304652272698308,0.06304652272698308
0.08955090951430286,0.08955090951430286
0.06304652272698308,0.06304652272698308
0.03252631975976636,0.03252631975976636
0.06304652272698308,0.06304652272698308
0.12167743895347835,0.12167743895347835
0.16424509046038588,0.16424509046038588
0.1497881522127569,0.1497881522127569
0.11364580659368448,0.11364580659368448
0.06947182861481817,0.06947182861481817
0.06304652272698308,0.06304652272698308
0.12328376542543712,0.12328376542543712
0.2646404949578093,0.2646404949578093
0.3674453891631709,0.3674453891631709
0.3152397788245107,0.3152397788245107
0.11364580659368448,0.11364580659368448
-0.03734888177044034,-0.03734888177044034
-0.007631842039203006,-0.007631842039203006
0.16424509046038588,0.16424509046038588
0.30479865675677864,0.30479865675677864
0.3658390626912121,0.3658390626912121
0.3923434494785319,0.3923434494785319
0.4156351833219341,0.4156351833219341
0.32809039060018086,0.32809039060018086
0.11364580659368448,0.11364580659368448
-0.04859316707415176,-0.04859316707415176
0.06304652272698308,0.06304652272698308
0.3224682479483252,0.3224682479483252
0.4156351833219341,0.4156351833219341
0.280703759677397,0.280703759677397
0.2646404949578093,0.2646404949578093
0.5312906893029659,0.5312906893029659
0.7682238439168851,0.7682238439168851
0.5658267084500795,0.5658267084500795
0.06304652272698308,0.06304652272698308
-0.25339979224889553,-0.25339979224889553
-0.13854744950384312,-0.13854744950384312
0.1377407036730661,0.1377407036730661
0.21404121109110788,0.21404121109110788
-0.011647658219099943,-0.011647658219099943
-0.3401414217346693,-0.3401414217346693
-0.5329005983697223,-0.5329005983697223
-0.49113611009879415,-0.49113611009879415
-0.3272908099589992,-0.3272908099589992
-0.18834357013456515,-0.18834357013456515
-0.10722408330064703,-0.10722408330064703
0.013250402096261063,0.013250402096261063
0.16585141693234465,0.16585141693234465
0.2646404949578093,0.2646404949578093
0.2799005964414176,0.2799005964414176
0.3152397788245107,0.3152397788245107
0.3329093700160572,0.3329093700160572
0.16424509046038588,0.16424509046038588
-0.2670535672605451,-0.2670535672605451
-0.7425262029603424,-0.7425262029603424
-1.1103749650389019,-1.1103749650389019
-1.4477035241502445,-1.4477035241502445
-1.8974749362987013,-1.8974749362987013
-2.355277980806952,-2.355277980806952
-2.6926065399182946,-2.6926065399182946
-2.90865745039675,-2.90865745039675
-3.0387698946254105,-3.0387698946254105
-2.9592567342634513,-2.9592567342634513
-2.6685116428389133,-2.6685116428389133
-2.355277980806952,-2.355277980806952
-2.1593061512279816,-2.1593061512279816
-1.9014907524785982,-1.9014907524785982
-1.446900360914265,-1.446900360914265
-0.9441201751911686,-0.9441201751911686
-0.6501624308227129,-0.6501624308227129
-0.49113611009879415,-0.49113611009879415
-0.24135234370920472,-0.24135234370920472
0.16424509046038588,0.16424509046038588
0.5184400775272957,0.5184400775272957
0.6678284394194617,0.6678284394194617
0.5955437481813168,0.5955437481813168
0.4156351833219341,0.4156351833219341
0.23652978169853073,0.23652978169853073
0.16424509046038588,0.16424509046038588
0.206009578731314,0.206009578731314
0.3152397788245107,0.3152397788245107
0.4212573259737898,0.4212573259737898
0.5168337510553369,0.5168337510553369
0.5851026261135848,0.5851026261135848
0.6172291555527604,0.6172291555527604
0.6116070129009046,0.6116070129009046
0.6172291555527604,0.6172291555527604
0.6445367055760595,0.6445367055760595
0.6678284394194617,0.6678284394194617
0.6300797673284305,0.6300797673284305
0.5674330349220383,0.5674330349220383
0.5473539540225536,0.5473539540225536
0.6172291555527604,0.6172291555527604
0.6565841541157503,0.6565841541157503
0.5674330349220383,0.5674330349220383
0.41724150979389285,0.41724150979389285
0.4156351833219341,0.4156351833219341
0.5353065054828628,0.5353065054828628
0.5674330349220383,0.5674330349220383
0.4405332436372951,0.4405332436372951
0.4156351833219341,0.4156351833219341
0.6252607879125542,0.6252607879125542
0.8694224116502879,0.8694224116502879
0.8895014925497726,0.8895014925497726
0.7682238439168851,0.7682238439168851
0.662206296767606,0.662206296767606
0.5674330349220383,0.5674330349220383
0.4284857950976043,0.4284857950976043
0.4156351833219341,0.4156351833219341
0.6260639511485335,0.6260639511485335
0.8694224116502879,0.8694224116502879
0.8517528204587415,0.8517528204587415
0.6172291555527604,0.6172291555527604
0.39716242889440817,0.39716242889440817
0.3152397788245107,0.3152397788245107
0.28471957585729396,0.28471957585729396
0.2646404949578093,0.2646404949578093
0.2670499846657475,0.2670499846657475
0.3152397788245107,0.3152397788245107
0.3682485523991503,0.3682485523991503
0.4156351833219341,0.4156351833219341
0.40599722449018144,0.40599722449018144
0.3152397788245107,0.3152397788245107
0.15139447868471567,0.15139447868471567
0.013250402096261063,0.013250402096261063
-0.0775070435694097,-0.0775070435694097
-0.13854744950384312,-0.13854744950384312
-0.1851309171906476,-0.1851309171906476
-0.13854744950384312,-0.13854744950384312
-0.011647658219099943,-0.011647658219099943
0.06304652272698308,0.06304652272698308
-0.07027857444559521,-0.07027857444559521
-0.3401414217346693,-0.3401414217346693
-0.5320974351337429,-0.5320974351337429
-0.49113611009879415,-0.49113611009879415
-0.3313066261388961,-0.3313066261388961
-0.23894285400126655,-0.23894285400126655
-0.250187139304978,-0.250187139304978
-0.18834357013456515,-0.18834357013456515
0.015659891804199227,0.015659891804199227
0.21404121109110788,0.21404121109110788
0.16745774340430342,0.16745774340430342
-0.13854744950384312,-0.13854744950384312
-0.5441448836734337,-0.5441448836734337
-0.8437247706937452,-0.8437247706937452
-0.9489391546070449,-0.9489391546070449
-0.8437247706937452,-0.8437247706937452
-0.6453434514068366,-0.6453434514068366
-0.49113611009879415,-0.49113611009879415
-0.438930499760134,-0.438930499760134
-0.38993754236539135,-0.38993754236539135
-0.2975737702277618,-0.2975737702277618
-0.23894285400126655,-0.23894285400126655
-0.324881320251061,-0.324881320251061
-0.49113611009879415,-0.49113611009879415
-0.5746650866406504,-0.5746650866406504
-0.49113611009879415,-0.49113611009879415
-0.3401414217346693,-0.3401414217346693
-0.23894285400126655,-0.23894285400126655
-0.19075305984250332,-0.19075305984250332
-0.08794816563714174,-0.08794816563714174
0.07348764479471512,0.07348764479471512
0.21404121109110788,0.21404121109110788
0.26223100524987114,0.26223100524987114
0.2646404949578093,0.2646404949578093
0.19637161989956137,0.19637161989956137
-0.03734888177044034,-0.03734888177044034
-0.4879234571548766,-0.4879234571548766
-0.99471945905787,-0.99471945905787
-1.4099548520592133,-1.4099548520592133
-1.7504960641144733,-1.7504960641144733
-2.160109314463961,-2.160109314463961
-2.6066680736685,-2.6066680736685
-2.923917551880358,-2.923917551880358
-2.9592567342634513,-2.9592567342634513
-2.7648912311564398,-2.7648912311564398
-2.4556733853043755,-2.4556733853043755
-2.1352112541486,-2.1352112541486
-1.8010953479811749,-1.8010953479811749
-1.44047505502643,-1.44047505502643
-1.0453187429245714,-1.0453187429245714
-0.6887142661497234,-0.6887142661497234
-0.38993754236539135,-0.38993754236539135
-0.11204306271652335,-0.11204306271652335
0.21404121109110788,0.21404121109110788
0.49836099662781097,0.49836099662781097
0.6172291555527604,0.6172291555527604
0.562614055506162,0.562614055506162
0.5168337510553369,0.5168337510553369
0.5642203819781207,0.5642203819781207
0.6172291555527604,0.6172291555527604
0.5393223216627597,0.5393223216627597
0.4156351833219341,0.4156351833219341
0.43169844804152185,0.43169844804152185
0.6172291555527604,0.6172291555527604
0.7352941512417303,0.7352941512417303
0.6172291555527604,0.6172291555527604
0.40519406125420204,0.40519406125420204
0.4156351833219341,0.4156351833219341
0.6702379291273999,0.6702379291273999
0.8694224116502879,0.8694224116502879
0.7698301703888439,0.7698301703888439
0.5168337510553369,0.5168337510553369
0.3353188597239954,0.3353188597239954
0.2646404949578093,0.2646404949578093
0.20199376255141707,0.20199376255141707
0.21404121109110788,0.21404121109110788
0.39314661271451123,0.39314661271451123
0.6678284394194617,0.6678284394194617
0.797137720412143,0.797137720412143
0.7184277232861631,0.7184277232861631
0.5698425246299764,0.5698425246299764
0.5674330349220383,0.5674330349220383
0.7497510894893592,0.7497510894893592
1.0204171000144127,1.0204171000144127
1.16819913543462,1.16819913543462
1.0710163838811142,1.0710163838811142
0.7489479262533798,0.7489479262533798
0.4156351833219341,0.4156351833219341
0.2517898831821391,0.2517898831821391
0.3152397788245107,0.3152397788245107
0.4782819157283263,0.4782819157283263
0.6172291555527604,0.6172291555527604
0.6630094600035854,0.6630094600035854
0.6678284394194617,0.6678284394194617
0.6670252761834823,0.6670252761834823
0.6678284394194617,0.6678284394194617
0.6019690540691519,0.6019690540691519
0.4662344671886355,0.4662344671886355
0.31684610529646945,0.31684610529646945
0.2646404949578093,0.2646404949578093
0.30399549352079924,0.30399549352079924
0.3658390626912121,0.3658390626912121
0.3650358994552327,0.3650358994552327
0.3152397788245107,0.3152397788245107
0.20761590520327278,0.20761590520327278
0.06304652272698308,0.06304652272698308
-0.06305010532178074,-0.06305010532178074
-0.03734888177044034,-0.03734888177044034
0.12248060218945774,0.12248060218945774
0.2646404949578093,0.2646404949578093
0.24616774053028337,0.24616774053028337
0.16424509046038588,0.16424509046038588
0.1626387639884271,0.1626387639884271
0.2646404949578093,0.2646404949578093
0.33049988030811905,0.33049988030811905
0.3152397788245107,0.3152397788245107
0.2654436581937887,0.2654436581937887
0.2646404949578093,0.2646404949578093
0.2815069229133764,0.2815069229133764
0.2646404949578093,0.2646404949578093
0.16826090664028281,0.16826090664028281
0.06304652272698308,0.06304652272698308
0.04537693153543656,0.04537693153543656
0.16424509046038588,0.16424509046038588
0.28391641262131456,0.28391641262131456
0.2646404949578093,0.2646404949578093
0.12007111248151957,0.12007111248151957
0.06304652272698308,0.06304652272698308
0.1883399875397675,0.1883399875397675
0.3658390626912121,0.3658390626912121
0.3586105935673976,0.3586105935673976
0.16424509046038588,0.16424509046038588
-0.03012041264662585,-0.03012041264662585
-0.03734888177044034,-0.03734888177044034
0.0871414198063647,0.0871414198063647
0.21404121109110788,0.21404121109110788
0.2823100861493558,0.2823100861493558
0.3658390626912121,0.3658390626912121
0.44294273334523326,0.44294273334523326
0.4156351833219341,0.4156351833219341
0.20922223167523157,0.20922223167523157
-0.03734888177044034,-0.03734888177044034
-0.15541387745941027,-0.15541387745941027
-0.08794816563714174,-0.08794816563714174
0.03252631975976636,0.03252631975976636
0.11364580659368448,0.11364580659368448
0.16986723311224158,0.16986723311224158
0.2646404949578093,0.2646404949578093
0.3264840641282221,0.3264840641282221
0.2646404949578093,0.2646404949578093
0.13372488749316916,0.13372488749316916
0.11364580659368448,0.11364580659368448
0.20199376255141707,0.20199376255141707
0.21404121109110788,0.21404121109110788
0.07991295068255021,0.07991295068255021
0.013250402096261063,0.013250402096261063
0.1385438669090455,0.1385438669090455
0.3152397788245107,0.3152397788245107
0.37387069505100595,0.37387069505100595
0.4156351833219341,0.4156351833219341
0.5063926289876048,0.5063926289876048
0.4662344671886355,0.4662344671886355
0.07188131832275634,0.07188131832275634
-0.5409322307295161,-0.5409322307295161
-1.1111781282748812,-1.1111781282748812
-1.5489020918836471,-1.5489020918836471
-1.9641374848849904,-1.9641374848849904
-2.355277980806952,-2.355277980806952
-2.671724295782831,-2.671724295782831
-2.90865745039675,-2.90865745039675
-3.1070387696836588,-3.1070387696836588
-3.1608507064942777,-3.1608507064942777
-2.9721073460391216,-2.9721073460391216
-2.556068789801799,-2.556068789801799
-2.0797929908660224,-2.0797929908660224
-1.6492974963810707,-1.6492974963810707
-1.3208037328655013,-1.3208037328655013
-1.0453187429245714,-1.0453187429245714
-0.7336914073645692,-0.7336914073645692
-0.28954213786796795,-0.28954213786796795
0.16344192722440648,0.16344192722440648
0.4156351833219341,0.4156351833219341
0.42045416273781044,0.42045416273781044
0.4156351833219341,0.4156351833219341
0.5216527304712132,0.5216527304712132
0.6172291555527604,0.6172291555527604
0.5738583408098734,0.5738583408098734
0.5168337510553369,0.5168337510553369
0.5280780363590484,0.5280780363590484
0.5168337510553369,0.5168337510553369
0.4389269171653363,0.4389269171653363
0.4662344671886355,0.4662344671886355
0.6091975231929665,0.6091975231929665
0.6172291555527604,0.6172291555527604
0.4027845715462639,0.4027845715462639
0.3152397788245107,0.3152397788245107
0.569039361393997,0.569039361393997
0.8694224116502879,0.8694224116502879
0.8212326174915247,0.8212326174915247
0.5674330349220383,0.5674330349220383
0.4927388539759553,0.4927388539759553
0.6678284394194617,0.6678284394194617
0.7770586395126584,0.7770586395126584
0.6678284394194617,0.6678284394194617
0.47506926278440875,0.47506926278440875
0.4156351833219341,0.4156351833219341
0.4935420172119347,0.4935420172119347
0.6172291555527604,0.6172291555527604
0.6863011938469876,0.6863011938469876
0.7184277232861631,0.7184277232861631
0.7609953747930707,0.7609953747930707
0.8694224116502879,0.8694224116502879
0.9915032235191548,0.9915032235191548
1.0710163838811142,1.0710163838811142
1.0678037309371966,1.0678037309371966
1.0204171000144127,1.0204171000144127
0.9272501646408038,0.9272501646408038
0.8188231277835866,0.8188231277835866
0.7401131306576065,0.7401131306576065
0.7682238439168851,0.7682238439168851
0.8501464939867827,0.8501464939867827
0.8694224116502879,0.8694224116502879
0.7336878247697715,0.7336878247697715
0.5674330349220383,0.5674330349220383
0.5569919128543063,0.5569919128543063
0.7682238439168851,0.7682238439168851
0.9698178161477113,0.9698178161477113
0.9200216955169893,0.9200216955169893
0.6043785437770901,0.6043785437770901
0.2646404949578093,0.2646404949578093
0.0301168300518282,0.0301168300518282
-0.13854744950384312,-0.13854744950384312
-0.30078642317167936,-0.30078642317167936
-0.3401414217346693,-0.3401414217346693
-0.20761948779807043,-0.20761948779807043
-0.03734888177044034,-0.03734888177044034
-0.03734888177044034,-0.03734888177044034
-0.13854744950384312,-0.13854744950384312
-0.10561775682868825,-0.10561775682868825
0.16424509046038588,0.16424509046038588
0.4260763053896661,0.4260763053896661
0.4662344671886355,0.4662344671886355
0.39555610242244943,0.39555610242244943
0.5168337510553369,0.5168337510553369
0.7401131306576065,0.7401131306576065
0.6678284394194617,0.6678284394194617
0.16665458016832405,0.16665458016832405
-0.28954213786796795,-0.28954213786796795
-0.2742820363843596,-0.2742820363843596
0.06304652272698308,0.06304652272698308
0.24375825082234523,0.24375825082234523
0.16424509046038588,0.16424509046038588
0.08151927715450899,0.08151927715450899
0.16424509046038588,0.16424509046038588
0.2766879434975001,0.2766879434975001
0.2646404949578093,0.2646404949578093
0.10962999041378754,0.10962999041378754
-0.08794816563714174,-0.08794816563714174
-0.22047009957374064,-0.22047009957374064
-0.18834357013456515,-0.18834357013456515
-0.02128561705085259,-0.02128561705085259
0.16424509046038588,0.16424509046038588
0.25339620965409787,0.25339620965409787
0.2646404949578093,0.2646404949578093
0.20520641549533464,0.20520641549533464
0.06304652272698308,0.06304652272698308
-0.18352459071868882,-0.18352459071868882
-0.49113611009879415,-0.49113611009879415
-0.8967335442683847,-0.8967335442683847
-1.4477035241502445,-1.4477035241502445
-2.0934467658776716,-2.0934467658776716
-2.6066680736685,-2.6066680736685
-2.8725151047776776,-2.8725151047776776
-2.9592567342634513,-2.9592567342634513
-2.9905801004666475,-2.9905801004666475
-2.90865745039675,-2.90865745039675
-2.6580705207711812,-2.6580705207711812
-2.304678696940251,-2.304678696940251
-2.008311462863857,-2.008311462863857
-1.7504960641144733,-1.7504960641144733
-1.4147738314750895,-1.4147738314750895
-0.9441201751911686,-0.9441201751911686
-0.488726620390856,-0.488726620390856
-0.18834357013456515,-0.18834357013456515
-0.05662479943394563,-0.05662479943394563
0.06304652272698308,0.06304652272698308
0.2582151890699742,0.2582151890699742
0.5168337510553369,0.5168337510553369
0.7385068041856478,0.7385068041856478
0.8694224116502879,0.8694224116502879
0.8212326174915247,0.8212326174915247
0.5674330349220383,0.5674330349220383
0.22367916992286055,0.22367916992286055
0.06304652272698308,0.06304652272698308
0.19717478313554077,0.19717478313554077
0.4662344671886355,0.4662344671886355
0.6300797673284305,0.6300797673284305
0.6678284394194617,0.6678284394194617
0.6670252761834823,0.6670252761834823
0.6678284394194617,0.6678284394194617
0.6220481349686366,0.6220481349686366
0.5674330349220383,0.5674330349220383
0.5569919128543063,0.5569919128543063
0.6172291555527604,0.6172291555527604
0.7023644585665754,0.7023644585665754
0.8188231277835866,0.8188231277835866
0.9425102661244121,0.9425102661244121
1.0204171000144127,1.0204171000144127
0.9738336323276082,0.9738336323276082
0.8694224116502879,0.8694224116502879
0.8268547601433804,0.8268547601433804
0.9200216955169893,0.9200216955169893
1.0268424059022478,1.0268424059022478
1.0204171000144127,1.0204171000144127
0.9023521043254428,0.9023521043254428
0.8694224116502879,0.8694224116502879
1.0412993441498768,1.0412993441498768
1.3224064767426624,1.3224064767426624
1.431636676835859,1.431636676835859
1.2726103561119404,1.2726103561119404
1.0260392426662686,1.0260392426662686
0.9698178161477113,0.9698178161477113
1.0710163838811142,1.0710163838811142
1.0710163838811142,1.0710163838811142
0.8180199645476072,0.8180199645476072
0.5168337510553369,0.5168337510553369
0.38511498035471736,0.38511498035471736
0.4156351833219341,0.4156351833219341
0.40760355096214024,0.40760355096214024
0.3152397788245107,0.3152397788245107
0.21002539491121094,0.21002539491121094
0.16424509046038588,0.16424509046038588
0.13452805072914856,0.13452805072914856
0.11364580659368448,0.11364580659368448
0.08874774627832346,0.08874774627832346
0.06304652272698308,0.06304652272698308
0.00843142268038474,0.00843142268038474
-0.03734888177044034,-0.03734888177044034
-0.06867224797363644,-0.06867224797363644
-0.08794816563714174,-0.08794816563714174
-0.1417601024477607,-0.1417601024477607
-0.18834357013456515,-0.18834357013456515
-0.1851309171906476,-0.1851309171906476
-0.08794816563714174,-0.08794816563714174
0.04377060506347778,0.04377060506347778
0.16424509046038588,0.16424509046038588
0.23090763904667502,0.23090763904667502
0.2646404949578093,0.2646404949578093
0.24295508758636583,0.24295508758636583
0.16424509046038588,0.16424509046038588
0.05340856389523043,0.05340856389523043
0.013250402096261063,0.013250402096261063
0.0678655021428594,0.0678655021428594
0.16424509046038588,0.16424509046038588
0.19074947724770566,0.19074947724770566
0.16424509046038588,0.16424509046038588
0.156213458100592,0.156213458100592
0.21404121109110788,0.21404121109110788
0.23733294493451013,0.23733294493451013
0.16424509046038588,0.16424509046038588
0.07188131832275634,0.07188131832275634
0.16424509046038588,0.16424509046038588
0.44374589658121266,0.44374589658121266
0.6678284394194617,0.6678284394194617
0.5353065054828628,0.5353065054828628
0.06304652272698308,0.06304652272698308
-0.45820641742363927,-0.45820641742363927
-0.6927300823296204,-0.6927300823296204
-0.5698461072247741,-0.5698461072247741
-0.23894285400126655,-0.23894285400126655
0.04618009477141594,0.04618009477141594
0.16424509046038588,0.16424509046038588
0.13051223454925162,0.13051223454925162
0.06304652272698308,0.06304652272698308
-0.006828678803223619,-0.006828678803223619
-0.08794816563714174,-0.08794816563714174
-0.18031193777477128,-0.18031193777477128
-0.18834357013456515,-0.18834357013456515
-0.08473551269322419,-0.08473551269322419
0.06304652272698308,0.06304652272698308
0.11364580659368448,0.11364580659368448
0.06304652272698308,0.06304652272698308
0.00843142268038474,0.00843142268038474
0.06304652272698308,0.06304652272698308
0.1827178448879118,0.1827178448879118
0.2646404949578093,0.2646404949578093
0.2381361081704895,0.2381361081704895
0.16424509046038588,0.16424509046038588
0.07188131832275634,0.07188131832275634
-0.03734888177044034,-0.03734888177044034
-0.15862653040332783,-0.15862653040332783
-0.18834357013456515,-0.18834357013456515
-0.0895544921091005,-0.0895544921091005
0.06304652272698308,0.06304652272698308
0.10641733746986999,0.10641733746986999
0.013250402096261063,0.013250402096261063
-0.13372847008796682,-0.13372847008796682
-0.18834357013456515,-0.18834357013456515
-0.10963357300858519,-0.10963357300858519
0.06304652272698308,0.06304652272698308
0.18512733459584996,0.18512733459584996
0.16424509046038588,0.16424509046038588
0.009234585916364127,0.009234585916364127
-0.08794816563714174,-0.08794816563714174
0.03975478888358085,0.03975478888358085
0.3658390626912121,0.3658390626912121
0.5859057893495642,0.5859057893495642
0.4662344671886355,0.4662344671886355
0.09758254187409673,0.09758254187409673
-0.13854744950384312,-0.13854744950384312
-0.06144377884982195,-0.06144377884982195
0.16424509046038588,0.16424509046038588
0.2694594743736856,0.2694594743736856
0.2646404949578093,0.2646404949578093
0.3031923302848199,0.3031923302848199
0.4156351833219341,0.4156351833219341
0.448564875997089,0.448564875997089
0.3658390626912121,0.3658390626912121
0.3232714111843046,0.3232714111843046
0.4662344671886355,0.4662344671886355
0.6549778276437915,0.6549778276437915
0.6172291555527604,0.6172291555527604
0.2678531479017268,0.2678531479017268
-0.13854744950384312,-0.13854744950384312
-0.30962121876745263,-0.30962121876745263
-0.18834357013456515,-0.18834357013456515
0.03252631975976636,0.03252631975976636
0.21404121109110788,0.21404121109110788
0.3377283494319335,0.3377283494319335
0.4156351833219341,0.4156351833219341
0.3232714111843046,0.3232714111843046
-0.03734888177044034,-0.03734888177044034
-0.6059884528438465,-0.6059884528438465
-1.1457141474219947,-1.1457141474219947
-1.5272166845122037,-1.5272166845122037
-1.8010953479811749,-1.8010953479811749
-2.126376458552827,-2.126376458552827
-2.506272669171077,-2.506272669171077
-2.815490515023141,-2.815490515023141
-2.90865745039675,-2.90865745039675
-2.8130810253152028,-2.8130810253152028
-2.6066680736685,-2.6066680736685
-2.355277980806952,-2.355277980806952
-2.052485440842723,-2.052485440842723
-1.778606777373752,-1.778606777373752
-1.5995013757503487,-1.5995013757503487
-1.4669794418137498,-1.4669794418137498
-1.1963134312886963,-1.1963134312886963
-0.7650147735677653,-0.7650147735677653
-0.3401414217346693,-0.3401414217346693
-0.08553867592920357,-0.08553867592920357
0.06304652272698308,0.06304652272698308
0.1626387639884271,0.1626387639884271
0.16424509046038588,0.16424509046038588
0.024494687399972487,0.024494687399972487
-0.08794816563714174,-0.08794816563714174
-0.034136228826522785,-0.034136228826522785
0.11364580659368448,0.11364580659368448
0.17307988605615915,0.17307988605615915
0.16424509046038588,0.16424509046038588
0.23090763904667502,0.23090763904667502
0.4156351833219341,0.4156351833219341
0.5505666069664712,0.5505666069664712
0.5168337510553369,0.5168337510553369
0.3666422259271915,0.3666422259271915
0.2646404949578093,0.2646404949578093
0.24616774053028337,0.24616774053028337
0.2646404949578093,0.2646404949578093
0.30479865675677864,0.30479865675677864
0.4662344671886355,0.4662344671886355
0.7328846615337921,0.7328846615337921
0.9200216955169893,0.9200216955169893
0.8035630262999782,0.8035630262999782
0.4662344671886355,0.4662344671886355
0.20922223167523157,0.20922223167523157
0.2646404949578093,0.2646404949578093
0.48631354808812016,0.48631354808812016
0.6172291555527604,0.6172291555527604
0.6043785437770901,0.6043785437770901
0.6678284394194617,0.6678284394194617
0.886288839605855,0.886288839605855
1.0710163838811142,1.0710163838811142
0.9971253661710106,0.9971253661710106
0.7682238439168851,0.7682238439168851
0.6196386452606985,0.6196386452606985
0.6678284394194617,0.6678284394194617
0.8107914954237927,0.8107914954237927
0.9698178161477113,0.9698178161477113
1.0766385265329699,1.0766385265329699
1.0710163838811142,1.0710163838811142
0.8951236352016283,0.8951236352016283
0.6678284394194617,0.6678284394194617
0.5602045657982239,0.5602045657982239
0.6678284394194617,0.6678284394194617
0.8662097587063704,0.8662097587063704
0.9698178161477113,0.9698178161477113
0.8212326174915247,0.8212326174915247
0.4662344671886355,0.4662344671886355
0.09838570511007612,0.09838570511007612
-0.03734888177044034,-0.03734888177044034
0.09677937863811735,0.09677937863811735
0.3658390626912121,0.3658390626912121
0.5714488511019352,0.5714488511019352
0.6678284394194617,0.6678284394194617
0.6662221129475029,0.6662221129475029
0.6172291555527604,0.6172291555527604
0.5441413010786361,0.5441413010786361
0.5168337510553369,0.5168337510553369
0.5353065054828628,0.5353065054828628
0.5674330349220383,0.5674330349220383
0.548157117258533,0.548157117258533
0.5168337510553369,0.5168337510553369
0.49916415986379037,0.49916415986379037
0.5168337510553369,0.5168337510553369
0.5345033422468835,0.5345033422468835
0.5674330349220383,0.5674330349220383
0.6003627275971932,0.6003627275971932
0.6172291555527604,0.6172291555527604
0.5706456878659558,0.5706456878659558
0.5168337510553369,0.5168337510553369
0.5361096687188422,0.5361096687188422
0.6678284394194617,0.6678284394194617
0.7746491498047202,0.7746491498047202
0.7184277232861631,0.7184277232861631
0.4975578333918316,0.4975578333918316
0.3152397788245107,0.3152397788245107
0.29917651410492296,0.29917651410492296
0.4156351833219341,0.4156351833219341
0.5160305878193575,0.5160305878193575
0.5674330349220383,0.5674330349220383
0.5955437481813168,0.5955437481813168
0.6172291555527604,0.6172291555527604
0.5561887496183269,0.5561887496183269
0.4156351833219341,0.4156351833219341
0.2831132493853352,0.2831132493853352
0.2646404949578093,0.2646404949578093
0.29757018763296417,0.29757018763296417
0.2646404949578093,0.2646404949578093
0.13934703014502486,0.13934703014502486
0.06304652272698308,0.06304652272698308
0.08473193009842653,0.08473193009842653
0.11364580659368448,0.11364580659368448
0.04216427859151901,0.04216427859151901
-0.03734888177044034,-0.03734888177044034
-0.02128561705085259,-0.02128561705085259
0.06304652272698308,0.06304652272698308
0.07107815508677695,0.07107815508677695
-0.03734888177044034,-0.03734888177044034
-0.2164542833938437,-0.2164542833938437
-0.38993754236539135,-0.38993754236539135
-0.5023803954025056,-0.5023803954025056
-0.49113611009879415,-0.49113611009879415
-0.3979691747251852,-0.3979691747251852
-0.3401414217346693,-0.3401414217346693
-0.3867248894214738,-0.3867248894214738
-0.4405368262320928,-0.4405368262320928
-0.41242611297281423,-0.41242611297281423
-0.3401414217346693,-0.3401414217346693
-0.3610236658701334,-0.3610236658701334
-0.49113611009879415,-0.49113611009879415
-0.6429339616988984,-0.6429339616988984
-0.7425262029603424,-0.7425262029603424
-0.8887019119085908,-0.8887019119085908
-1.1963134312886963,-1.1963134312886963
-1.6717860669884934,-1.6717860669884934
-2.1536840085761257,-2.1536840085761257
-2.547233994206026,-2.547233994206026
-2.858861329766028,-2.858861329766028
-3.1335431564709784,-3.1335431564709784
-3.3118453948584023,-3.3118453948584023
-3.3728858007928357,-3.3728858007928357
-3.3624446787251037,-3.3624446787251037
-3.3391529448817017,-3.3391529448817017
-3.211449990360979,-3.211449990360979
-2.900625818036956,-2.900625818036956
-2.4556733853043755,-2.4556733853043755
-2.051682277606744,-2.051682277606744
-1.7504960641144733,-1.7504960641144733
-1.4999091344889046,-1.4999091344889046
-1.1963134312886963,-1.1963134312886963
-0.8276615059741574,-0.8276615059741574
-0.4405368262320928,-0.4405368262320928
-0.1594296936393072,-0.1594296936393072
-0.03734888177044034,-0.03734888177044034
-0.010844494983120555,-0.010844494983120555
0.06304652272698308,0.06304652272698308
0.1497881522127569,0.1497881522127569
0.11364580659368448,0.11364580659368448
-0.05662479943394563,-0.05662479943394563
-0.13854744950384312,-0.13854744950384312
-0.015663474398996877,-0.015663474398996877
0.16424509046038588,0.16424509046038588
0.20520641549533464,0.20520641549533464
0.16424509046038588,0.16424509046038588
0.17870202870801485,0.17870202870801485
0.2646404949578093,0.2646404949578093
0.34013783913987167,0.34013783913987167
0.4156351833219341,0.4156351833219341
0.4822977319082232,0.4822977319082232
0.4662344671886355,0.4662344671886355
0.33612202295997473,0.33612202295997473
0.2646404949578093,0.2646404949578093
0.3827054906467792,0.3827054906467792
0.6172291555527604,0.6172291555527604
0.7601922115570913,0.7601922115570913
0.7682238439168851,0.7682238439168851
0.6983486423866784,0.6983486423866784
0.6172291555527604,0.6172291555527604
0.5353065054828628,0.5353065054828628
0.5168337510553369,0.5168337510553369
0.5610077290342032,0.5610077290342032
0.6172291555527604,0.6172291555527604
0.6324892570363687,0.6324892570363687
0.6678284394194617,0.6678284394194617
0.7280656821179158,0.7280656821179158
0.7682238439168851,0.7682238439168851
0.7642080277369881,0.7642080277369881
0.8188231277835866,0.8188231277835866
0.9288564911127626,0.9288564911127626
0.9698178161477113,0.9698178161477113
0.8525559836947207,0.8525559836947207
0.7184277232861631,0.7184277232861631
0.6702379291273999,0.6702379291273999
0.6678284394194617,0.6678284394194617
0.6204418084966778,0.6204418084966778
0.6172291555527604,0.6172291555527604
0.712002417398328,0.712002417398328
0.8188231277835866,0.8188231277835866
0.7995472101200812,0.7995472101200812
0.7184277232861631,0.7184277232861631
0.6614031335316266,0.6614031335316266
0.6172291555527604,0.6172291555527604
0.5104084451675018,0.5104084451675018
0.4156351833219341,0.4156351833219341
0.39716242889440817,0.39716242889440817
0.4156351833219341,0.4156351833219341
0.3586105935673976,0.3586105935673976
0.2646404949578093,0.2646404949578093
0.2132380478551285,0.2132380478551285
0.2646404949578093,0.2646404949578093
0.4027845715462639,0.4027845715462639
0.6172291555527604,0.6172291555527604
0.7810744556925553,0.7810744556925553
0.7682238439168851,0.7682238439168851
0.6043785437770901,0.6043785437770901
0.5168337510553369,0.5168337510553369
0.5754646672818322,0.5754646672818322
0.6172291555527604,0.6172291555527604
0.4694471201325531,0.4694471201325531
0.2646404949578093,0.2646404949578093
0.20841906843925218,0.20841906843925218
0.3152397788245107,0.3152397788245107
0.36423273621925334,0.36423273621925334
0.2646404949578093,0.2646404949578093
0.13934703014502486,0.13934703014502486
0.16424509046038588,0.16424509046038588
0.26142784201389174,0.26142784201389174
0.2646404949578093,0.2646404949578093
0.15219764192069507,0.15219764192069507
0.11364580659368448,0.11364580659368448
0.17227672282017975,0.17227672282017975
0.16424509046038588,0.16424509046038588
0.009234585916364127,0.009234585916364127
-0.08794816563714174,-0.08794816563714174
-0.044577350894254825,-0.044577350894254825
-0.03734888177044034,-0.03734888177044034
-0.20119418191023536,-0.20119418191023536
-0.28954213786796795,-0.28954213786796795
-0.1032082671207501,-0.1032082671207501
0.16424509046038588,0.16424509046038588
0.14577233603285997,0.14577233603285997
-0.13854744950384312,-0.13854744950384312
-0.3883312158934326,-0.3883312158934326
-0.38993754236539135,-0.38993754236539135
-0.22689540546157574,-0.22689540546157574
-0.03734888177044034,-0.03734888177044034
0.05581805360316859,0.05581805360316859
0.013250402096261063,0.013250402096261063
-0.14416959215569886,-0.14416959215569886
-0.23894285400126655,-0.23894285400126655
-0.12569683772817294,-0.12569683772817294
0.16424509046038588,0.16424509046038588
0.3570042670954388,0.3570042670954388
0.2646404949578093,0.2646404949578093
-0.007631842039203006,-0.007631842039203006
-0.13854744950384312,-0.13854744950384312
-0.044577350894254825,-0.044577350894254825
0.06304652272698308,0.06304652272698308
-0.031726739118584625,-0.031726739118584625
-0.18834357013456515,-0.18834357013456515
-0.16424867305518354,-0.16424867305518354
0.06304652272698308,0.06304652272698308
0.24134876111440706,0.24134876111440706
0.21404121109110788,0.21404121109110788
0.04618009477141594,0.04618009477141594
-0.08794816563714174,-0.08794816563714174
-0.13774428626786375,-0.13774428626786375
-0.13854744950384312,-0.13854744950384312
-0.1281063274361111,-0.1281063274361111
-0.08794816563714174,-0.08794816563714174
-0.04056153471435789,-0.04056153471435789
-0.03734888177044034,-0.03734888177044034
-0.08232602298528602,-0.08232602298528602
-0.03734888177044034,-0.03734888177044034
0.21082855814719034,0.21082855814719034
0.6172291555527604,0.6172291555527604
0.9409039396524534,0.9409039396524534
0.9698178161477113,0.9698178161477113
0.618835482024719,0.618835482024719
0.013250402096261063,0.013250402096261063
-0.6196422278554962,-0.6196422278554962
-1.0453187429245714,-1.0453187429245714
-1.268598122526841,-1.268598122526841
-1.4477035241502445,-1.4477035241502445
-1.7127473920234422,-1.7127473920234422
-2.001886156976022,-2.001886156976022
-2.2918280851645805,-2.2918280851645805
-2.6066680736685,-2.6066680736685
-2.904641634216853,-2.904641634216853
-2.9592567342634513,-2.9592567342634513
-2.6741337854907687,-2.6741337854907687
-2.2034801292068478,-2.2034801292068478
-1.8010953479811749,-1.8010953479811749
-1.4983028080169458,-1.4983028080169458
-1.2396842460315831,-1.2396842460315831
-0.99471945905787,-0.99471945905787
-0.7577863044439508,-0.7577863044439508
-0.38993754236539135,-0.38993754236539135
0.16103243751646834,0.16103243751646834
0.7184277232861631,0.7184277232861631
0.9425102661244121,0.9425102661244121
0.7682238439168851,0.7682238439168851
0.45659650835688287,0.45659650835688287
0.3658390626912121,0.3658390626912121
0.5457476275505948,0.5457476275505948
0.7682238439168851,0.7682238439168851
0.7690270071528645,0.7690270071528645
0.5674330349220383,0.5674330349220383
0.3891307965346143,0.3891307965346143
0.4156351833219341,0.4156351833219341
0.5545824231463681,0.5545824231463681
0.6172291555527604,0.6172291555527604
0.5577950760902857,0.5577950760902857
0.5168337510553369,0.5168337510553369
0.5465507907865742,0.5465507907865742
0.5674330349220383,0.5674330349220383
0.5071957922235842,0.5071957922235842
0.4662344671886355,0.4662344671886355
0.4935420172119347,0.4935420172119347
0.5168337510553369,0.5168337510553369
0.45017120246904774,0.45017120246904774
0.4156351833219341,0.4156351833219341
0.5240622201791514,0.5240622201791514
0.7184277232861631,0.7184277232861631
0.7931219042322462,0.7931219042322462
0.7184277232861631,0.7184277232861631
0.6172291555527604,0.6172291555527604
0.6172291555527604,0.6172291555527604
0.6605999702956472,0.6605999702956472
0.6678284394194617,0.6678284394194617
0.6357019099802862,0.6357019099802862
0.6678284394194617,0.6678284394194617
0.7714364968608026,0.7714364968608026
0.8694224116502879,0.8694224116502879
0.8686192484143085,0.8686192484143085
0.8188231277835866,0.8188231277835866
0.7706333336248233,0.7706333336248233
0.7184277232861631,0.7184277232861631
0.587512115821523,0.587512115821523
0.4156351833219341,0.4156351833219341
0.28712906556523216,0.28712906556523216
0.2646404949578093,0.2646404949578093
0.2782942699694589,0.2782942699694589
0.2646404949578093,0.2646404949578093
0.19315896695564383,0.19315896695564383
0.11364580659368448,0.11364580659368448
0.03332948299574574,0.03332948299574574
-0.03734888177044034,-0.03734888177044034
-0.11123989948054397,-0.11123989948054397
-0.13854744950384312,-0.13854744950384312
-0.09517663476095622,-0.09517663476095622
0.013250402096261063,0.013250402096261063
0.08473193009842653,0.08473193009842653
0.06304652272698308,0.06304652272698308
-0.04779000383817237,-0.04779000383817237
-0.13854744950384312,-0.13854744950384312
-0.15621704069538966,-0.15621704069538966
-0.08794816563714174,-0.08794816563714174
0.0236915241639931,0.0236915241639931
0.16424509046038588,0.16424509046038588
0.24616774053028337,0.24616774053028337
0.21404121109110788,0.21404121109110788
0.09758254187409673,0.09758254187409673
0.06304652272698308,0.06304652272698308
0.15942611104450954,0.15942611104450954
0.2646404949578093,0.2646404949578093
0.21725386403502545,0.21725386403502545
0.06304652272698308,0.06304652272698308
-0.05341214649002808,-0.05341214649002808
-0.03734888177044034,-0.03734888177044034
0.08633825657038531,0.08633825657038531
0.2646404949578093,0.2646404949578093
0.37467385828698535,0.37467385828698535
0.3152397788245107,0.3152397788245107
0.12649641836935469,0.12649641836935469
0.013250402096261063,0.013250402096261063
0.06063703301904491,0.06063703301904491
0.16424509046038588,0.16424509046038588
0.1947652934276026,0.1947652934276026
0.21404121109110788,0.21404121109110788
0.2766879434975001,0.2766879434975001
0.3152397788245107,0.3152397788245107
0.19797794637152014,0.19797794637152014
-0.03734888177044034,-0.03734888177044034
-0.3369287687907518,-0.3369287687907518
-0.7425262029603424,-0.7425262029603424
-1.3689935270242646,-1.3689935270242646
-2.1030847247094244,-2.1030847247094244
-2.6572673575352015,-2.6572673575352015
-2.8082620458993266,-2.8082620458993266
-2.6926065399182946,-2.6926065399182946
-2.6066680736685,-2.6066680736685
-2.709472967873862,-2.709472967873862
-2.8082620458993266,-2.8082620458993266
-2.6572673575352015,-2.6572673575352015
-2.2034801292068478,-2.2034801292068478
-1.674998719932411,-1.674998719932411
-1.2469127151553976,-1.2469127151553976
-0.91600946193189,-0.91600946193189
-0.5409322307295161,-0.5409322307295161
-0.12569683772817294,-0.12569683772817294
0.21404121109110788,0.21404121109110788
0.3722643685790472,0.3722643685790472
0.4156351833219341,0.4156351833219341
0.43089528480554246,0.43089528480554246
0.4662344671886355,0.4662344671886355
0.5152274245833781,0.5152274245833781
0.6172291555527604,0.6172291555527604
0.7312783350618333,0.7312783350618333
0.7682238439168851,0.7682238439168851
0.6887106835549258,0.6887106835549258
0.6172291555527604,0.6172291555527604
0.6405208893961626,0.6405208893961626
0.7184277232861631,0.7184277232861631
0.765814354208947,0.765814354208947
0.8188231277835866,0.8188231277835866
0.8830761866619375,0.8830761866619375
0.8694224116502879,0.8694224116502879
0.6903170100268845,0.6903170100268845
0.4662344671886355,0.4662344671886355
0.359413756803377,0.359413756803377
0.4156351833219341,0.4156351833219341
0.523259056943172,0.523259056943172
0.6172291555527604,0.6172291555527604
0.6750569085432762,0.6750569085432762
0.7184277232861631,0.7184277232861631
0.7360973144777097,0.7360973144777097
0.7682238439168851,0.7682238439168851
0.815610474839669,0.815610474839669
0.8694224116502879,0.8694224116502879
0.8830761866619375,0.8830761866619375
0.8694224116502879,0.8694224116502879
0.8236421071994628,0.8236421071994628
0.7682238439168851,0.7682238439168851
0.7007581320946166,0.7007581320946166
0.6678284394194617,0.6678284394194617
0.680679051195132,0.680679051195132
0.7184277232861631,0.7184277232861631
0.6726474188353381,0.6726474188353381
0.5168337510553369,0.5168337510553369
0.34013783913987167,0.34013783913987167
0.3152397788245107,0.3152397788245107
0.4252731421536867,0.4252731421536867
0.5168337510553369,0.5168337510553369
0.46462814071667674,0.46462814071667674
0.3658390626912121,0.3658390626912121
0.31845243176842825,0.31845243176842825
0.3152397788245107,0.3152397788245107
0.2566088625980154,0.2566088625980154
0.16424509046038588,0.16424509046038588
0.09115723598626163,0.09115723598626163
0.06304652272698308,0.06304652272698308
0.013250402096261063,0.013250402096261063
-0.03734888177044034,-0.03734888177044034
-0.030923575882605237,-0.030923575882605237
0.06304652272698308,0.06304652272698308
0.10481101099791122,0.10481101099791122
0.013250402096261063,0.013250402096261063
-0.10802724653662642,-0.10802724653662642
-0.03734888177044034,-0.03734888177044034
0.16986723311224158,0.16986723311224158
0.2646404949578093,0.2646404949578093
0.14657549926883937,0.14657549926883937
0.06304652272698308,0.06304652272698308
0.15942611104450954,0.15942611104450954
0.2646404949578093,0.2646404949578093
0.15862294780853017,0.15862294780853017
0.013250402096261063,0.013250402096261063
0.1184647860095608,0.1184647860095608
0.4662344671886355,0.4662344671886355
0.6838917041390494,0.6838917041390494
0.5674330349220383,0.5674330349220383
0.28471957585729396,0.28471957585729396
0.16424509046038588,0.16424509046038588
0.22367916992286055,0.22367916992286055
0.2646404949578093,0.2646404949578093
0.1875368243037881,0.1875368243037881
0.16424509046038588,0.16424509046038588
0.2710658008456444,0.2710658008456444
0.3658390626912121,0.3658390626912121
0.29275120821708783,0.29275120821708783
0.16424509046038588,0.16424509046038588
0.08633825657038531,0.08633825657038531
0.013250402096261063,0.013250402096261063
-0.1088304097726058,-0.1088304097726058
-0.08794816563714174,-0.08794816563714174
0.17307988605615915,0.17307988605615915
0.4662344671886355,0.4662344671886355
0.4782819157283263,0.4782819157283263
0.2646404949578093,0.2646404949578093
0.10962999041378754,0.10962999041378754
0.16424509046038588,0.16424509046038588
0.2662468214297681,0.2662468214297681
0.2646404949578093,0.2646404949578093
0.156213458100592,0.156213458100592
0.06304652272698308,0.06304652272698308
0.010037749152343515,0.010037749152343515
-0.03734888177044034,-0.03734888177044034
-0.1152557156604409,-0.1152557156604409
-0.13854744950384312,-0.13854744950384312
-0.05100265678208992,-0.05100265678208992
0.11364580659368448,0.11364580659368448
0.21404121109110788,0.21404121109110788
0.21404121109110788,0.21404121109110788
0.18030835517997362,0.18030835517997362
0.21404121109110788,0.21404121109110788
0.27186896408162375,0.27186896408162375
0.2646404949578093,0.2646404949578093
0.15300080515667444,0.15300080515667444
0.06304652272698308,0.06304652272698308
0.11605529630162263,0.11605529630162263
0.3152397788245107,0.3152397788245107
0.47506926278440875,0.47506926278440875
0.4662344671886355,0.4662344671886355
0.33130304354409845,0.33130304354409845
0.2646404949578093,0.2646404949578093
0.3128302891165725,0.3128302891165725
0.3658390626912121,0.3658390626912121
0.29275120821708783,0.29275120821708783
0.16424509046038588,0.16424509046038588
0.0935667256941998,0.0935667256941998
0.11364580659368448,0.11364580659368448
0.11444896982966386,0.11444896982966386
0.06304652272698308,0.06304652272698308
0.013250402096261063,0.013250402096261063
0.06304652272698308,0.06304652272698308
0.1891431507757469,0.1891431507757469
0.3152397788245107,0.3152397788245107
0.35379161415152127,0.35379161415152127
0.3152397788245107,0.3152397788245107
0.21805702727100482,0.21805702727100482
0.11364580659368448,0.11364580659368448
0.03975478888358085,0.03975478888358085
0.06304652272698308,0.06304652272698308
0.14818182574079813,0.14818182574079813
0.21404121109110788,0.21404121109110788
0.19637161989956137,0.19637161989956137
0.16424509046038588,0.16424509046038588
0.15862294780853017,0.15862294780853017
0.16424509046038588,0.16424509046038588
0.13292172425718976,0.13292172425718976
0.11364580659368448,0.11364580659368448
0.10320468452595244,0.10320468452595244
0.06304652272698308,0.06304652272698308
-0.006828678803223619,-0.006828678803223619
0.013250402096261063,0.013250402096261063
0.11444896982966386,0.11444896982966386
0.16424509046038588,0.16424509046038588
0.0927635624582204,0.0927635624582204
0.06304652272698308,0.06304652272698308
0.14577233603285997,0.14577233603285997
0.21404121109110788,0.21404121109110788
0.14095335661698363,0.14095335661698363
0.06304652272698308,0.06304652272698308
0.0991888683460555,0.0991888683460555
0.16424509046038588,0.16424509046038588
0.10240152128997305,0.10240152128997305
0.013250402096261063,0.013250402096261063
0.056621216839147975,0.056621216839147975
0.21404121109110788,0.21404121109110788
0.2694594743736856,0.2694594743736856
0.16424509046038588,0.16424509046038588
0.03734529917564268,0.03734529917564268
0.06304652272698308,0.06304652272698308
0.1875368243037881,0.1875368243037881
0.2646404949578093,0.2646404949578093
0.20922223167523157,0.20922223167523157
0.11364580659368448,0.11364580659368448
0.0485895844793541,0.0485895844793541
0.013250402096261063,0.013250402096261063
-0.03493939206250218,-0.03493939206250218
-0.03734888177044034,-0.03734888177044034
0.04618009477141594,0.04618009477141594
0.16424509046038588,0.16424509046038588
0.20440325225935524,0.20440325225935524
0.16424509046038588,0.16424509046038588
0.0991888683460555,0.0991888683460555
0.06304652272698308,0.06304652272698308
0.05983386978306553,0.05983386978306553
0.11364580659368448,0.11364580659368448
0.19717478313554077,0.19717478313554077
0.2646404949578093,0.2646404949578093
0.28632590232925276,0.28632590232925276
0.3152397788245107,0.3152397788245107
0.320058758240387,0.320058758240387
0.21404121109110788,0.21404121109110788
-0.05501847296198686,-0.05501847296198686
-0.38993754236539135,-0.38993754236539135
-0.7545736515000332,-0.7545736515000332
-1.1963134312886963,-1.1963134312886963
-1.7512992273504528,-1.7512992273504528
-2.254079413073549,-2.254079413073549
-2.545627667734067,-2.545627667734067
-2.6066680736685,-2.6066680736685
-2.566509911869531,-2.566509911869531
-2.4556733853043755,-2.4556733853043755
-2.2524730866015905,-2.2524730866015905
-1.9520900363452998,-1.9520900363452998
-1.6669670875726172,-1.6669670875726172
-1.4477035241502445,-1.4477035241502445
-1.247715878391377,-1.247715878391377
-0.9441201751911686,-0.9441201751911686
-0.5545860057411658,-0.5545860057411658
-0.18834357013456515,-0.18834357013456515
0.038951625647601455,0.038951625647601455
0.16424509046038588,0.16424509046038588
0.23090763904667502,0.23090763904667502
0.2646404949578093,0.2646404949578093
0.25500253612605667,0.25500253612605667
0.2646404949578093,0.2646404949578093
0.3015860038128611,0.3015860038128611
0.3152397788245107,0.3152397788245107
0.24295508758636583,0.24295508758636583
0.16424509046038588,0.16424509046038588
0.1690640698762622,0.1690640698762622
0.2646404949578093,0.2646404949578093
0.359413756803377,0.359413756803377
0.4156351833219341,0.4156351833219341
0.4268794686256455,0.4268794686256455
0.4156351833219341,0.4156351833219341
0.39716242889440817,0.39716242889440817
0.4156351833219341,0.4156351833219341
0.43732059069337753,0.43732059069337753
0.4156351833219341,0.4156351833219341
0.35620110385945947,0.35620110385945947
0.3658390626912121,0.3658390626912121
0.4357142642214188,0.4357142642214188
0.4662344671886355,0.4662344671886355
0.4132256936139959,0.4132256936139959
0.4156351833219341,0.4156351833219341
0.5128179348754399,0.5128179348754399
0.5674330349220383,0.5674330349220383
0.4389269171653363,0.4389269171653363
0.2646404949578093,0.2646404949578093
0.22046651697894298,0.22046651697894298
0.3152397788245107,0.3152397788245107
0.3963592656584288,0.3963592656584288
0.4156351833219341,0.4156351833219341
0.3810991641748204,0.3810991641748204
0.3152397788245107,0.3152397788245107
0.24215192435038643,0.24215192435038643
0.2646404949578093,0.2646404949578093
0.3674453891631709,0.3674453891631709
0.4156351833219341,0.4156351833219341
0.30720814646471684,0.30720814646471684
0.16424509046038588,0.16424509046038588
0.10481101099791122,0.10481101099791122
0.11364580659368448,0.11364580659368448
0.09035407275028225,0.09035407275028225
0.06304652272698308,0.06304652272698308
0.05903070654708614,0.05903070654708614
0.06304652272698308,0.06304652272698308
0.03975478888358085,0.03975478888358085
0.06304652272698308,0.06304652272698308
0.13613437720110733,0.13613437720110733
0.16424509046038588,0.16424509046038588
0.05019591095131288,0.05019591095131288
-0.08794816563714174,-0.08794816563714174
-0.10561775682868825,-0.10561775682868825
0.013250402096261063,0.013250402096261063
0.10962999041378754,0.10962999041378754
0.11364580659368448,0.11364580659368448
0.06625917567090063,0.06625917567090063
0.06304652272698308,0.06304652272698308
0.07910978744657082,0.07910978744657082
0.06304652272698308,0.06304652272698308
-0.004419189095285457,-0.004419189095285457
-0.03734888177044034,-0.03734888177044034
-0.002009699387347295,-0.002009699387347295
0.06304652272698308,0.06304652272698308
0.049392747715333495,0.049392747715333495
-0.03734888177044034,-0.03734888177044034
-0.11605887889642029,-0.11605887889642029
-0.08794816563714174,-0.08794816563714174
-0.002009699387347295,-0.002009699387347295
0.06304652272698308,0.06304652272698308
0.07750346097461205,0.07750346097461205
0.11364580659368448,0.11364580659368448
0.16424509046038588,0.16424509046038588
0.16424509046038588,0.16424509046038588
0.06304652272698308,0.06304652272698308
-0.03734888177044034,-0.03734888177044034
-0.0646564317937395,-0.0646564317937395
-0.03734888177044034,-0.03734888177044034
-0.03815204500641972,-0.03815204500641972
-0.03734888177044034,-0.03734888177044034
-0.002009699387347295,-0.002009699387347295
0.06304652272698308,0.06304652272698308
0.09597621540213795,0.09597621540213795
0.11364580659368448,0.11364580659368448
0.12087427571749897,0.12087427571749897
0.11364580659368448,0.11364580659368448
0.0742908080306945,0.0742908080306945
0.06304652272698308,0.06304652272698308
0.08955090951430286,0.08955090951430286
0.11364580659368448,0.11364580659368448
0.08473193009842653,0.08473193009842653
0.06304652272698308,0.06304652272698308
0.08312560362646776,0.08312560362646776
0.11364580659368448,0.11364580659368448
0.06304652272698308,0.06304652272698308
-0.03734888177044034,-0.03734888177044034
-0.09517663476095622,-0.09517663476095622
-0.03734888177044034,-0.03734888177044034
0.04778642124337472,0.04778642124337472
0.06304652272698308,0.06304652272698308
-0.005222352331264844,-0.005222352331264844
-0.03734888177044034,-0.03734888177044034
0.0036124432645084164,0.0036124432645084164
0.06304652272698308,0.06304652272698308
0.05340856389523043,0.05340856389523043
0.013250402096261063,0.013250402096261063
-0.0204824538148732,-0.0204824538148732
-0.03734888177044034,-0.03734888177044034
-0.05983745237786318,-0.05983745237786318
-0.03734888177044034,-0.03734888177044034
0.025297850635951875,0.025297850635951875
0.06304652272698308,0.06304652272698308
0.016463055040178615,0.016463055040178615
-0.03734888177044034,-0.03734888177044034
-0.016466637634976265,-0.016466637634976265
0.06304652272698308,0.06304652272698308
0.09517305216615857,0.09517305216615857
0.06304652272698308,0.06304652272698308
0.04296744182749839,0.04296744182749839
0.11364580659368448,0.11364580659368448
0.2268918228667781,0.2268918228667781
0.3152397788245107,0.3152397788245107
0.36262640974729454,0.36262640974729454
0.4156351833219341,0.4156351833219341
0.3923434494785319,0.3923434494785319
0.16424509046038588,0.16424509046038588
-0.2815105055081741,-0.2815105055081741
-0.7425262029603424,-0.7425262029603424
-1.1055559856230255,-1.1055559856230255
-1.4477035241502445,-1.4477035241502445
-1.8982780995346806,-1.8982780995346806
-2.355277980806952,-2.355277980806952
-2.656464194299222,-2.656464194299222
-2.7576627620326253,-2.7576627620326253
-2.7673007208643776,-2.7673007208643776
-2.7078666414019033,-2.7078666414019033
-2.543218178026129,-2.543218178026129
-2.254079413073549,-2.254079413073549
-1.9376330980976706,-1.9376330980976706
-1.6492974963810707,-1.6492974963810707
-1.390678934395708,-1.390678934395708
-1.0951148635552934,-1.0951148635552934
-0.7706369162196209,-0.7706369162196209
-0.4405368262320928,-0.4405368262320928
-0.16264234658322477,-0.16264234658322477
0.06304652272698308,0.06304652272698308
0.2068127419672934,0.2068127419672934
0.2646404949578093,0.2646404949578093
0.24054559787842766,0.24054559787842766
0.21404121109110788,0.21404121109110788
0.22849814933873686,0.22849814933873686
0.2646404949578093,0.2646404949578093
0.2389392714064689,0.2389392714064689
0.16424509046038588,0.16424509046038588
0.15460713162863324,0.15460713162863324
0.3152397788245107,0.3152397788245107
0.5377159951908009,0.5377159951908009
0.6172291555527604,0.6172291555527604
0.4831008951442026,0.4831008951442026
0.3152397788245107,0.3152397788245107
0.2646404949578093,0.2646404949578093
0.3152397788245107,0.3152397788245107
0.36102008327533575,0.36102008327533575
0.4156351833219341,0.4156351833219341
0.483904058380182,0.483904058380182
0.5168337510553369,0.5168337510553369
0.47346293631245,0.47346293631245
0.4662344671886355,0.4662344671886355
0.5441413010786361,0.5441413010786361
0.6172291555527604,0.6172291555527604
0.548157117258533,0.548157117258533
0.4156351833219341,0.4156351833219341
0.3706580421070884,0.3706580421070884
0.4662344671886355,0.4662344671886355
0.5738583408098734,0.5738583408098734
0.6172291555527604,0.6172291555527604
0.6083943599569871,0.6083943599569871
0.6172291555527604,0.6172291555527604
0.612410176136884,0.612410176136884
0.5674330349220383,0.5674330349220383
0.49996732309976977,0.49996732309976977
0.5168337510553369,0.5168337510553369
0.6067880334850283,0.6067880334850283
0.6678284394194617,0.6678284394194617
0.6083943599569871,0.6083943599569871
0.5168337510553369,0.5168337510553369
0.48631354808812016,0.48631354808812016
0.5168337510553369,0.5168337510553369
0.4975578333918316,0.4975578333918316
0.4156351833219341,0.4156351833219341
0.3136334523525519,0.3136334523525519
0.2646404949578093,0.2646404949578093
0.2799005964414176,0.2799005964414176
0.3658390626912121,0.3658390626912121
0.4405332436372951,0.4405332436372951
0.4156351833219341,0.4156351833219341
0.26062467877791234,0.26062467877791234
0.11364580659368448,0.11364580659368448
0.10722050070584938,0.10722050070584938
0.2646404949578093,0.2646404949578093
0.44133640687327447,0.44133640687327447
0.5168337510553369,0.5168337510553369
0.4349111009854394,0.4349111009854394
0.2646404949578093,0.2646404949578093
0.07830662421059144,0.07830662421059144
-0.03734888177044034,-0.03734888177044034
-0.07188490091755399,-0.07188490091755399
-0.03734888177044034,-0.03734888177044034
-0.015663474398996877,-0.015663474398996877
-0.03734888177044034,-0.03734888177044034
-0.08875132887312112,-0.08875132887312112
-0.08794816563714174,-0.08794816563714174
-0.049396330310131145,-0.049396330310131145
-0.03734888177044034,-0.03734888177044034
-0.11043673624456458,-0.11043673624456458
-0.18834357013456515,-0.18834357013456515
-0.20280050838219413,-0.20280050838219413
-0.13854744950384312,-0.13854744950384312
-0.07509755386147154,-0.07509755386147154
-0.03734888177044034,-0.03734888177044034
-0.034136228826522785,-0.034136228826522785
-0.03734888177044034,-0.03734888177044034
-0.05421530972600747,-0.05421530972600747
-0.03734888177044034,-0.03734888177044034
0.0236915241639931,0.0236915241639931
0.11364580659368448,0.11364580659368448
0.12408692866141652,0.12408692866141652
0.013250402096261063,0.013250402096261063
-0.14497275539167823,-0.14497275539167823
-0.18834357013456515,-0.18834357013456515
-0.12650000096415231,-0.12650000096415231
-0.08794816563714174,-0.08794816563714174
-0.13854744950384312,-0.13854744950384312
-0.13854744950384312,-0.13854744950384312
-0.03252990235456401,-0.03252990235456401
0.06304652272698308,0.06304652272698308
0.03975478888358085,0.03975478888358085
0.013250402096261063,0.013250402096261063
0.06545601243492123,0.06545601243492123
0.16424509046038588,0.16424509046038588
0.31764926853244885,0.31764926853244885
0.6678284394194617,0.6678284394194617
1.0637879147572997,1.0637879147572997
1.0710163838811142,1.0710163838811142
0.5063926289876048,0.5063926289876048
-0.18834357013456515,-0.18834357013456515
-0.5754682498766298,-0.5754682498766298
-0.6927300823296204,-0.6927300823296204
-0.7762590588714766,-0.7762590588714766
-0.7425262029603424,-0.7425262029603424
-0.4839076409749797,-0.4839076409749797
-0.18834357013456515,-0.18834357013456515
-0.1088304097726058,-0.1088304097726058
-0.13854744950384312,-0.13854744950384312
-0.09357030828899744,-0.09357030828899744
-0.03734888177044034,-0.03734888177044034
-0.11123989948054397,-0.11123989948054397
-0.18834357013456515,-0.18834357013456515
-0.11846836860435846,-0.11846836860435846
0.013250402096261063,0.013250402096261063
0.03252631975976636,0.03252631975976636
0.013250402096261063,0.013250402096261063
0.09758254187409673,0.09758254187409673
0.2646404949578093,0.2646404949578093
0.3578074303314182,0.3578074303314182
0.3658390626912121,0.3658390626912121
0.3353188597239954,0.3353188597239954
0.2646404949578093,0.2646404949578093
0.06625917567090063,0.06625917567090063
-0.23894285400126655,-0.23894285400126655
-0.573861923404671,-0.573861923404671
-0.8943240545604466,-0.8943240545604466
-1.2806455710665319,-1.2806455710665319
-1.7504960641144733,-1.7504960641144733
-2.199464313026951,-2.199464313026951
-2.4556733853043755,-2.4556733853043755
-2.5448245044980875,-2.5448245044980875
-2.6066680736685,-2.6066680736685
-2.6877875605024184,-2.6877875605024184
-2.6066680736685,-2.6066680736685
-2.27978063662489,-2.27978063662489
-1.850891468611897,-1.850891468611897
-1.5448862757037503,-1.5448862757037503
-1.347308119652821,-1.347308119652821
-1.1473204738939535,-1.1473204738939535
-0.8943240545604466,-0.8943240545604466
-0.6349023293391045,-0.6349023293391045
-0.3401414217346693,-0.3401414217346693
-0.014860311163017491,-0.014860311163017491
0.2646404949578093,0.2646404949578093
0.3891307965346143,0.3891307965346143
0.4156351833219341,0.4156351833219341
0.4357142642214188,0.4357142642214188
0.4662344671886355,0.4662344671886355
0.40760355096214024,0.40760355096214024
0.2646404949578093,0.2646404949578093
0.16344192722440648,0.16344192722440648
0.2646404949578093,0.2646404949578093
0.5529760966744093,0.5529760966744093
0.8694224116502879,0.8694224116502879
1.022826589722351,1.022826589722351
0.9698178161477113,0.9698178161477113
0.776255476276679,0.776255476276679
0.5674330349220383,0.5674330349220383
0.4244699789177074,0.4244699789177074
0.4156351833219341,0.4156351833219341
0.5079989554595636,0.5079989554595636
0.6172291555527604,0.6172291555527604
0.618835482024719,0.618835482024719
0.5168337510553369,0.5168337510553369
0.40680038772616084,0.40680038772616084
0.4156351833219341,0.4156351833219341
0.5160305878193575,0.5160305878193575
0.6172291555527604,0.6172291555527604
0.6597968070596678,0.6597968070596678
0.7184277232861631,0.7184277232861631
0.8099883321878133,0.8099883321878133
0.8694224116502879,0.8694224116502879
0.7995472101200812,0.7995472101200812
0.6678284394194617,0.6678284394194617
0.5826931364056467,0.5826931364056467
0.6172291555527604,0.6172291555527604
0.7377036409496684,0.7377036409496684
0.9200216955169893,0.9200216955169893
1.0758353632969904,1.0758353632969904
1.1208125045118362,1.1208125045118362
1.0188107735424539,1.0188107735424539
0.8694224116502879,0.8694224116502879
0.7087897644544104,0.7087897644544104
0.5168337510553369,0.5168337510553369
0.29275120821708783,0.29275120821708783
0.16424509046038588,0.16424509046038588
0.1489849889767775,0.1489849889767775
0.16424509046038588,0.16424509046038588
0.19797794637152014,0.19797794637152014
0.4156351833219341,0.4156351833219341
0.776255476276679,0.776255476276679
0.9698178161477113,0.9698178161477113
0.7553732321412149,0.7553732321412149
0.3152397788245107,0.3152397788245107
-0.0895544921091005,-0.0895544921091005
-0.38993754236539135,-0.38993754236539135
-0.6003663101919908,-0.6003663101919908
-0.5409322307295161,-0.5409322307295161
-0.15139806127951333,-0.15139806127951333
0.3152397788245107,0.3152397788245107
0.49434518044791403,0.49434518044791403
0.3658390626912121,0.3658390626912121
0.09196039922224102,0.09196039922224102
-0.18834357013456515,-0.18834357013456515
-0.41162294973683483,-0.41162294973683483
-0.4405368262320928,-0.4405368262320928
-0.29114846433992675,-0.29114846433992675
-0.13854744950384312,-0.13854744950384312
-0.09999561417683255,-0.09999561417683255
-0.03734888177044034,-0.03734888177044034
0.10400784776193182,0.10400784776193182
0.16424509046038588,0.16424509046038588
0.0020061167925496414,0.0020061167925496414
-0.18834357013456515,-0.18834357013456515
-0.19075305984250332,-0.19075305984250332
-0.03734888177044034,-0.03734888177044034
0.05340856389523043,0.05340856389523043
0.06304652272698308,0.06304652272698308
0.1184647860095608,0.1184647860095608
0.2646404949578093,0.2646404949578093
0.34013783913987167,0.34013783913987167
0.2646404949578093,0.2646404949578093
0.1441660095609012,0.1441660095609012
0.16424509046038588,0.16424509046038588
0.2782942699694589,0.2782942699694589
0.3152397788245107,0.3152397788245107
0.21645070079904605,0.21645070079904605
0.16424509046038588,0.16424509046038588
0.245364577294304,0.245364577294304
0.3152397788245107,0.3152397788245107
0.17147355958420035,0.17147355958420035
-0.08794816563714174,-0.08794816563714174
-0.2228795892816788,-0.2228795892816788
-0.13854744950384312,-0.13854744950384312
-0.01245082145507933,-0.01245082145507933
0.013250402096261063,0.013250402096261063
-0.04297102442229605,-0.04297102442229605
-0.03734888177044034,-0.03734888177044034
0.055014890367189206,0.055014890367189206
0.16424509046038588,0.16424509046038588
0.17789886547203546,0.17789886547203546
0.11364580659368448,0.11364580659368448
0.05019591095131288,0.05019591095131288
0.06304652272698308,0.06304652272698308
0.08794458304234408,0.08794458304234408
0.06304652272698308,0.06304652272698308
0.002809280028529029,0.002809280028529029
0.013250402096261063,0.013250402096261063
0.08071611391852959,0.08071611391852959
0.11364580659368448,0.11364580659368448
0.05340856389523043,0.05340856389523043
0.013250402096261063,0.013250402096261063
0.06545601243492123,0.06545601243492123
0.16424509046038588,0.16424509046038588
0.17870202870801485,0.17870202870801485
0.11364580659368448,0.11364580659368448
0.0236915241639931,0.0236915241639931
-0.03734888177044034,-0.03734888177044034
-0.07268806415353338,-0.07268806415353338
-0.03734888177044034,-0.03734888177044034
0.05019591095131288,0.05019591095131288
0.11364580659368448,0.11364580659368448
0.06706233890688001,0.06706233890688001
-0.03734888177044034,-0.03734888177044034
-0.11927153184033784,-0.11927153184033784
-0.13854744950384312,-0.13854744950384312
-0.09919245094085316,-0.09919245094085316
0.013250402096261063,0.013250402096261063
0.13452805072914856,0.13452805072914856
0.16424509046038588,0.16424509046038588
0.0927635624582204,0.0927635624582204
0.06304652272698308,0.06304652272698308
0.11525213306564325,0.11525213306564325
0.16424509046038588,0.16424509046038588
0.1762925390000767,0.1762925390000767
0.2646404949578093,0.2646404949578093
0.34897263473564494,0.34897263473564494
0.16424509046038588,0.16424509046038588
-0.374677440881783,-0.374677440881783
-0.9441201751911686,-0.9441201751911686
-1.3344575078771508,-1.3344575078771508
-1.699896780247772,-1.699896780247772
-2.229984515994168,-2.229984515994168
-2.7078666414019033,-2.7078666414019033
-2.8853657165533475,-2.8853657165533475
-2.858861329766028,-2.858861329766028
-2.9014289812729355,-2.9014289812729355
-2.9592567342634513,-2.9592567342634513
-2.8058525561913883,-2.8058525561913883
-2.405074101437674,-2.405074101437674
-2.0059019731559187,-2.0059019731559187
-1.7504960641144733,-1.7504960641144733
-1.5850444375027197,-1.5850444375027197
-1.347308119652821,-1.347308119652821
-0.9890973164060143,-0.9890973164060143
-0.5409322307295161,-0.5409322307295161
-0.12569683772817294,-0.12569683772817294
0.16424509046038588,0.16424509046038588
0.27267212731760315,0.27267212731760315
0.2646404949578093,0.2646404949578093
0.21886019050698421,0.21886019050698421
0.21404121109110788,0.21404121109110788
0.24215192435038643,0.24215192435038643
0.2646404949578093,0.2646404949578093
0.22930131257471625,0.22930131257471625
0.16424509046038588,0.16424509046038588
0.12328376542543712,0.12328376542543712
0.16424509046038588,0.16424509046038588
0.2758847802615207,0.2758847802615207
0.4156351833219341,0.4156351833219341
0.5055894657516254,0.5055894657516254
0.5168337510553369,0.5168337510553369
0.46543130395265614,0.46543130395265614
0.4156351833219341,0.4156351833219341
0.369854878871109,0.369854878871109
0.3152397788245107,0.3152397788245107
0.25259304641811847,0.25259304641811847
0.2646404949578093,0.2646404949578093
0.3722643685790472,0.3722643685790472
0.5168337510553369,0.5168337510553369
0.5682361981580177,0.5682361981580177
0.5168337510553369,0.5168337510553369
0.43250161127750125,0.43250161127750125
0.4156351833219341,0.4156351833219341
0.43089528480554246,0.43089528480554246
0.4156351833219341,0.4156351833219341
0.3465631450277068,0.3465631450277068
0.3152397788245107,0.3152397788245107
0.35218528767956253,0.35218528767956253
0.4156351833219341,0.4156351833219341
0.4260763053896661,0.4260763053896661
0.4156351833219341,0.4156351833219341
0.409209877434099,0.409209877434099
0.4156351833219341,0.4156351833219341
0.41884783626585165,0.41884783626585165
0.4662344671886355,0.4662344671886355
0.5224558937071926,0.5224558937071926
0.5168337510553369,0.5168337510553369
0.43410793774946,0.43410793774946
0.4156351833219341,0.4156351833219341
0.4855103848521408,0.4855103848521408
0.5168337510553369,0.5168337510553369
0.40037508183832576,0.40037508183832576
0.2646404949578093,0.2646404949578093
0.21645070079904605,0.21645070079904605
0.21404121109110788,0.21404121109110788
0.16986723311224158,0.16986723311224158
0.16424509046038588,0.16424509046038588
0.22930131257471625,0.22930131257471625
0.2646404949578093,0.2646404949578093
0.16826090664028281,0.16826090664028281
0.06304652272698308,0.06304652272698308
0.06063703301904491,0.06063703301904491
0.11364580659368448,0.11364580659368448
0.09436988893017918,0.09436988893017918
0.06304652272698308,0.06304652272698308
0.09838570511007612,0.09838570511007612
0.16424509046038588,0.16424509046038588
0.12649641836935469,0.12649641836935469
0.013250402096261063,0.013250402096261063
-0.06305010532178074,-0.06305010532178074
-0.03734888177044034,-0.03734888177044034
0.009234585916364127,0.009234585916364127
0.013250402096261063,0.013250402096261063
-0.022088780286831977,-0.022088780286831977
-0.03734888177044034,-0.03734888177044034
-0.03493939206250218,-0.03493939206250218
-0.03734888177044034,-0.03734888177044034
-0.05501847296198686,-0.05501847296198686
-0.03734888177044034,-0.03734888177044034
0.026904177107910647,0.026904177107910647
0.11364580659368448,0.11364580659368448
0.1690640698762622,0.1690640698762622
0.21404121109110788,0.21404121109110788
0.25982151554193295,0.25982151554193295
0.2646404949578093,0.2646404949578093
0.08392876686244714,0.08392876686244714
-0.3401414217346693,-0.3401414217346693
-0.9288600737075602,-0.9288600737075602
-1.4983028080169458,-1.4983028080169458
-2.0059019731559187,-2.0059019731559187
-2.506272669171077,-2.506272669171077
-3.0251161196137613,-3.0251161196137613
-3.413043962591805,-3.413043962591805
-3.556007018596136,-3.556007018596136
-3.462840083222527,-3.462840083222527
-3.2275132550805665,-3.2275132550805665
-2.858861329766028,-2.858861329766028
-2.4163183867413855,-2.4163183867413855
-2.001886156976022,-2.001886156976022
-1.6693765772805553,-1.6693765772805553
-1.2967088357861196,-1.2967088357861196
-0.8356931383339513,-0.8356931383339513
-0.38993754236539135,-0.38993754236539135
-0.10722408330064703,-0.10722408330064703
0.06304652272698308,0.06304652272698308
0.1891431507757469,0.1891431507757469
0.2646404949578093,0.2646404949578093
0.25259304641811847,0.25259304641811847
0.2646404949578093,0.2646404949578093
0.37628018475894415,0.37628018475894415
0.5168337510553369,0.5168337510553369
0.5280780363590484,0.5280780363590484
0.4156351833219341,0.4156351833219341
0.31122396264461377,0.31122396264461377
0.3152397788245107,0.3152397788245107
0.3770833479949235,0.3770833479949235
0.4156351833219341,0.4156351833219341
0.39716242889440817,0.39716242889440817
0.3658390626912121,0.3658390626912121
0.3353188597239954,0.3353188597239954
0.3152397788245107,0.3152397788245107
0.3120271258805931,0.3120271258805931
0.3658390626912121,0.3658390626912121
0.4260763053896661,0.4260763053896661
0.4156351833219341,0.4156351833219341
0.31764926853244885,0.31764926853244885
0.2646404949578093,0.2646404949578093
0.31925559500440764,0.31925559500440764
0.4156351833219341,0.4156351833219341
0.4365174274573982,0.4365174274573982
0.4156351833219341,0.4156351833219341
0.40680038772616084,0.40680038772616084
0.4156351833219341,0.4156351833219341
0.4011782450743051,0.4011782450743051
0.4156351833219341,0.4156351833219341
0.4726597730764706,0.4726597730764706
0.5168337510553369,0.5168337510553369
0.46302181424471794,0.46302181424471794
0.3658390626912121,0.3658390626912121
0.29194804498110843,0.29194804498110843
0.2646404949578093,0.2646404949578093
0.23412029199059256,0.23412029199059256
0.21404121109110788,0.21404121109110788
0.19637161989956137,0.19637161989956137
0.16424509046038588,0.16424509046038588
0.08392876686244714,0.08392876686244714
0.013250402096261063,0.013250402096261063
-0.023695106758790753,-0.023695106758790753
-0.03734888177044034,-0.03734888177044034
-0.08473551269322419,-0.08473551269322419
-0.13854744950384312,-0.13854744950384312
-0.17629612159487434,-0.17629612159487434
-0.18834357013456515,-0.18834357013456515
-0.2172574466298231,-0.2172574466298231
-0.23894285400126655,-0.23894285400126655
-0.23412387458539022,-0.23412387458539022
-0.18834357013456515,-0.18834357013456515
-0.16826448923508047,-0.16826448923508047
-0.18834357013456515,-0.18834357013456515
-0.2228795892816788,-0.2228795892816788
-0.18834357013456515,-0.18834357013456515
-0.10481459359270887,-0.10481459359270887
-0.03734888177044034,-0.03734888177044034
-0.051805820018069305,-0.051805820018069305
-0.08794816563714174,-0.08794816563714174
-0.08794816563714174,-0.08794816563714174
-0.03734888177044034,-0.03734888177044034
-0.016466637634976265,-0.016466637634976265
-0.03734888177044034,-0.03734888177044034
-0.06545959502971889,-0.06545959502971889
-0.03734888177044034,-0.03734888177044034
0.006021932972446578,0.006021932972446578
0.013250402096261063,0.013250402096261063
-0.04377418765827543,-0.04377418765827543
-0.08794816563714174,-0.08794816563714174
-0.08232602298528602,-0.08232602298528602
-0.03734888177044034,-0.03734888177044034
-0.02449826999477014,-0.02449826999477014
-0.03734888177044034,-0.03734888177044034
-0.051805820018069305,-0.051805820018069305
-0.03734888177044034,-0.03734888177044034
-0.031726739118584625,-0.031726739118584625
-0.03734888177044034,-0.03734888177044034
-0.05341214649002808,-0.05341214649002808
-0.03734888177044034,-0.03734888177044034
0.005218769736467191,0.005218769736467191
0.06304652272698308,0.06304652272698308
0.0678655021428594,0.0678655021428594
0.013250402096261063,0.013250402096261063
-0.05421530972600747,-0.05421530972600747
-0.03734888177044034,-0.03734888177044034
0.03332948299574574,0.03332948299574574
0.06304652272698308,0.06304652272698308
0.00843142268038474,0.00843142268038474
-0.03734888177044034,-0.03734888177044034
-0.01887612734291443,-0.01887612734291443
0.013250402096261063,0.013250402096261063
-0.014057147927038105,-0.014057147927038105
-0.03734888177044034,-0.03734888177044034
0.02610101387193126,0.02610101387193126
0.16424509046038588,0.16424509046038588
0.25500253612605667,0.25500253612605667
0.2646404949578093,0.2646404949578093
0.24375825082234523,0.24375825082234523
0.2646404949578093,0.2646404949578093
0.2823100861493558,0.2823100861493558
0.21404121109110788,0.21404121109110788
-0.017269800870955653,-0.017269800870955653
-0.38993754236539135,-0.38993754236539135
-0.8581817089413741,-0.8581817089413741
-1.347308119652821,-1.347308119652821
-1.842859836252103,-1.842859836252103
-2.304678696940251,-2.304678696940251
-2.699835009042109,-2.699835009042109
-2.9592567342634513,-2.9592567342634513
-3.07892805642438,-3.07892805642438
-3.0604553019968543,-3.0604553019968543
-2.923917551880358,-2.923917551880358
-2.6572673575352015,-2.6572673575352015
-2.3271672675476736,-2.3271672675476736
-2.001886156976022,-2.001886156976022
-1.7183695346752978,-1.7183695346752978
-1.3979074035195225,-1.3979074035195225
-1.023633335553128,-1.023633335553128
-0.642130798462919,-0.642130798462919
-0.324881320251061,-0.324881320251061
-0.03734888177044034,-0.03734888177044034
0.20841906843925218,0.20841906843925218
0.3658390626912121,0.3658390626912121
0.39957191860234637,0.39957191860234637
0.4156351833219341,0.4156351833219341
0.4702502833685324,0.4702502833685324
0.5168337510553369,0.5168337510553369
0.47587242602038815,0.47587242602038815
0.4156351833219341,0.4156351833219341
0.4284857950976043,0.4284857950976043
0.5168337510553369,0.5168337510553369
0.5883152790575024,0.5883152790575024
0.6172291555527604,0.6172291555527604
0.6196386452606985,0.6196386452606985
0.6172291555527604,0.6172291555527604
0.5899216055294612,0.5899216055294612
0.5674330349220383,0.5674330349220383
0.5859057893495642,0.5859057893495642
0.6678284394194617,0.6678284394194617
0.730475171825854,0.730475171825854
0.7184277232861631,0.7184277232861631
0.6437335423400801,0.6437335423400801
0.6172291555527604,0.6172291555527604
0.6597968070596678,0.6597968070596678
0.7184277232861631,0.7184277232861631
0.7208372129941013,0.7208372129941013
0.7184277232861631,0.7184277232861631
0.7385068041856478,0.7385068041856478
0.7682238439168851,0.7682238439168851
0.7601922115570913,0.7601922115570913
0.7682238439168851,0.7682238439168851
0.8140041483677102,0.8140041483677102
0.8694224116502879,0.8694224116502879
0.8702255748862673,0.8702255748862673
0.8694224116502879,0.8694224116502879
0.9055647572693604,0.9055647572693604
0.9698178161477113,0.9698178161477113
0.9882905705752373,0.9882905705752373
0.9698178161477113,0.9698178161477113
0.9264470014048244,0.9264470014048244
0.8694224116502879,0.8694224116502879
0.7818776189285347,0.7818776189285347
0.7184277232861631,0.7184277232861631
0.687104357082967,0.687104357082967
0.6678284394194617,0.6678284394194617
0.6003627275971932,0.6003627275971932
0.5168337510553369,0.5168337510553369
0.448564875997089,0.448564875997089
0.4156351833219341,0.4156351833219341
0.3690517156351296,0.3690517156351296
0.3152397788245107,0.3152397788245107
0.2686563111377062,0.2686563111377062
0.2646404949578093,0.2646404949578093
0.270262637609665,0.270262637609665
0.2646404949578093,0.2646404949578093
0.21564753756306668,0.21564753756306668
0.16424509046038588,0.16424509046038588
0.1369375404370867,0.1369375404370867
0.16424509046038588,0.16424509046038588
0.18512733459584996,0.18512733459584996
0.16424509046038588,0.16424509046038588
0.09517305216615857,0.09517305216615857
0.06304652272698308,0.06304652272698308
0.0935667256941998,0.0935667256941998
0.16424509046038588,0.16424509046038588
0.18673366106780873,0.18673366106780873
0.16424509046038588,0.16424509046038588
0.1369375404370867,0.1369375404370867
0.16424509046038588,0.16424509046038588
0.18994631401172626,0.18994631401172626
0.16424509046038588,0.16424509046038588
0.0871414198063647,0.0871414198063647
0.06304652272698308,0.06304652272698308
0.10962999041378754,0.10962999041378754
0.16424509046038588,0.16424509046038588
0.14577233603285997,0.14577233603285997
0.11364580659368448,0.11364580659368448
0.12007111248151957,0.12007111248151957
0.16424509046038588,0.16424509046038588
0.17709570223605609,0.17709570223605609
0.16424509046038588,0.16424509046038588
0.12328376542543712,0.12328376542543712
0.06304652272698308,0.06304652272698308
-0.002812862623326682,-0.002812862623326682
0.013250402096261063,0.013250402096261063
0.09758254187409673,0.09758254187409673
0.16424509046038588,0.16424509046038588
0.13934703014502486,0.13934703014502486
0.11364580659368448,0.11364580659368448
0.13613437720110733,0.13613437720110733
0.16424509046038588,0.16424509046038588
0.131315397785231,0.131315397785231
0.11364580659368448,0.11364580659368448
0.15942611104450954,0.15942611104450954
0.21404121109110788,0.21404121109110788
0.19797794637152014,0.19797794637152014
0.16424509046038588,0.16424509046038588
0.16424509046038588,0.16424509046038588
0.16424509046038588,0.16424509046038588
0.10802366394182876,0.10802366394182876
0.06304652272698308,0.06304652272698308
0.09035407275028225,0.09035407275028225
0.16424509046038588,0.16424509046038588
0.22207284345090175,0.22207284345090175
0.3152397788245107,0.3152397788245107
0.4718566098404912,0.4718566098404912
0.6172291555527604,0.6172291555527604
0.5907247687654406,0.5907247687654406
0.3658390626912121,0.3658390626912121
0.009234585916364127,0.009234585916364127
-0.38993754236539135,-0.38993754236539135
-0.8429216074577658,-0.8429216074577658
-1.347308119652821,-1.347308119652821
-1.8854274877590105,-1.8854274877590105
-2.355277980806952,-2.355277980806952
-2.6781496016706656,-2.6781496016706656
-2.8082620458993266,-2.8082620458993266
-2.813884188551182,-2.813884188551182
-2.7576627620326253,-2.7576627620326253
-2.660480010479119,-2.660480010479119
-2.4556733853043755,-2.4556733853043755
-2.1625188041718992,-2.1625188041718992
-1.850891468611897,-1.850891468611897
-1.5850444375027197,-1.5850444375027197
-1.2967088357861196,-1.2967088357861196
-0.9417106854832304,-0.9417106854832304
-0.5409322307295161,-0.5409322307295161
-0.20039101867425596,-0.20039101867425596
0.06304652272698308,0.06304652272698308
0.2445614140583246,0.2445614140583246
0.3658390626912121,0.3658390626912121
0.4108162039060578,0.4108162039060578
0.4156351833219341,0.4156351833219341
0.3810991641748204,0.3810991641748204
0.3152397788245107,0.3152397788245107
0.24295508758636583,0.24295508758636583
0.2646404949578093,0.2646404949578093
0.4011782450743051,0.4011782450743051
0.5674330349220383,0.5674330349220383
0.637308236452245,0.637308236452245
0.6172291555527604,0.6172291555527604
0.587512115821523,0.587512115821523
0.6172291555527604,0.6172291555527604
0.6750569085432762,0.6750569085432762
0.7184277232861631,0.7184277232861631
0.705577111510493,0.705577111510493
0.6678284394194617,0.6678284394194617
0.6397177261601832,0.6397177261601832
0.6678284394194617,0.6678284394194617
0.7087897644544104,0.7087897644544104
0.7184277232861631,0.7184277232861631
0.6638126232395648,0.6638126232395648
0.6172291555527604,0.6172291555527604
0.6172291555527604,0.6172291555527604
0.6678284394194617,0.6678284394194617
0.7031676218025548,0.7031676218025548
0.7184277232861631,0.7184277232861631
0.7272625188819364,0.7272625188819364
0.7682238439168851,0.7682238439168851
0.8067756792438957,0.8067756792438957
0.8188231277835866,0.8188231277835866
0.790712414524308,0.790712414524308
0.7682238439168851,0.7682238439168851
0.7457352733094623,0.7457352733094623
0.7184277232861631,0.7184277232861631
0.687104357082967,0.687104357082967
0.7184277232861631,0.7184277232861631
0.7866965983444111,0.7866965983444111
0.8188231277835866,0.8188231277835866
0.7377036409496684,0.7377036409496684
0.6172291555527604,0.6172291555527604
0.5353065054828628,0.5353065054828628
0.5168337510553369,0.5168337510553369
0.4822977319082232,0.4822977319082232
0.4156351833219341,0.4156351833219341
0.3264840641282221,0.3264840641282221
0.2646404949578093,0.2646404949578093
0.23733294493451013,0.23733294493451013
0.2646404949578093,0.2646404949578093
0.30479865675677864,0.30479865675677864
0.3152397788245107,0.3152397788245107
0.25018355671018033,0.25018355671018033
0.16424509046038588,0.16424509046038588
0.10641733746986999,0.10641733746986999
0.11364580659368448,0.11364580659368448
0.13934703014502486,0.13934703014502486
0.16424509046038588,0.16424509046038588
0.16424509046038588,0.16424509046038588
0.16424509046038588,0.16424509046038588
0.15701662133657138,0.15701662133657138
0.16424509046038588,0.16424509046038588
0.16344192722440648,0.16344192722440648
0.16424509046038588,0.16424509046038588
0.156213458100592,0.156213458100592
0.16424509046038588,0.16424509046038588
0.15300080515667444,0.15300080515667444
0.11364580659368448,0.11364580659368448
0.05822754331110675,0.05822754331110675
0.06304652272698308,0.06304652272698308
0.10400784776193182,0.10400784776193182
0.11364580659368448,0.11364580659368448
0.06625917567090063,0.06625917567090063
0.06304652272698308,0.06304652272698308
0.10882682717780816,0.10882682717780816
0.11364580659368448,0.11364580659368448
0.021282034456054935,0.021282034456054935
-0.03734888177044034,-0.03734888177044034
0.0012029535565702544,0.0012029535565702544
0.06304652272698308,0.06304652272698308
0.055014890367189206,0.055014890367189206
0.06304652272698308,0.06304652272698308
0.12810274484131345,0.12810274484131345
0.16424509046038588,0.16424509046038588
0.07991295068255021,0.07991295068255021
0.013250402096261063,0.013250402096261063
0.09838570511007612,0.09838570511007612
0.2646404949578093,0.2646404949578093
0.29435753468904663,0.29435753468904663
0.16424509046038588,0.16424509046038588
0.038951625647601455,0.038951625647601455
0.06304652272698308,0.06304652272698308
0.16745774340430342,0.16745774340430342
0.21404121109110788,0.21404121109110788
0.14737866250481874,0.14737866250481874
0.06304652272698308,0.06304652272698308
0.06224335949100369,0.06224335949100369
0.16424509046038588,0.16424509046038588
0.2654436581937887,0.2654436581937887
0.3152397788245107,0.3152397788245107
0.3465631450277068,0.3465631450277068
0.4156351833219341,0.4156351833219341
0.4043908980182227,0.4043908980182227
0.16424509046038588,0.16424509046038588
-0.2943611172838443,-0.2943611172838443
-0.7425262029603424,-0.7425262029603424
-1.0894927209034377,-1.0894927209034377
-1.4477035241502445,-1.4477035241502445
-1.9368299348616913,-1.9368299348616913
-2.405074101437674,-2.405074101437674
-2.6773464384346863,-2.6773464384346863
-2.7576627620326253,-2.7576627620326253
-2.8026399032474707,-2.8026399032474707
-2.8082620458993266,-2.8082620458993266
-2.6741337854907687,-2.6741337854907687
-2.355277980806952,-2.355277980806952
-1.9802007496045781,-1.9802007496045781
-1.6492974963810707,-1.6492974963810707
-1.3810409755639552,-1.3810409755639552
-1.0951148635552934,-1.0951148635552934
-0.7650147735677653,-0.7650147735677653
-0.38993754236539135,-0.38993754236539135
-0.046986840602192985,-0.046986840602192985
0.21404121109110788,0.21404121109110788
0.34335049208378926,0.34335049208378926
0.3658390626912121,0.3658390626912121
0.3144366155885313,0.3144366155885313
0.2646404949578093,0.2646404949578093
0.24215192435038643,0.24215192435038643
0.2646404949578093,0.2646404949578093
0.31845243176842825,0.31845243176842825
0.4156351833219341,0.4156351833219341
0.527274873123069,0.527274873123069
0.6172291555527604,0.6172291555527604
0.6397177261601832,0.6397177261601832
0.6172291555527604,0.6172291555527604
0.5794804834617291,0.5794804834617291
0.5674330349220383,0.5674330349220383
0.5770709937537909,0.5770709937537909
0.6172291555527604,0.6172291555527604
0.6541746644078121,0.6541746644078121
0.6678284394194617,0.6678284394194617
0.6381113996882244,0.6381113996882244
0.6172291555527604,0.6172291555527604
0.6397177261601832,0.6397177261601832
0.7184277232861631,0.7184277232861631
0.7730428233327614,0.7730428233327614
0.7682238439168851,0.7682238439168851
0.7176245600501837,0.7176245600501837
0.7184277232861631,0.7184277232861631
0.7842871086364729,0.7842871086364729
0.8694224116502879,0.8694224116502879
0.890304655785752,0.890304655785752
0.8694224116502879,0.8694224116502879
0.8485401675148239,0.8485401675148239
0.8694224116502879,0.8694224116502879
0.8959267984376077,0.8959267984376077
0.9200216955169893,0.9200216955169893
0.9095805734492572,0.9095805734492572
0.8694224116502879,0.8694224116502879
0.7891060880523492,0.7891060880523492
0.7184277232861631,0.7184277232861631
0.6726474188353381,0.6726474188353381
0.6678284394194617,0.6678284394194617
0.6686316026554411,0.6686316026554411
0.6678284394194617,0.6678284394194617
0.6180323187887397,0.6180323187887397
0.5168337510553369,0.5168337510553369
0.38752447006265556,0.38752447006265556
0.3152397788245107,0.3152397788245107
0.2911448817451291,0.2911448817451291
0.2646404949578093,0.2646404949578093
0.19556845666358197,0.19556845666358197
0.16424509046038588,0.16424509046038588
0.20279692578739647,0.20279692578739647
0.2646404949578093,0.2646404949578093
0.2445614140583246,0.2445614140583246
0.16424509046038588,0.16424509046038588
0.08312560362646776,0.08312560362646776
0.06304652272698308,0.06304652272698308
0.08955090951430286,0.08955090951430286
0.16424509046038588,0.16424509046038588
0.23652978169853073,0.23652978169853073
0.2646404949578093,0.2646404949578093
0.21805702727100482,0.21805702727100482
0.16424509046038588,0.16424509046038588
0.131315397785231,0.131315397785231
0.11364580659368448,0.11364580659368448
0.07268448155873572,0.07268448155873572
0.06304652272698308,0.06304652272698308
0.10481101099791122,0.10481101099791122
0.16424509046038588,0.16424509046038588
0.14657549926883937,0.14657549926883937
0.06304652272698308,0.06304652272698308
-0.026104596466728913,-0.026104596466728913
-0.03734888177044034,-0.03734888177044034
0.022085197692034323,0.022085197692034323
0.11364580659368448,0.11364580659368448
0.13613437720110733,0.13613437720110733
0.06304652272698308,0.06304652272698308
-0.04216786118631666,-0.04216786118631666
-0.03734888177044034,-0.03734888177044034
0.07107815508677695,0.07107815508677695
0.16424509046038588,0.16424509046038588
0.13452805072914856,0.13452805072914856
0.06304652272698308,0.06304652272698308
0.038951625647601455,0.038951625647601455
0.06304652272698308,0.06304652272698308
0.06545601243492123,0.06545601243492123
0.06304652272698308,0.06304652272698308
0.09838570511007612,0.09838570511007612
0.16424509046038588,0.16424509046038588
0.1875368243037881,0.1875368243037881
0.16424509046038588,0.16424509046038588
0.13934703014502486,0.13934703014502486
0.16424509046038588,0.16424509046038588
0.21002539491121094,0.21002539491121094
0.2646404949578093,0.2646404949578093
0.34013783913987167,0.34013783913987167
0.4662344671886355,0.4662344671886355
0.5634172187421413,0.5634172187421413
0.5168337510553369,0.5168337510553369
0.25259304641811847,0.25259304641811847
-0.13854744950384312,-0.13854744950384312
-0.5658302910448771,-0.5658302910448771
-0.99471945905787,-0.99471945905787
-1.4701920947576672,-1.4701920947576672
-1.9520900363452998,-1.9520900363452998
-2.3713412455265397,-2.3713412455265397
-2.6572673575352015,-2.6572673575352015
-2.8211126576749965,-2.8211126576749965
-2.858861329766028,-2.858861329766028
-2.788986128235821,-2.788986128235821
-2.6066680736685,-2.6066680736685
-2.3416242057953025,-2.3416242057953025
-2.001886156976022,-2.001886156976022
-1.660541781684782,-1.660541781684782
-1.347308119652821,-1.347308119652821
-1.0517440488124066,-1.0517440488124066
-0.6927300823296204,-0.6927300823296204
-0.3056054025875557,-0.3056054025875557
0.013250402096261063,0.013250402096261063
0.20440325225935524,0.20440325225935524
0.3658390626912121,0.3658390626912121
0.527274873123069,0.527274873123069
0.6172291555527604,0.6172291555527604
0.5465507907865742,0.5465507907865742
0.4156351833219341,0.4156351833219341
0.36102008327533575,0.36102008327533575
0.4156351833219341,0.4156351833219341
0.4814945686722439,0.4814945686722439
0.5168337510553369,0.5168337510553369
0.5345033422468835,0.5345033422468835
0.5674330349220383,0.5674330349220383
0.6075911967210077,0.6075911967210077
0.6678284394194617,0.6678284394194617
0.7160182335782249,0.7160182335782249
0.7184277232861631,0.7184277232861631
0.6614031335316266,0.6614031335316266
0.6172291555527604,0.6172291555527604
0.6075911967210077,0.6075911967210077
0.6172291555527604,0.6172291555527604
0.6212449717326572,0.6212449717326572
0.6678284394194617,0.6678284394194617
0.7224435394660601,0.7224435394660601
0.7184277232861631,0.7184277232861631
0.6381113996882244,0.6381113996882244
0.6172291555527604,0.6172291555527604
0.6919233364988433,0.6919233364988433
0.7682238439168851,0.7682238439168851
0.7441289468375035,0.7441289468375035
0.7184277232861631,0.7184277232861631
