ECG,PPG
0.22010939593905418,0.22010939593905418
0.5793213806204293,0.5793213806204293
0.05149968884371485,0.05149968884371485
0.10525930559875057,0.10525930559875057
0.8929191450248043,0.8929191450248043
1.572245211292983,1.572245211292983
1.9860313523771975,1.9860313523771975
2.6344049120288404,2.6344049120288404
3.4994460179962337,3.4994460179962337
3.927893872740912,3.927893872740912
3.584158141367805,3.584158141367805
2.693866306318501,2.693866306318501
1.5657288941105545,1.5657288941105545
0.35858113606566133,0.35858113606566133
-0.7052076439658032,-0.7052076439658032
-1.3951227256554284,-1.3951227256554284
-1.6305246838706606,-1.6305246838706606
-1.4920529437440533,-1.4920529437440533
-1.125510102232446,-1.125510102232446
-0.789105227689571,-0.789105227689571
-0.7052076439658032,-0.7052076439658032
-0.8298322100797496,-0.8298322100797496
-0.8738173510611426,-0.8738173510611426
-0.7459346263559817,-0.7459346263559817
-0.6213100602420353,-0.6213100602420353
-0.6563352650975889,-0.6563352650975889
-0.7052076439658032,-0.7052076439658032
-0.6392299324937138,-0.6392299324937138
-0.5374124765182674,-0.5374124765182674
-0.5610341263045711,-0.5610341263045711
-0.6213100602420353,-0.6213100602420353
-0.6025756483425532,-0.6025756483425532
-0.5374124765182674,-0.5374124765182674
-0.5862848553864817,-0.5862848553864817
-0.7052076439658032,-0.7052076439658032
-0.7589672607208389,-0.7589672607208389
-0.7052076439658032,-0.7052076439658032
-0.6685533598146425,-0.6685533598146425
-0.7052076439658032,-0.7052076439658032
-0.7491927849471961,-0.7491927849471961
-0.7052076439658032,-0.7052076439658032
-0.6310845360156782,-0.6310845360156782
-0.6213100602420353,-0.6213100602420353
-0.6897313906575353,-0.6897313906575353
-0.7052076439658032,-0.7052076439658032
-0.6253827584810532,-0.6253827584810532
-0.5374124765182674,-0.5374124765182674
-0.5528887298265353,-0.5528887298265353
-0.6213100602420353,-0.6213100602420353
-0.6734405977014639,-0.6734405977014639
-0.7052076439658032,-0.7052076439658032
-0.7622254193120532,-0.7622254193120532
-0.789105227689571,-0.789105227689571
-0.7785162122681246,-0.7785162122681246
-0.789105227689571,-0.789105227689571
-0.8835918268347853,-0.8835918268347853
-0.9577149347849104,-0.9577149347849104
-0.9397950625332319,-0.9397950625332319
-0.8738173510611426,-0.8738173510611426
-0.8640428752874997,-0.8640428752874997
-0.8738173510611426,-0.8738173510611426
-0.8510102409226425,-0.8510102409226425
-0.789105227689571,-0.789105227689571
-0.7280147541043032,-0.7280147541043032
-0.6213100602420353,-0.6213100602420353
-0.48039470117201744,-0.48039470117201744
-0.3688027694229281,-0.3688027694229281
-0.3370357231585888,-0.3370357231585888
-0.28490518569916023,-0.28490518569916023
-0.16353877817642806,-0.16353877817642806
-0.03239789488005303,-0.03239789488005303
0.01728902363596484,0.01728902363596484
0.05149968884371485,0.05149968884371485
0.12888095538505415,0.12888095538505415
0.22010939593905418,0.22010939593905418
0.23477110959951847,0.23477110959951847
0.22010939593905418,0.22010939593905418
0.23884380783853632,0.23884380783853632
0.30400697966282203,0.30400697966282203
0.3545084378266435,0.3545084378266435
0.3879045633865899,0.3879045633865899
0.3773155479651435,0.3773155479651435
0.30400697966282203,0.30400697966282203
0.18345511178789345,0.18345511178789345
0.1353972725674827,0.1353972725674827
0.17693879460546488,0.17693879460546488
0.22010939593905418,0.22010939593905418
0.14842990693233987,0.14842990693233987
0.05149968884371485,0.05149968884371485
0.037652514831054126,0.037652514831054126
0.1353972725674827,0.1353972725674827
0.21440761840442918,0.21440761840442918
0.22010939593905418,0.22010939593905418
0.18997142897032201,0.18997142897032201
0.22010939593905418,0.22010939593905418
0.2820144091721256,0.2820144091721256
0.30400697966282203,0.30400697966282203
0.25350552149900063,0.25350552149900063
0.22010939593905418,0.22010939593905418
0.23802926819073275,0.23802926819073275
0.30400697966282203,0.30400697966282203
0.44492233873283993,0.44492233873283993
0.8082070216532329,0.8082070216532329
1.4174826782103045,1.4174826782103045
2.153826519824733,2.153826519824733
2.882024964961126,2.882024964961126
3.584158141367805,3.584158141367805
4.09161634194943,4.09161634194943
4.088358183358216,4.088358183358216
3.411475736033448,3.411475736033448
2.3224362269200727,2.3224362269200727
1.1486845944351258,1.1486845944351258
0.05149968884371485,0.05149968884371485
-0.8567120184572675,-0.8567120184572675
-1.2941198093277855,-1.2941198093277855
-1.1727534018050534,-1.1727534018050534
-0.789105227689571,-0.789105227689571
-0.5569614280655532,-0.5569614280655532
-0.5374124765182674,-0.5374124765182674
-0.6107210448205889,-0.6107210448205889
-0.7052076439658032,-0.7052076439658032
-0.8078396395890532,-0.8078396395890532
-0.789105227689571,-0.789105227689571
-0.6424880910849282,-0.6424880910849282
-0.5374124765182674,-0.5374124765182674
-0.6107210448205889,-0.6107210448205889
-0.7052076439658032,-0.7052076439658032
-0.6881023113619282,-0.6881023113619282
-0.6213100602420353,-0.6213100602420353
-0.6563352650975889,-0.6563352650975889
-0.7052076439658032,-0.7052076439658032
-0.6791423752360889,-0.6791423752360889
-0.6213100602420353,-0.6213100602420353
-0.6547061858019817,-0.6547061858019817
-0.7052076439658032,-0.7052076439658032
-0.6595934236888031,-0.6595934236888031
-0.5374124765182674,-0.5374124765182674
-0.49016917694566026,-0.49016917694566026
-0.5374124765182674,-0.5374124765182674
-0.5797685382040532,-0.5797685382040532
-0.5374124765182674,-0.5374124765182674
-0.4958709544802853,-0.4958709544802853
-0.5374124765182674,-0.5374124765182674
-0.6261972981288567,-0.6261972981288567
-0.6213100602420353,-0.6213100602420353
-0.5227507628578031,-0.5227507628578031
-0.452700353146696,-0.452700353146696
-0.498314573423696,-0.498314573423696
-0.5374124765182674,-0.5374124765182674
-0.47387838398958887,-0.47387838398958887
-0.3688027694229281,-0.3688027694229281
-0.3696173090707317,-0.3696173090707317
-0.452700353146696,-0.452700353146696
-0.5260089214490175,-0.5260089214490175
-0.5374124765182674,-0.5374124765182674
-0.538227016166071,-0.538227016166071
-0.5374124765182674,-0.5374124765182674
-0.5602195866567674,-0.5602195866567674
-0.6213100602420353,-0.6213100602420353
-0.7068367232614103,-0.7068367232614103
-0.7052076439658032,-0.7052076439658032
-0.6156082827074103,-0.6156082827074103
-0.5374124765182674,-0.5374124765182674
-0.5480014919397138,-0.5480014919397138
-0.5374124765182674,-0.5374124765182674
-0.4331514015994103,-0.4331514015994103
-0.28490518569916023,-0.28490518569916023
-0.1944912847929638,-0.1944912847929638
-0.1162954786038209,-0.1162954786038209
-0.020994339810803026,-0.020994339810803026
0.05149968884371485,0.05149968884371485
0.04661245095689342,0.04661245095689342
0.05149968884371485,0.05149968884371485
0.10200114700753629,0.10200114700753629
0.1353972725674827,0.1353972725674827
0.08245219546025057,0.08245219546025057
0.05149968884371485,0.05149968884371485
0.11666286066800058,0.11666286066800058
0.22010939593905418,0.22010939593905418
0.23884380783853632,0.23884380783853632
0.22010939593905418,0.22010939593905418
0.24047288713414347,0.24047288713414347
0.30400697966282203,0.30400697966282203
0.32111231226669706,0.32111231226669706
0.30400697966282203,0.30400697966282203
0.2917888849457685,0.2917888849457685
0.30400697966282203,0.30400697966282203
0.2771271712853042,0.2771271712853042
0.22010939593905418,0.22010939593905418
0.178567873901072,0.178567873901072
0.22010939593905418,0.22010939593905418
0.2787562505809113,0.2787562505809113
0.30400697966282203,0.30400697966282203
0.2828289488199292,0.2828289488199292
0.30400697966282203,0.30400697966282203
0.3365885655749649,0.3365885655749649
0.30400697966282203,0.30400697966282203
0.18915688932251845,0.18915688932251845
0.1353972725674827,0.1353972725674827
0.18345511178789345,0.18345511178789345
0.22010939593905418,0.22010939593905418
0.1353972725674827,0.1353972725674827
0.05149968884371485,0.05149968884371485
0.08896851264267915,0.08896851264267915
0.22010939593905418,0.22010939593905418
0.3235559312101078,0.3235559312101078
0.4718021471103578,0.4718021471103578
0.8106506405966436,0.8106506405966436
1.397119187015215,1.397119187015215
2.0951796651828762,2.0951796651828762
2.7427386851867155,2.7427386851867155
3.146750350497287,3.146750350497287
3.1630411434533583,3.1630411434533583
2.7362223680042868,2.7362223680042868
1.9860313523771975,1.9860313523771975
1.0436089798684651,1.0436089798684651
0.05149968884371485,0.05149968884371485
-0.8143559567714818,-0.8143559567714818
-1.2941198093277855,-1.2941198093277855
-1.3144833005228747,-1.3144833005228747
-1.0416125185086782,-1.0416125185086782
-0.7475637056515889,-0.7475637056515889
-0.5374124765182674,-0.5374124765182674
-0.43885317913403527,-0.43885317913403527
-0.452700353146696,-0.452700353146696
-0.5585905073611603,-0.5585905073611603
-0.6213100602420353,-0.6213100602420353
-0.5928011725689103,-0.5928011725689103
-0.5374124765182674,-0.5374124765182674
-0.5422997144050888,-0.5422997144050888
-0.5374124765182674,-0.5374124765182674
-0.49016917694566026,-0.49016917694566026
-0.452700353146696,-0.452700353146696
-0.5007581923671067,-0.5007581923671067
-0.5374124765182674,-0.5374124765182674
-0.5056454302539282,-0.5056454302539282
-0.452700353146696,-0.452700353146696
-0.48120924081982097,-0.48120924081982097
-0.5374124765182674,-0.5374124765182674
-0.549630571235321,-0.549630571235321
-0.5374124765182674,-0.5374124765182674
-0.5968738708079282,-0.5968738708079282
-0.7052076439658032,-0.7052076439658032
-0.7622254193120532,-0.7622254193120532
-0.7052076439658032,-0.7052076439658032
-0.6310845360156782,-0.6310845360156782
-0.6213100602420353,-0.6213100602420353
-0.6563352650975889,-0.6563352650975889
-0.6213100602420353,-0.6213100602420353
-0.543928793700696,-0.543928793700696
-0.5374124765182674,-0.5374124765182674
-0.6424880910849282,-0.6424880910849282
-0.7052076439658032,-0.7052076439658032
-0.663666121927821,-0.663666121927821
-0.6213100602420353,-0.6213100602420353
-0.6970622474877675,-0.6970622474877675
-0.789105227689571,-0.789105227689571
-0.8053960206456425,-0.8053960206456425
-0.789105227689571,-0.789105227689571
-0.838792146205589,-0.838792146205589
-0.8738173510611426,-0.8738173510611426
-0.8379776065577853,-0.8379776065577853
-0.789105227689571,-0.789105227689571
-0.8078396395890532,-0.8078396395890532
-0.789105227689571,-0.789105227689571
-0.6726260580536603,-0.6726260580536603
-0.5374124765182674,-0.5374124765182674
-0.4958709544802853,-0.4958709544802853
-0.452700353146696,-0.452700353146696
-0.3109704544288745,-0.3109704544288745
-0.1162954786038209,-0.1162954786038209
-0.006332626150338738,-0.006332626150338738
0.05149968884371485,0.05149968884371485
0.1476153672845363,0.1476153672845363
0.30400697966282203,0.30400697966282203
0.4213006889465364,0.4213006889465364
0.4718021471103578,0.4718021471103578
0.47098760746255425,0.47098760746255425
0.4718021471103578,0.4718021471103578
0.4644712902801257,0.4644712902801257
0.4718021471103578,0.4718021471103578
0.47343122640596497,0.47343122640596497
0.4718021471103578,0.4718021471103578
0.43026062507237567,0.43026062507237567
0.3879045633865899,0.3879045633865899
0.3919772616256078,0.3919772616256078
0.4718021471103578,0.4718021471103578
0.5296344621044113,0.5296344621044113
0.4718021471103578,0.4718021471103578
0.33903218451837563,0.33903218451837563
0.30400697966282203,0.30400697966282203
0.3887191030343935,0.3887191030343935
0.4718021471103578,0.4718021471103578
0.4954237968966614,0.4954237968966614
0.6404118542056971,0.6404118542056971
1.0240600283211794,1.0240600283211794
1.5657288941105545,1.5657288941105545
2.123688552856001,2.123688552856001
2.7427386851867155,2.7427386851867155
3.395184943077376,3.395184943077376
3.8358508925391086,3.8358508925391086
3.7405497537460906,3.7405497537460906
3.0791435597295904,3.0791435597295904
2.029201953710787,2.029201953710787
0.8082070216532329,0.8082070216532329
-0.3981261967438567,-0.3981261967438567
-1.2941198093277855,-1.2941198093277855
-1.6517027147135535,-1.6517027147135535
-1.4619149767753212,-1.4619149767753212
-0.9927401396404639,-0.9927401396404639
-0.5374124765182674,-0.5374124765182674
-0.3231885491459281,-0.3231885491459281
-0.3688027694229281,-0.3688027694229281
-0.5178635249709818,-0.5178635249709818
-0.5374124765182674,-0.5374124765182674
-0.43070778265599957,-0.43070778265599957
-0.3688027694229281,-0.3688027694229281
-0.4543294324423031,-0.4543294324423031
-0.5374124765182674,-0.5374124765182674
-0.538227016166071,-0.538227016166071
-0.5374124765182674,-0.5374124765182674
-0.6384153928459103,-0.6384153928459103
-0.7052076439658032,-0.7052076439658032
-0.6473753289717497,-0.6473753289717497
-0.5374124765182674,-0.5374124765182674
-0.5219362232099996,-0.5219362232099996
-0.5374124765182674,-0.5374124765182674
-0.49994365271930313,-0.49994365271930313
-0.452700353146696,-0.452700353146696
-0.49016917694566026,-0.49016917694566026
-0.5374124765182674,-0.5374124765182674
-0.5121617474363567,-0.5121617474363567
-0.452700353146696,-0.452700353146696
-0.4730638443417853,-0.4730638443417853
-0.5374124765182674,-0.5374124765182674
-0.5675504434869996,-0.5675504434869996
-0.5374124765182674,-0.5374124765182674
-0.5023872716627138,-0.5023872716627138
-0.452700353146696,-0.452700353146696
-0.3973116570960531,-0.3973116570960531
-0.3688027694229281,-0.3688027694229281
-0.4331514015994103,-0.4331514015994103
-0.5374124765182674,-0.5374124765182674
-0.5879139346820889,-0.5879139346820889
-0.5374124765182674,-0.5374124765182674
-0.49424187518467816,-0.49424187518467816
-0.5374124765182674,-0.5374124765182674
-0.606648346581571,-0.606648346581571
-0.5374124765182674,-0.5374124765182674
-0.3679882297751245,-0.3679882297751245
-0.28490518569916023,-0.28490518569916023
-0.37613362625316027,-0.37613362625316027
-0.452700353146696,-0.452700353146696
-0.3916098795614281,-0.3916098795614281
-0.28490518569916023,-0.28490518569916023
-0.2800179478123388,-0.2800179478123388
-0.28490518569916023,-0.28490518569916023
-0.18634588831492807,-0.18634588831492807
-0.03239789488005303,-0.03239789488005303
0.03195073729642913,0.03195073729642913
0.05149968884371485,0.05149968884371485
0.11666286066800058,0.11666286066800058
0.22010939593905418,0.22010939593905418
0.2478037439643756,0.2478037439643756
0.22010939593905418,0.22010939593905418
0.20137498403957202,0.20137498403957202
0.22010939593905418,0.22010939593905418
0.2217384752346613,0.2217384752346613
0.22010939593905418,0.22010939593905418
0.2192948562912506,0.2192948562912506
0.22010939593905418,0.22010939593905418
0.2046331426307863,0.2046331426307863
0.22010939593905418,0.22010939593905418
0.24128742678194703,0.24128742678194703
0.22010939593905418,0.22010939593905418
0.1476153672845363,0.1476153672845363
0.1353972725674827,0.1353972725674827
0.18997142897032201,0.18997142897032201
0.22010939593905418,0.22010939593905418
0.1622770809450006,0.1622770809450006
0.1353972725674827,0.1353972725674827
0.184269651435697,0.184269651435697
0.22010939593905418,0.22010939593905418
0.13865543115869702,0.13865543115869702
0.05149968884371485,0.05149968884371485
0.06290324391296485,0.06290324391296485
0.1353972725674827,0.1353972725674827
0.12562279679383986,0.12562279679383986
0.05149968884371485,0.05149968884371485
0.009958166805732695,0.009958166805732695
0.05149968884371485,0.05149968884371485
0.075935878277822,0.075935878277822
0.05149968884371485,0.05149968884371485
0.040096133774464846,0.040096133774464846
0.1353972725674827,0.1353972725674827
0.23965834748633988,0.23965834748633988
0.22010939593905418,0.22010939593905418
0.08489581440366128,0.08489581440366128
0.05149968884371485,0.05149968884371485
0.1508735258757506,0.1508735258757506
0.22010939593905418,0.22010939593905418
0.12562279679383986,0.12562279679383986
0.05149968884371485,0.05149968884371485
0.11910647961141128,0.11910647961141128
0.22010939593905418,0.22010939593905418
0.18915688932251845,0.18915688932251845
0.1353972725674827,0.1353972725674827
0.1704224774230363,0.1704224774230363
0.22010939593905418,0.22010939593905418
0.19485866685714345,0.19485866685714345
0.22010939593905418,0.22010939593905418
0.3137814554364649,0.3137814554364649
0.30400697966282203,0.30400697966282203
0.1565753034103756,0.1565753034103756
0.22010939593905418,0.22010939593905418
0.6974296295519471,0.6974296295519471
1.397119187015215,1.397119187015215
2.0984378237740904,2.0984378237740904
2.9113483922820547,2.9113483922820547
3.7845348947274835,3.7845348947274835
4.256967890453555,4.256967890453555
3.9392974278101622,3.9392974278101622
3.0791435597295904,3.0791435597295904
2.093550585887269,2.093550585887269
1.0607143124723402,1.0607143124723402
-0.1048919235345709,-0.1048919235345709
-1.125510102232446,-1.125510102232446
-1.6207502080970178,-1.6207502080970178
-1.5466271001468928,-1.5466271001468928
-1.2183676220820534,-1.2183676220820534
-0.8738173510611426,-0.8738173510611426
-0.6253827584810532,-0.6253827584810532
-0.5374124765182674,-0.5374124765182674
-0.6424880910849282,-0.6424880910849282
-0.789105227689571,-0.789105227689571
-0.817614115362696,-0.817614115362696
-0.7052076439658032,-0.7052076439658032
-0.6131646637639996,-0.6131646637639996
-0.6213100602420353,-0.6213100602420353
-0.6913604699531425,-0.6913604699531425
-0.7052076439658032,-0.7052076439658032
-0.6897313906575353,-0.6897313906575353
-0.7052076439658032,-0.7052076439658032
-0.7777016726203211,-0.7777016726203211
-0.789105227689571,-0.789105227689571
-0.7329019919911246,-0.7329019919911246
-0.7052076439658032,-0.7052076439658032
-0.789105227689571,-0.789105227689571
-0.8738173510611426,-0.8738173510611426
-0.861599256344089,-0.861599256344089
-0.789105227689571,-0.789105227689571
-0.7491927849471961,-0.7491927849471961
-0.7052076439658032,-0.7052076439658032
-0.6424880910849282,-0.6424880910849282
-0.6213100602420353,-0.6213100602420353
-0.6848441527707139,-0.6848441527707139
-0.7052076439658032,-0.7052076439658032
-0.6229391395376425,-0.6229391395376425
-0.5374124765182674,-0.5374124765182674
-0.5634777452479818,-0.5634777452479818
-0.6213100602420353,-0.6213100602420353
-0.6506334875629639,-0.6506334875629639
-0.7052076439658032,-0.7052076439658032
-0.8265740514885354,-0.8265740514885354
-0.8738173510611426,-0.8738173510611426
-0.8110977981802675,-0.8110977981802675
-0.789105227689571,-0.789105227689571
-0.9259478885205711,-0.9259478885205711
-1.0416125185086782,-1.0416125185086782
-0.9927401396404639,-0.9927401396404639
-0.8738173510611426,-0.8738173510611426
-0.8591556374006782,-0.8591556374006782
-0.8738173510611426,-0.8738173510611426
-0.8086541792368568,-0.8086541792368568
-0.7052076439658032,-0.7052076439658032
-0.6709969787580532,-0.6709969787580532
-0.6213100602420353,-0.6213100602420353
-0.4746929236373924,-0.4746929236373924
-0.28490518569916023,-0.28490518569916023
-0.1594660799374102,-0.1594660799374102
-0.03239789488005303,-0.03239789488005303
0.1451717483411256,0.1451717483411256
0.30400697966282203,0.30400697966282203
0.3284431690969292,0.3284431690969292
0.30400697966282203,0.30400697966282203
0.35206481888323277,0.35206481888323277
0.4718021471103578,0.4718021471103578
0.5198599863307686,0.5198599863307686
0.4718021471103578,0.4718021471103578
0.4221152285943399,0.4221152285943399
0.4718021471103578,0.4718021471103578
0.5516270325951078,0.5516270325951078
0.5565142704819293,0.5565142704819293
0.45958405239330424,0.45958405239330424
0.3879045633865899,0.3879045633865899
0.40419535634266135,0.40419535634266135
0.4718021471103578,0.4718021471103578
0.49135109865764354,0.49135109865764354
0.4718021471103578,0.4718021471103578
0.4310751647201792,0.4310751647201792
0.3879045633865899,0.3879045633865899
0.3227413915623042,0.3227413915623042
0.30400697966282203,0.30400697966282203
0.3113378364930542,0.3113378364930542
0.30400697966282203,0.30400697966282203
0.2372147285429292,0.2372147285429292
0.22010939593905418,0.22010939593905418
0.2917888849457685,0.2917888849457685
0.3879045633865899,0.3879045633865899
0.38138824620416134,0.38138824620416134
0.30400697966282203,0.30400697966282203
0.25594914044241135,0.25594914044241135
0.30400697966282203,0.30400697966282203
0.38301732549976847,0.38301732549976847
0.4718021471103578,0.4718021471103578
0.6119029665325721,0.6119029665325721
0.8929191450248043,0.8929191450248043
1.3001889689265902,1.3001889689265902
1.8174216452818581,1.8174216452818581
2.4731260617637334,2.4731260617637334
3.331650850548698,3.331650850548698
4.21705544771118,4.21705544771118
4.761167932443966,4.761167932443966
4.649576000694877,4.649576000694877
3.92056301591068,3.92056301591068
2.790796524407126,2.790796524407126
1.481016770738983,1.481016770738983
0.16472069988841131,0.16472069988841131
-0.8738173510611426,-0.8738173510611426
-1.3983808842466425,-1.3983808842466425
-1.3780173930515534,-1.3780173930515534
-1.0562742321691425,-1.0562742321691425
-0.7052076439658032,-0.7052076439658032
-0.5276380007446245,-0.5276380007446245
-0.5374124765182674,-0.5374124765182674
-0.6245682188332496,-0.6245682188332496
-0.6213100602420353,-0.6213100602420353
-0.5276380007446245,-0.5276380007446245
-0.452700353146696,-0.452700353146696
-0.486911018354446,-0.486911018354446
-0.5374124765182674,-0.5374124765182674
-0.5463724126441067,-0.5463724126441067
-0.5374124765182674,-0.5374124765182674
-0.5870993950342853,-0.5870993950342853
-0.6213100602420353,-0.6213100602420353
-0.5993174897513389,-0.5993174897513389
-0.5374124765182674,-0.5374124765182674
-0.5260089214490175,-0.5260089214490175
-0.5374124765182674,-0.5374124765182674
-0.5406706351094818,-0.5406706351094818
-0.5374124765182674,-0.5374124765182674
-0.5545178091221424,-0.5545178091221424
-0.5374124765182674,-0.5374124765182674
-0.4632893685681424,-0.4632893685681424
-0.3688027694229281,-0.3688027694229281
-0.31911585090691025,-0.31911585090691025
-0.28490518569916023,-0.28490518569916023
-0.26454169450407095,-0.26454169450407095
-0.28490518569916023,-0.28490518569916023
-0.35332651611466026,-0.35332651611466026
-0.3688027694229281,-0.3688027694229281
-0.31585769231569594,-0.31585769231569594
-0.28490518569916023,-0.28490518569916023
-0.36228645224049955,-0.36228645224049955
-0.452700353146696,-0.452700353146696
-0.47387838398958887,-0.47387838398958887
-0.452700353146696,-0.452700353146696
-0.486911018354446,-0.486911018354446
-0.5374124765182674,-0.5374124765182674
-0.5537032694743389,-0.5537032694743389
-0.5374124765182674,-0.5374124765182674
-0.5431142540528925,-0.5431142540528925
-0.5374124765182674,-0.5374124765182674
-0.5251943818012138,-0.5251943818012138
-0.5374124765182674,-0.5374124765182674
-0.5797685382040532,-0.5797685382040532
-0.5374124765182674,-0.5374124765182674
-0.401384355335071,-0.401384355335071
-0.28490518569916023,-0.28490518569916023
-0.28490518569916023,-0.28490518569916023
-0.28490518569916023,-0.28490518569916023
-0.18553134866712448,-0.18553134866712448
-0.03239789488005303,-0.03239789488005303
0.039281594126661275,0.039281594126661275
0.05149968884371485,0.05149968884371485
0.07675041792562556,0.07675041792562556
0.1353972725674827,0.1353972725674827
0.1508735258757506,0.1508735258757506
0.1353972725674827,0.1353972725674827
0.144357208693322,0.144357208693322
0.22010939593905418,0.22010939593905418
0.2852725677633399,0.2852725677633399
0.30400697966282203,0.30400697966282203
0.30889421754964347,0.30889421754964347
0.3879045633865899,0.3879045633865899
0.4775039246449828,0.4775039246449828
0.4718021471103578,0.4718021471103578
0.3561375171222506,0.3561375171222506
0.30400697966282203,0.30400697966282203
0.3512502792354292,0.3512502792354292
0.3879045633865899,0.3879045633865899
0.29830520212819706,0.29830520212819706
0.22010939593905418,0.22010939593905418
0.24617466466876847,0.24617466466876847
0.30400697966282203,0.30400697966282203
0.2681672351594649,0.2681672351594649
0.22010939593905418,0.22010939593905418
0.2502473629077863,0.2502473629077863
0.30400697966282203,0.30400697966282203
0.26490907656825063,0.26490907656825063
0.22010939593905418,0.22010939593905418
0.3048215193106256,0.3048215193106256
0.5565142704819293,0.5565142704819293
0.9083953983330721,0.9083953983330721
1.397119187015215,1.397119187015215
2.0511945242014833,2.0511945242014833
2.8266362689104834,2.8266362689104834
3.5947471567892513,3.5947471567892513
4.256967890453555,4.256967890453555
4.612107176895912,4.612107176895912
4.424763057901091,4.424763057901091
3.588230839606823,3.588230839606823
2.3224362269200727,2.3224362269200727
0.9426060635408222,0.9426060635408222
-0.28490518569916023,-0.28490518569916023
-1.1768261000440712,-1.1768261000440712
-1.5466271001468928,-1.5466271001468928
-1.4179298357939283,-1.4179298357939283
-1.0416125185086782,-1.0416125185086782
-0.7214984369218747,-0.7214984369218747
-0.5374124765182674,-0.5374124765182674
-0.48202378046762456,-0.48202378046762456
-0.5374124765182674,-0.5374124765182674
-0.663666121927821,-0.663666121927821
-0.7052076439658032,-0.7052076439658032
-0.6229391395376425,-0.6229391395376425
-0.5374124765182674,-0.5374124765182674
-0.595244791512321,-0.595244791512321
-0.7052076439658032,-0.7052076439658032
-0.7475637056515889,-0.7475637056515889
-0.7052076439658032,-0.7052076439658032
-0.7190548179784639,-0.7190548179784639
-0.789105227689571,-0.789105227689571
-0.840421225501196,-0.840421225501196
-0.789105227689571,-0.789105227689571
-0.7190548179784639,-0.7190548179784639
-0.7052076439658032,-0.7052076439658032
-0.7345310712867318,-0.7345310712867318
-0.7052076439658032,-0.7052076439658032
-0.6351572342546961,-0.6351572342546961
-0.6213100602420353,-0.6213100602420353
-0.6913604699531425,-0.6913604699531425
-0.7052076439658032,-0.7052076439658032
-0.6196809809464282,-0.6196809809464282
-0.5374124765182674,-0.5374124765182674
-0.5488160315875175,-0.5488160315875175
-0.5374124765182674,-0.5374124765182674
-0.441296798077446,-0.441296798077446
-0.3688027694229281,-0.3688027694229281
-0.4404822584296424,-0.4404822584296424
-0.5374124765182674,-0.5374124765182674
-0.5520741901787317,-0.5520741901787317
-0.5374124765182674,-0.5374124765182674
-0.5919866329211068,-0.5919866329211068
-0.6213100602420353,-0.6213100602420353
-0.5699940624304103,-0.5699940624304103
-0.5374124765182674,-0.5374124765182674
-0.6270118377766604,-0.6270118377766604
-0.7052076439658032,-0.7052076439658032
-0.6538916461541782,-0.6538916461541782
-0.5374124765182674,-0.5374124765182674
-0.49016917694566026,-0.49016917694566026
-0.452700353146696,-0.452700353146696
-0.3655446108317138,-0.3655446108317138
-0.28490518569916023,-0.28490518569916023
-0.2938651218249995,-0.2938651218249995
-0.28490518569916023,-0.28490518569916023
-0.1765714125412852,-0.1765714125412852
-0.03239789488005303,-0.03239789488005303
0.023805340818393413,0.023805340818393413
0.05149968884371485,0.05149968884371485
0.12562279679383986,0.12562279679383986
0.22010939593905418,0.22010939593905418
0.23558564924732203,0.23558564924732203
0.22010939593905418,0.22010939593905418
0.24047288713414347,0.24047288713414347
0.30400697966282203,0.30400697966282203
0.3219268519145006,0.3219268519145006
0.30400697966282203,0.30400697966282203
0.28934526600235777,0.28934526600235777
0.30400697966282203,0.30400697966282203
0.2820144091721256,0.2820144091721256
0.22010939593905418,0.22010939593905418
0.17205155671864344,0.17205155671864344
0.22010939593905418,0.22010939593905418
0.29667612283258993,0.29667612283258993
0.30400697966282203,0.30400697966282203
0.22662571312148275,0.22662571312148275
0.22010939593905418,0.22010939593905418
0.3317013276881435,0.3317013276881435
0.4718021471103578,0.4718021471103578
0.49868195548787564,0.49868195548787564
0.4718021471103578,0.4718021471103578
0.45795497309769706,0.45795497309769706
0.4718021471103578,0.4718021471103578
0.4603985920411078,0.4603985920411078
0.4718021471103578,0.4718021471103578
0.49868195548787564,0.49868195548787564
0.4718021471103578,0.4718021471103578
0.36102475500907205,0.36102475500907205
0.30400697966282203,0.30400697966282203
0.3691701514871078,0.3691701514871078
0.4718021471103578,0.4718021471103578
0.50194011407909,0.50194011407909
0.5565142704819293,0.5565142704819293
0.7406002308855364,0.7406002308855364
1.0607143124723402,1.0607143124723402
1.4745004535565545,1.4745004535565545
2.069928936100965,2.069928936100965
2.825007189614876,2.825007189614876
3.4994460179962337,3.4994460179962337
3.7600987052933763,3.7600987052933763
3.4994460179962337,3.4994460179962337
2.7500695420169476,2.7500695420169476
1.6496264778343224,1.6496264778343224
0.4400351008460185,0.4400351008460185
-0.5374124765182674,-0.5374124765182674
-1.1882296551133211,-1.1882296551133211
-1.6305246838706606,-1.6305246838706606
-1.8814028953941606,-1.8814028953941606
-1.7144222675944285,-1.7144222675944285
-1.1760115603962675,-1.1760115603962675
-0.7052076439658032,-0.7052076439658032
-0.6514480272107674,-0.6514480272107674
-0.789105227689571,-0.789105227689571
-0.7760725933247139,-0.7760725933247139
-0.6213100602420353,-0.6213100602420353
-0.5732522210216245,-0.5732522210216245
-0.6213100602420353,-0.6213100602420353
-0.6172373620030175,-0.6172373620030175
-0.5374124765182674,-0.5374124765182674
-0.5186780646187853,-0.5186780646187853
-0.5374124765182674,-0.5374124765182674
-0.5178635249709818,-0.5178635249709818
-0.452700353146696,-0.452700353146696
-0.464103908215946,-0.464103908215946
-0.5374124765182674,-0.5374124765182674
-0.5838412364430711,-0.5838412364430711
-0.5374124765182674,-0.5374124765182674
-0.4722493046939817,-0.4722493046939817
-0.452700353146696,-0.452700353146696
-0.47387838398958887,-0.47387838398958887
-0.452700353146696,-0.452700353146696
-0.3948680381526424,-0.3948680381526424
-0.3688027694229281,-0.3688027694229281
-0.441296798077446,-0.441296798077446
-0.5374124765182674,-0.5374124765182674
-0.5732522210216245,-0.5732522210216245
-0.5374124765182674,-0.5374124765182674
-0.515419906027571,-0.515419906027571
-0.5374124765182674,-0.5374124765182674
-0.6099065051727853,-0.6099065051727853
-0.7052076439658032,-0.7052076439658032
-0.8127268774758747,-0.8127268774758747
-0.8738173510611426,-0.8738173510611426
-0.8884790647216068,-0.8884790647216068
-0.8738173510611426,-0.8738173510611426
-0.8542683995138568,-0.8542683995138568
-0.789105227689571,-0.789105227689571
-0.7198693576262675,-0.7198693576262675
-0.7052076439658032,-0.7052076439658032
-0.7451200867081782,-0.7451200867081782
-0.7052076439658032,-0.7052076439658032
-0.5699940624304103,-0.5699940624304103
-0.452700353146696,-0.452700353146696
-0.452700353146696,-0.452700353146696
-0.452700353146696,-0.452700353146696
-0.355770135058071,-0.355770135058071
-0.20100760197539236,-0.20100760197539236
-0.10570646318237448,-0.10570646318237448
-0.03239789488005303,-0.03239789488005303
0.081637655812447,0.081637655812447
0.22010939593905418,0.22010939593905418
0.28608710741114346,0.28608710741114346
0.30400697966282203,0.30400697966282203
0.33251586733594707,0.33251586733594707
0.3879045633865899,0.3879045633865899
0.38220278585196493,0.38220278585196493
0.30400697966282203,0.30400697966282203
0.2168512373478399,0.2168512373478399
0.22010939593905418,0.22010939593905418
0.27631263163750064,0.27631263163750064
0.30400697966282203,0.30400697966282203
0.258392759385822,0.258392759385822
0.22010939593905418,0.22010939593905418
0.2160366977000363,0.2160366977000363
0.22010939593905418,0.22010939593905418
0.1989313650961613,0.1989313650961613
0.22010939593905418,0.22010939593905418
0.2567636800902149,0.2567636800902149
0.22010939593905418,0.22010939593905418
0.09304121088169699,0.09304121088169699
0.05149968884371485,0.05149968884371485
0.14354266904551843,0.14354266904551843
0.22010939593905418,0.22010939593905418
0.14028451045430415,0.14028451045430415
0.05149968884371485,0.05149968884371485
0.09711390912071485,0.09711390912071485
0.22010939593905418,0.22010939593905418
0.2502473629077863,0.2502473629077863
0.22010939593905418,0.22010939593905418
0.2103349201654113,0.2103349201654113
0.22010939593905418,0.22010939593905418
0.172866096366447,0.172866096366447
0.1353972725674827,0.1353972725674827
0.161462541297197,0.161462541297197
0.22010939593905418,0.22010939593905418
0.22336755453026846,0.22336755453026846
0.22010939593905418,0.22010939593905418
0.23232749065610775,0.23232749065610775
0.22010939593905418,0.22010939593905418
0.12888095538505415,0.12888095538505415
0.05149968884371485,0.05149968884371485
0.040096133774464846,0.040096133774464846
0.05149968884371485,0.05149968884371485
0.006700008214518408,0.006700008214518408
-0.03239789488005303,-0.03239789488005303
-0.03239789488005303,-0.03239789488005303
-0.03239789488005303,-0.03239789488005303
-0.08860113057849947,-0.08860113057849947
-0.1162954786038209,-0.1162954786038209
-0.07801211515705304,-0.07801211515705304
-0.03239789488005303,-0.03239789488005303
-0.06986671867901732,-0.06986671867901732
-0.1162954786038209,-0.1162954786038209
-0.1219972561384459,-0.1219972561384459
-0.1162954786038209,-0.1162954786038209
-0.1944912847929638,-0.1944912847929638
-0.28490518569916023,-0.28490518569916023
-0.31911585090691025,-0.31911585090691025
-0.28490518569916023,-0.28490518569916023
-0.2743161702777138,-0.2743161702777138
-0.28490518569916023,-0.28490518569916023
-0.2946796614728031,-0.2946796614728031
-0.28490518569916023,-0.28490518569916023
-0.28734880464257095,-0.28734880464257095
-0.28490518569916023,-0.28490518569916023
-0.26128353591285663,-0.26128353591285663
-0.20100760197539236,-0.20100760197539236
-0.1334008112076959,-0.1334008112076959
-0.03239789488005303,-0.03239789488005303
0.1476153672845363,0.1476153672845363
0.4718021471103578,0.4718021471103578
0.9230571119935365,0.9230571119935365
1.481016770738983,1.481016770738983
2.1261321717994117,2.1261321717994117
2.8266362689104834,2.8266362689104834
3.3731923725866797,3.3731923725866797
3.4994460179962337,3.4994460179962337
3.0905471147988406,3.0905471147988406
2.3224362269200727,2.3224362269200727
1.3914174094805902,1.3914174094805902
0.3879045633865899,0.3879045633865899
-0.618051901650821,-0.618051901650821
-1.3780173930515534,-1.3780173930515534
-1.6826552213300892,-1.6826552213300892
-1.5466271001468928,-1.5466271001468928
-1.2085931463084105,-1.2085931463084105
-0.8738173510611426,-0.8738173510611426
-0.692175009600946,-0.692175009600946
-0.7052076439658032,-0.7052076439658032
-0.8339049083187675,-0.8339049083187675
-0.8738173510611426,-0.8738173510611426
-0.7858470690983568,-0.7858470690983568
-0.7052076439658032,-0.7052076439658032
-0.7475637056515889,-0.7475637056515889
-0.789105227689571,-0.789105227689571
-0.7508218642428032,-0.7508218642428032
-0.7052076439658032,-0.7052076439658032
-0.7793307519159282,-0.7793307519159282
-0.8738173510611426,-0.8738173510611426
-0.8966244611996426,-0.8966244611996426
-0.8738173510611426,-0.8738173510611426
-0.9121007145079104,-0.9121007145079104
-0.9577149347849104,-0.9577149347849104
-0.9381659832376247,-0.9381659832376247
-0.8738173510611426,-0.8738173510611426
-0.8591556374006782,-0.8591556374006782
-0.8738173510611426,-0.8738173510611426
-0.855897478809464,-0.855897478809464
-0.789105227689571,-0.789105227689571
-0.7410473884691603,-0.7410473884691603
-0.7052076439658032,-0.7052076439658032
-0.6433026307327318,-0.6433026307327318
-0.5374124765182674,-0.5374124765182674
-0.4860964787066424,-0.4860964787066424
-0.5374124765182674,-0.5374124765182674
-0.6074628862293746,-0.6074628862293746
-0.5374124765182674,-0.5374124765182674
-0.3891662606180174,-0.3891662606180174
-0.3688027694229281,-0.3688027694229281
-0.549630571235321,-0.549630571235321
-0.7052076439658032,-0.7052076439658032
-0.6929895492487496,-0.6929895492487496
-0.6213100602420353,-0.6213100602420353
-0.6547061858019817,-0.6547061858019817
-0.7052076439658032,-0.7052076439658032
-0.6718115184058567,-0.6718115184058567
-0.6213100602420353,-0.6213100602420353
-0.6677388201668389,-0.6677388201668389
-0.7052076439658032,-0.7052076439658032
-0.6376008531981068,-0.6376008531981068
-0.5374124765182674,-0.5374124765182674
-0.5317106989836424,-0.5317106989836424
-0.5374124765182674,-0.5374124765182674
-0.464103908215946,-0.464103908215946
-0.3688027694229281,-0.3688027694229281
-0.3639155315361067,-0.3639155315361067
-0.3688027694229281,-0.3688027694229281
-0.3020105183030352,-0.3020105183030352
-0.20100760197539236,-0.20100760197539236
-0.16028061958521378,-0.16028061958521378
-0.1162954786038209,-0.1162954786038209
-0.0275106569932316,-0.0275106569932316
0.05149968884371485,0.05149968884371485
0.04579791130908985,0.04579791130908985
0.05149968884371485,0.05149968884371485
0.1296954950328577,0.1296954950328577
0.22010939593905418,0.22010939593905418
0.2249966338258756,0.2249966338258756
0.22010939593905418,0.22010939593905418
0.2616509179770363,0.2616509179770363
0.30400697966282203,0.30400697966282203
0.26490907656825063,0.26490907656825063
0.22010939593905418,0.22010939593905418
0.2192948562912506,0.2192948562912506
0.22010939593905418,0.22010939593905418
0.13865543115869702,0.13865543115869702
0.05149968884371485,0.05149968884371485
0.02787803905741127,0.02787803905741127
0.05149968884371485,0.05149968884371485
0.0441688320134827,0.0441688320134827
0.05149968884371485,0.05149968884371485
0.11747740031580414,0.11747740031580414
0.22010939593905418,0.22010939593905418
0.2478037439643756,0.2478037439643756
0.22010939593905418,0.22010939593905418
0.2135930787566256,0.2135930787566256
0.30400697966282203,0.30400697966282203
0.3879045633865899,0.3879045633865899
0.3879045633865899,0.3879045633865899
0.3129669157886613,0.3129669157886613
0.30400697966282203,0.30400697966282203
0.36102475500907205,0.36102475500907205
0.3879045633865899,0.3879045633865899
0.33007224839253635,0.33007224839253635
0.30400697966282203,0.30400697966282203
0.35287935853103636,0.35287935853103636
0.3879045633865899,0.3879045633865899
0.3235559312101078,0.3235559312101078
0.30400697966282203,0.30400697966282203
0.47343122640596497,0.47343122640596497
0.8082070216532329,0.8082070216532329
1.1617172287999828,1.1617172287999828
1.5657288941105545,1.5657288941105545
2.14405204405109,2.14405204405109
2.9113483922820547,2.9113483922820547
3.6037070929150907,3.6037070929150907
3.92056301591068,3.92056301591068
3.6908628352300727,3.6908628352300727
2.9952459760058225,2.9952459760058225
1.9974349074464475,1.9974349074464475
0.8929191450248043,0.8929191450248043
-0.18390226937151735,-0.18390226937151735
-1.0416125185086782,-1.0416125185086782
-1.500198340222089,-1.500198340222089
-1.4619149767753212,-1.4619149767753212
-1.0986302938549282,-1.0986302938549282
-0.7052076439658032,-0.7052076439658032
-0.5219362232099996,-0.5219362232099996
-0.5374124765182674,-0.5374124765182674
-0.6367863135503031,-0.6367863135503031
-0.7052076439658032,-0.7052076439658032
-0.7312729126955175,-0.7312729126955175
-0.7052076439658032,-0.7052076439658032
-0.6612225029844103,-0.6612225029844103
-0.6213100602420353,-0.6213100602420353
-0.6473753289717497,-0.6473753289717497
-0.7052076439658032,-0.7052076439658032
-0.7231275162174817,-0.7231275162174817
-0.6213100602420353,-0.6213100602420353
-0.5178635249709818,-0.5178635249709818
-0.5374124765182674,-0.5374124765182674
-0.6652952012234282,-0.6652952012234282
-0.7052076439658032,-0.7052076439658032
-0.6384153928459103,-0.6384153928459103
-0.6213100602420353,-0.6213100602420353
-0.7125385007960353,-0.7125385007960353
-0.7052076439658032,-0.7052076439658032
-0.521121683562196,-0.521121683562196
-0.3688027694229281,-0.3688027694229281
-0.43559502054282095,-0.43559502054282095
-0.5374124765182674,-0.5374124765182674
-0.48202378046762456,-0.48202378046762456
-0.3688027694229281,-0.3688027694229281
-0.4095297518131067,-0.4095297518131067
-0.5374124765182674,-0.5374124765182674
-0.6042047276381604,-0.6042047276381604
-0.6213100602420353,-0.6213100602420353
-0.6840296131229103,-0.6840296131229103
-0.7052076439658032,-0.7052076439658032
-0.6213100602420353,-0.6213100602420353
-0.5374124765182674,-0.5374124765182674
-0.5976884104557317,-0.5976884104557317
-0.7052076439658032,-0.7052076439658032
-0.7361601505823389,-0.7361601505823389
-0.7052076439658032,-0.7052076439658032
-0.7117239611482318,-0.7117239611482318
-0.7052076439658032,-0.7052076439658032
-0.6547061858019817,-0.6547061858019817
-0.6213100602420353,-0.6213100602420353
-0.675069676997071,-0.675069676997071
-0.7052076439658032,-0.7052076439658032
-0.6392299324937138,-0.6392299324937138
-0.5374124765182674,-0.5374124765182674
-0.498314573423696,-0.498314573423696
-0.452700353146696,-0.452700353146696
-0.3598428332970888,-0.3598428332970888
-0.28490518569916023,-0.28490518569916023
-0.29793782006401737,-0.29793782006401737
-0.28490518569916023,-0.28490518569916023
-0.17249871430226735,-0.17249871430226735
-0.03239789488005303,-0.03239789488005303
0.018918102931571982,0.018918102931571982
0.05149968884371485,0.05149968884371485
0.13213911397626843,0.13213911397626843
0.22010939593905418,0.22010939593905418
0.22662571312148275,0.22662571312148275
0.22010939593905418,0.22010939593905418
0.2575782197380185,0.2575782197380185
0.30400697966282203,0.30400697966282203
0.269796314455072,0.269796314455072
0.22010939593905418,0.22010939593905418
0.23477110959951847,0.23477110959951847
0.30400697966282203,0.30400697966282203
0.3007488210716078,0.3007488210716078
0.22010939593905418,0.22010939593905418
0.15983346200158988,0.15983346200158988
0.22010939593905418,0.22010939593905418
0.30726513825403634,0.30726513825403634
0.30400697966282203,0.30400697966282203
0.21766577699564346,0.21766577699564346
0.22010939593905418,0.22010939593905418
0.3251850105057149,0.3251850105057149
0.3879045633865899,0.3879045633865899
0.3048215193106256,0.3048215193106256
0.22010939593905418,0.22010939593905418
0.21766577699564346,0.21766577699564346
0.22010939593905418,0.22010939593905418
0.11992101925921486,0.11992101925921486
0.05149968884371485,0.05149968884371485
0.08815397299487557,0.08815397299487557
0.1353972725674827,0.1353972725674827
0.05475784743492913,0.05475784743492913
-0.03239789488005303,-0.03239789488005303
-0.01203440368496374,-0.01203440368496374
0.05149968884371485,0.05149968884371485
0.021361721874982698,0.021361721874982698
-0.03239789488005303,-0.03239789488005303
-0.008776245093749453,-0.008776245093749453
0.05149968884371485,0.05149968884371485
0.021361721874982698,0.021361721874982698
-0.03239789488005303,-0.03239789488005303
0.036837975183250556,0.036837975183250556
0.30400697966282203,0.30400697966282203
0.7039459467343757,0.7039459467343757
1.2293240195676793,1.2293240195676793
1.871181262036894,1.871181262036894
2.5749435177391797,2.5749435177391797
3.1500085090885013,3.1500085090885013
3.415548434272466,3.415548434272466
3.2216879980952156,3.2216879980952156
2.5749435177391797,2.5749435177391797
1.606455876500733,1.606455876500733
0.5565142704819293,0.5565142704819293
-0.4005698156872674,-0.4005698156872674
-1.125510102232446,-1.125510102232446
-1.5124164349391427,-1.5124164349391427
-1.4619149767753212,-1.4619149767753212
-1.072565025125214,-1.072565025125214
-0.6213100602420353,-0.6213100602420353
-0.429893243008196,-0.429893243008196
-0.5374124765182674,-0.5374124765182674
-0.7157966593872496,-0.7157966593872496
-0.7052076439658032,-0.7052076439658032
-0.5699940624304103,-0.5699940624304103
-0.5374124765182674,-0.5374124765182674
-0.6832150734751068,-0.6832150734751068
-0.789105227689571,-0.789105227689571
-0.7540800228340174,-0.7540800228340174
-0.7052076439658032,-0.7052076439658032
-0.7915488466329818,-0.7915488466329818
-0.8738173510611426,-0.8738173510611426
-0.8453084633880175,-0.8453084633880175
-0.789105227689571,-0.789105227689571
-0.838792146205589,-0.838792146205589
-0.8738173510611426,-0.8738173510611426
-0.794807005224196,-0.794807005224196
-0.7052076439658032,-0.7052076439658032
-0.7402328488213568,-0.7402328488213568
-0.789105227689571,-0.789105227689571
-0.7491927849471961,-0.7491927849471961
-0.7052076439658032,-0.7052076439658032
-0.764669038255464,-0.764669038255464
-0.789105227689571,-0.789105227689571
-0.6758842166448746,-0.6758842166448746
-0.5374124765182674,-0.5374124765182674
-0.5243798421534103,-0.5243798421534103
-0.5374124765182674,-0.5374124765182674
-0.4852819390588389,-0.4852819390588389
-0.452700353146696,-0.452700353146696
-0.5447433333484996,-0.5447433333484996
-0.6213100602420353,-0.6213100602420353
-0.5846557760908746,-0.5846557760908746
-0.5374124765182674,-0.5374124765182674
-0.6156082827074103,-0.6156082827074103
-0.7052076439658032,-0.7052076439658032
-0.7084658025570175,-0.7084658025570175
-0.7052076439658032,-0.7052076439658032
-0.8045814809978389,-0.8045814809978389
-0.8738173510611426,-0.8738173510611426
-0.810283258532464,-0.810283258532464
-0.7052076439658032,-0.7052076439658032
-0.7035785646701961,-0.7035785646701961
-0.7052076439658032,-0.7052076439658032
-0.6025756483425532,-0.6025756483425532
-0.452700353146696,-0.452700353146696
-0.39568257780044597,-0.39568257780044597
-0.3688027694229281,-0.3688027694229281
-0.2718725513343031,-0.2718725513343031
-0.1162954786038209,-0.1162954786038209
-0.015292562276178026,-0.015292562276178026
0.05149968884371485,0.05149968884371485
0.12888095538505415,0.12888095538505415
0.22010939593905418,0.22010939593905418
0.26490907656825063,0.26490907656825063
0.30400697966282203,0.30400697966282203
0.3748719290217328,0.3748719290217328
0.4718021471103578,0.4718021471103578
0.5043837330225006,0.5043837330225006
0.4718021471103578,0.4718021471103578
0.43596240260700064,0.43596240260700064
0.4718021471103578,0.4718021471103578
0.5068273519659113,0.5068273519659113
0.4718021471103578,0.4718021471103578
0.38220278585196493,0.38220278585196493
0.3879045633865899,0.3879045633865899
0.4628422109845185,0.4628422109845185
0.4718021471103578,0.4718021471103578
0.3569520567700542,0.3569520567700542
0.30400697966282203,0.30400697966282203
0.3887191030343935,0.3887191030343935
0.4718021471103578,0.4718021471103578
0.42700246648116136,0.42700246648116136
0.3879045633865899,0.3879045633865899
0.43840602155041136,0.43840602155041136
0.4718021471103578,0.4718021471103578
0.4090825942294828,0.4090825942294828
0.4718021471103578,0.4718021471103578
0.8139087991878579,0.8139087991878579
1.3132216032914472,1.3132216032914472
1.7978726937345724,1.7978726937345724
2.4063338106438406,2.4063338106438406
3.2453096478815193,3.2453096478815193
4.088358183358216,4.088358183358216
4.509475181272662,4.509475181272662
4.340865474177323,4.340865474177323
3.605336172210698,3.605336172210698
2.4063338106438406,2.4063338106438406
0.939347904949608,0.939347904949608
-0.3688027694229281,-0.3688027694229281
-1.1849714965221068,-1.1849714965221068
-1.4619149767753212,-1.4619149767753212
-1.3739446948125356,-1.3739446948125356
-1.0416125185086782,-1.0416125185086782
-0.6359717739024996,-0.6359717739024996
-0.3688027694229281,-0.3688027694229281
-0.36228645224049955,-0.36228645224049955
-0.452700353146696,-0.452700353146696
-0.45921667032912455,-0.45921667032912455
-0.3688027694229281,-0.3688027694229281
-0.3313339456239638,-0.3313339456239638
-0.3688027694229281,-0.3688027694229281
-0.4290787033603924,-0.4290787033603924
-0.452700353146696,-0.452700353146696
-0.49179825624126744,-0.49179825624126744
-0.5374124765182674,-0.5374124765182674
-0.5691795227826068,-0.5691795227826068
-0.5374124765182674,-0.5374124765182674
-0.5129762870841603,-0.5129762870841603
-0.5374124765182674,-0.5374124765182674
-0.5830266967952674,-0.5830266967952674
-0.5374124765182674,-0.5374124765182674
-0.42419146547357095,-0.42419146547357095
-0.3688027694229281,-0.3688027694229281
-0.4233769258257674,-0.4233769258257674
-0.452700353146696,-0.452700353146696
-0.40382797427848166,-0.40382797427848166
-0.3688027694229281,-0.3688027694229281
-0.42744962406478526,-0.42744962406478526
-0.452700353146696,-0.452700353146696
-0.3916098795614281,-0.3916098795614281
-0.3688027694229281,-0.3688027694229281
-0.4975000337758924,-0.4975000337758924
-0.6213100602420353,-0.6213100602420353
-0.606648346581571,-0.606648346581571
-0.5374124765182674,-0.5374124765182674
-0.5675504434869996,-0.5675504434869996
-0.6213100602420353,-0.6213100602420353
-0.5976884104557317,-0.5976884104557317
-0.5374124765182674,-0.5374124765182674
-0.5422997144050888,-0.5422997144050888
-0.5374124765182674,-0.5374124765182674
-0.48120924081982097,-0.48120924081982097
-0.452700353146696,-0.452700353146696
-0.5219362232099996,-0.5219362232099996
-0.5374124765182674,-0.5374124765182674
-0.41930422758674957,-0.41930422758674957
-0.28490518569916023,-0.28490518569916023
-0.27594524957332095,-0.27594524957332095
-0.28490518569916023,-0.28490518569916023
-0.2107820777490352,-0.2107820777490352
-0.1162954786038209,-0.1162954786038209
-0.11873909754723162,-0.11873909754723162
-0.1162954786038209,-0.1162954786038209
-0.013663482980570883,-0.013663482980570883
0.1353972725674827,0.1353972725674827
0.19811682544835774,0.19811682544835774
0.22010939593905418,0.22010939593905418
0.26409453692044704,0.26409453692044704
0.30400697966282203,0.30400697966282203
0.26327999727264345,0.26327999727264345
0.22010939593905418,0.22010939593905418
0.24454558537316132,0.24454558537316132
0.30400697966282203,0.30400697966282203
0.2852725677633399,0.2852725677633399
0.22010939593905418,0.22010939593905418
0.18671327037910773,0.18671327037910773
0.22010939593905418,0.22010939593905418
0.2372147285429292,0.2372147285429292
0.22010939593905418,0.22010939593905418
0.19485866685714345,0.19485866685714345
0.22010939593905418,0.22010939593905418
0.24128742678194703,0.24128742678194703
0.22010939593905418,0.22010939593905418
0.14924444658014344,0.14924444658014344
0.1353972725674827,0.1353972725674827
0.17449517566205416,0.17449517566205416
0.22010939593905418,0.22010939593905418
0.2103349201654113,0.2103349201654113
0.22010939593905418,0.22010939593905418
0.2673526955116613,0.2673526955116613
0.30400697966282203,0.30400697966282203
0.26409453692044704,0.26409453692044704
0.22010939593905418,0.22010939593905418
0.2372147285429292,0.2372147285429292
0.30400697966282203,0.30400697966282203
0.34066126381398276,0.34066126381398276
0.3879045633865899,0.3879045633865899
0.5239326845697864,0.5239326845697864
0.8082070216532329,0.8082070216532329
1.2252513213286615,1.2252513213286615
1.8174216452818581,1.8174216452818581
2.6042669450601084,2.6042669450601084
3.4994460179962337,3.4994460179962337
4.204837352994127,4.204837352994127
4.424763057901091,4.424763057901091
4.029711328716359,4.029711328716359
3.1630411434533583,3.1630411434533583
2.0316455726541975,2.0316455726541975
0.8082070216532329,0.8082070216532329
-0.401384355335071,-0.401384355335071
-1.3780173930515534,-1.3780173930515534
-1.857781245607857,-1.857781245607857
-1.7144222675944285,-1.7144222675944285
-1.216738542786446,-1.216738542786446
-0.789105227689571,-0.789105227689571
-0.6669242805190353,-0.6669242805190353
-0.7052076439658032,-0.7052076439658032
-0.7272002144564996,-0.7272002144564996
-0.7052076439658032,-0.7052076439658032
-0.7166111990350532,-0.7166111990350532
-0.7052076439658032,-0.7052076439658032
-0.6302699963678746,-0.6302699963678746
-0.5374124765182674,-0.5374124765182674
-0.5292670800402317,-0.5292670800402317
-0.5374124765182674,-0.5374124765182674
-0.48202378046762456,-0.48202378046762456
-0.3688027694229281,-0.3688027694229281
-0.35332651611466026,-0.35332651611466026
-0.452700353146696,-0.452700353146696
-0.5594050470089639,-0.5594050470089639
-0.5374124765182674,-0.5374124765182674
-0.45677305138571384,-0.45677305138571384
-0.452700353146696,-0.452700353146696
-0.5333397782792496,-0.5333397782792496
-0.5374124765182674,-0.5374124765182674
-0.43559502054282095,-0.43559502054282095
-0.3688027694229281,-0.3688027694229281
-0.4233769258257674,-0.4233769258257674
-0.452700353146696,-0.452700353146696
-0.39242441920923166,-0.39242441920923166
-0.3688027694229281,-0.3688027694229281
-0.475507463285196,-0.475507463285196
-0.5374124765182674,-0.5374124765182674
-0.4518858134988924,-0.4518858134988924
-0.3688027694229281,-0.3688027694229281
-0.45025673420328527,-0.45025673420328527
-0.5374124765182674,-0.5374124765182674
-0.475507463285196,-0.475507463285196
-0.3688027694229281,-0.3688027694229281
-0.418489687938946,-0.418489687938946
-0.5374124765182674,-0.5374124765182674
-0.5716231417260175,-0.5716231417260175
-0.5374124765182674,-0.5374124765182674
-0.5699940624304103,-0.5699940624304103
-0.6213100602420353,-0.6213100602420353
-0.6058338069337674,-0.6058338069337674
-0.5374124765182674,-0.5374124765182674
-0.5023872716627138,-0.5023872716627138
-0.452700353146696,-0.452700353146696
-0.36473007118391026,-0.36473007118391026
-0.28490518569916023,-0.28490518569916023
-0.2661707737996781,-0.2661707737996781
-0.20100760197539236,-0.20100760197539236
-0.03809967241467803,-0.03809967241467803
0.1353972725674827,0.1353972725674827
0.1989313650961613,0.1989313650961613
0.22010939593905418,0.22010939593905418
0.2852725677633399,0.2852725677633399
0.3879045633865899,0.3879045633865899
0.4408496404938221,0.4408496404938221
0.4718021471103578,0.4718021471103578
0.5149727484439471,0.5149727484439471
0.5565142704819293,0.5565142704819293
0.5271908431610006,0.5271908431610006
0.4718021471103578,0.4718021471103578
0.44655141802844706,0.44655141802844706
0.4718021471103578,0.4718021471103578
0.4832057021796078,0.4832057021796078
0.4718021471103578,0.4718021471103578
0.45551135415428634,0.45551135415428634
0.4718021471103578,0.4718021471103578
0.4840202418274114,0.4840202418274114
0.4718021471103578,0.4718021471103578
0.42374430788994705,0.42374430788994705
0.3879045633865899,0.3879045633865899
0.3488066602920185,0.3488066602920185
0.30400697966282203,0.30400697966282203
0.2616509179770363,0.2616509179770363
0.30400697966282203,0.30400697966282203
0.3748719290217328,0.3748719290217328
0.3879045633865899,0.3879045633865899
0.3121523761408578,0.3121523761408578
0.30400697966282203,0.30400697966282203
0.3944208805690185,0.3944208805690185
0.4718021471103578,0.4718021471103578
0.43026062507237567,0.43026062507237567
0.3879045633865899,0.3879045633865899
0.42781700612896495,0.42781700612896495
0.4718021471103578,0.4718021471103578
0.4204861492987328,0.4204861492987328
0.3879045633865899,0.3879045633865899
0.4766893849971792,0.4766893849971792
0.6404118542056971,0.6404118542056971
0.792730768344965,0.792730768344965
1.0607143124723402,1.0607143124723402
1.5583980372803223,1.5583980372803223
2.238538643196305,2.238538643196305
2.939042740307376,2.939042740307376
3.584158141367805,3.584158141367805
3.998758822099823,3.998758822099823
3.92056301591068,3.92056301591068
3.2249461566864297,3.2249461566864297
2.153826519824733,2.153826519824733
0.9939220613524472,0.9939220613524472
-0.1162954786038209,-0.1162954786038209
-1.079895881955446,-1.079895881955446
-1.6305246838706606,-1.6305246838706606
-1.6386700803486962,-1.6386700803486962
-1.2941198093277855,-1.2941198093277855
-0.9430532211244461,-0.9430532211244461
-0.7052076439658032,-0.7052076439658032
-0.5708086020782138,-0.5708086020782138
-0.5374124765182674,-0.5374124765182674
-0.623753679185446,-0.623753679185446
-0.7052076439658032,-0.7052076439658032
-0.692175009600946,-0.692175009600946
-0.6213100602420353,-0.6213100602420353
-0.629455456720071,-0.629455456720071
-0.7052076439658032,-0.7052076439658032
-0.7793307519159282,-0.7793307519159282
-0.789105227689571,-0.789105227689571
-0.7931779259285889,-0.7931779259285889
-0.789105227689571,-0.789105227689571
-0.7703708157900889,-0.7703708157900889
-0.7052076439658032,-0.7052076439658032
-0.6709969787580532,-0.6709969787580532
-0.7052076439658032,-0.7052076439658032
-0.7581527210730353,-0.7581527210730353
-0.7052076439658032,-0.7052076439658032
-0.5846557760908746,-0.5846557760908746
-0.5374124765182674,-0.5374124765182674
-0.6042047276381604,-0.6042047276381604
-0.6213100602420353,-0.6213100602420353
-0.5488160315875175,-0.5488160315875175
-0.5374124765182674,-0.5374124765182674
-0.6791423752360889,-0.6791423752360889
-0.789105227689571,-0.789105227689571
-0.7532654831862139,-0.7532654831862139
-0.7052076439658032,-0.7052076439658032
-0.794807005224196,-0.794807005224196
-0.8738173510611426,-0.8738173510611426
-0.8078396395890532,-0.8078396395890532
-0.7052076439658032,-0.7052076439658032
-0.7337165316389281,-0.7337165316389281
-0.789105227689571,-0.789105227689571
-0.7565236417774281,-0.7565236417774281
-0.7052076439658032,-0.7052076439658032
-0.7557091021296246,-0.7557091021296246
-0.789105227689571,-0.789105227689571
-0.7109094215004281,-0.7109094215004281
-0.6213100602420353,-0.6213100602420353
-0.6587788840409996,-0.6587788840409996
-0.7052076439658032,-0.7052076439658032
-0.6424880910849282,-0.6424880910849282
-0.5374124765182674,-0.5374124765182674
-0.526823461096821,-0.526823461096821
-0.5374124765182674,-0.5374124765182674
-0.4722493046939817,-0.4722493046939817
-0.3688027694229281,-0.3688027694229281
-0.3288903266805531,-0.3288903266805531
-0.28490518569916023,-0.28490518569916023
-0.16924055571105306,-0.16924055571105306
-0.03239789488005303,-0.03239789488005303
-0.0014453882635173082,-0.0014453882635173082
-0.03239789488005303,-0.03239789488005303
-0.024252498402017313,-0.024252498402017313
0.05149968884371485,0.05149968884371485
0.08652489369926843,0.08652489369926843
0.05149968884371485,0.05149968884371485
0.008329087510125552,0.008329087510125552
0.05149968884371485,0.05149968884371485
0.12399371749823272,0.12399371749823272
0.1353972725674827,0.1353972725674827
0.06779048179978628,0.06779048179978628
0.05149968884371485,0.05149968884371485
0.12725187608944702,0.12725187608944702
0.22010939593905418,0.22010939593905418
0.2306984113605006,0.2306984113605006
0.22010939593905418,0.22010939593905418
0.22418209417807203,0.22418209417807203
0.22010939593905418,0.22010939593905418
0.18264057214008989,0.18264057214008989
0.22010939593905418,0.22010939593905418
0.33007224839253635,0.33007224839253635
0.3879045633865899,0.3879045633865899
0.3235559312101078,0.3235559312101078
0.30400697966282203,0.30400697966282203
0.3984935788080364,0.3984935788080364
0.4718021471103578,0.4718021471103578
0.3903481823300006,0.3903481823300006
0.30400697966282203,0.30400697966282203
0.3308867880403399,0.3308867880403399
0.3879045633865899,0.3879045633865899
0.3357740259271613,0.3357740259271613
0.30400697966282203,0.30400697966282203
0.38138824620416134,0.38138824620416134
0.4718021471103578,0.4718021471103578
0.4115262131728935,0.4115262131728935
0.30400697966282203,0.30400697966282203
0.2787562505809113,0.2787562505809113
0.30400697966282203,0.30400697966282203
0.26327999727264345,0.26327999727264345
0.22010939593905418,0.22010939593905418
0.24943282325998276,0.24943282325998276
0.30400697966282203,0.30400697966282203
0.2689817748072685,0.2689817748072685
0.22010939593905418,0.22010939593905418
0.2738690126940899,0.2738690126940899
0.4718021471103578,0.4718021471103578
0.769923658206465,0.769923658206465
1.2293240195676793,1.2293240195676793
1.8882865946407688,1.8882865946407688
2.6588411014629476,2.6588411014629476
3.2689312976678226,3.2689312976678226
3.4994460179962337,3.4994460179962337
3.2461241875293227,3.2461241875293227
2.5749435177391797,2.5749435177391797
1.6146012729787689,1.6146012729787689
0.5565142704819293,0.5565142704819293
-0.4461840359642674,-0.4461840359642674
-1.2102222256040176,-1.2102222256040176
-1.5800232257068392,-1.5800232257068392
-1.4619149767753212,-1.4619149767753212
-1.0122890911877498,-1.0122890911877498
-0.5374124765182674,-0.5374124765182674
-0.3223740094981245,-0.3223740094981245
-0.3688027694229281,-0.3688027694229281
-0.5015727320149103,-0.5015727320149103
-0.5374124765182674,-0.5374124765182674
-0.49179825624126744,-0.49179825624126744
-0.452700353146696,-0.452700353146696
-0.4893546372978567,-0.4893546372978567
-0.5374124765182674,-0.5374124765182674
-0.5569614280655532,-0.5569614280655532
-0.5374124765182674,-0.5374124765182674
-0.5357833972226603,-0.5357833972226603
-0.5374124765182674,-0.5374124765182674
-0.5447433333484996,-0.5447433333484996
-0.5374124765182674,-0.5374124765182674
-0.5414851747572853,-0.5414851747572853
-0.5374124765182674,-0.5374124765182674
-0.5357833972226603,-0.5357833972226603
-0.5374124765182674,-0.5374124765182674
-0.549630571235321,-0.549630571235321
-0.5374124765182674,-0.5374124765182674
-0.5203071439143925,-0.5203071439143925
-0.5374124765182674,-0.5374124765182674
-0.5993174897513389,-0.5993174897513389
-0.6213100602420353,-0.6213100602420353
-0.5830266967952674,-0.5830266967952674
-0.5374124765182674,-0.5374124765182674
-0.5406706351094818,-0.5406706351094818
-0.5374124765182674,-0.5374124765182674
-0.5203071439143925,-0.5203071439143925
-0.5374124765182674,-0.5374124765182674
-0.6082774258771781,-0.6082774258771781
-0.6213100602420353,-0.6213100602420353
-0.5618486659523746,-0.5618486659523746
-0.5374124765182674,-0.5374124765182674
-0.6278263774244639,-0.6278263774244639
-0.7052076439658032,-0.7052076439658032
-0.7019494853745889,-0.7019494853745889
-0.7052076439658032,-0.7052076439658032
-0.8094687188846603,-0.8094687188846603
-0.8738173510611426,-0.8738173510611426
-0.7850325294505532,-0.7850325294505532
-0.6213100602420353,-0.6213100602420353
-0.5520741901787317,-0.5520741901787317
-0.5374124765182674,-0.5374124765182674
-0.4779510822286067,-0.4779510822286067
-0.3688027694229281,-0.3688027694229281
-0.3109704544288745,-0.3109704544288745
-0.28490518569916023,-0.28490518569916023
-0.23033102929632093,-0.23033102929632093
-0.1162954786038209,-0.1162954786038209
0.0034418496233041217,0.0034418496233041217
0.1353972725674827,0.1353972725674827
0.269796314455072,0.269796314455072
0.3879045633865899,0.3879045633865899
0.4416641801416257,0.4416641801416257
0.4718021471103578,0.4718021471103578
0.5320780810478221,0.5320780810478221
0.6404118542056971,0.6404118542056971
0.6933569313129293,0.6933569313129293
0.6404118542056971,0.6404118542056971
0.5451107154126792,0.5451107154126792
0.5565142704819293,0.5565142704819293
0.63878277491009,0.63878277491009
0.6404118542056971,0.6404118542056971
0.496238336544465,0.496238336544465
0.3879045633865899,0.3879045633865899
0.41315529246850063,0.41315529246850063
0.4718021471103578,0.4718021471103578
0.4058244356382685,0.4058244356382685
0.30400697966282203,0.30400697966282203
0.2706108541028756,0.2706108541028756
0.30400697966282203,0.30400697966282203
0.29749066248039346,0.29749066248039346
0.30400697966282203,0.30400697966282203
0.3512502792354292,0.3512502792354292
0.3879045633865899,0.3879045633865899
0.34066126381398276,0.34066126381398276
0.30400697966282203,0.30400697966282203
0.34147580346178635,0.34147580346178635
0.3879045633865899,0.3879045633865899
0.3439194224051971,0.3439194224051971
0.30400697966282203,0.30400697966282203
0.37161377043051846,0.37161377043051846
0.5565142704819293,0.5565142704819293
0.815537878483465,0.815537878483465
1.2293240195676793,1.2293240195676793
1.8125344073950367,1.8125344073950367
2.4902313943676084,2.4902313943676084
3.1711865399313943,3.1711865399313943
3.8358508925391086,3.8358508925391086
4.261040588692573,4.261040588692573
4.088358183358216,4.088358183358216
3.183404634648448,3.183404634648448
1.9021337686534296,1.9021337686534296
0.6599608057529829,0.6599608057529829
-0.3688027694229281,-0.3688027694229281
-1.1442445141319282,-1.1442445141319282
-1.4619149767753212,-1.4619149767753212
-1.2314002564469104,-1.2314002564469104
-0.7052076439658032,-0.7052076439658032
-0.3402938817498031,-0.3402938817498031
-0.28490518569916023,-0.28490518569916023
-0.3679882297751245,-0.3679882297751245
-0.3688027694229281,-0.3688027694229281
-0.30771229583766024,-0.30771229583766024
-0.28490518569916023,-0.28490518569916023
-0.3378502628063924,-0.3378502628063924
-0.3688027694229281,-0.3688027694229281
-0.36473007118391026,-0.36473007118391026
-0.3688027694229281,-0.3688027694229281
-0.42663508441698167,-0.42663508441698167
-0.452700353146696,-0.452700353146696
-0.4665475271593567,-0.4665475271593567
-0.5374124765182674,-0.5374124765182674
-0.6775132959404817,-0.6775132959404817
-0.7052076439658032,-0.7052076439658032
-0.5976884104557317,-0.5976884104557317
-0.5374124765182674,-0.5374124765182674
-0.6376008531981068,-0.6376008531981068
-0.7052076439658032,-0.7052076439658032
-0.6196809809464282,-0.6196809809464282
-0.5374124765182674,-0.5374124765182674
-0.6213100602420353,-0.6213100602420353
-0.7052076439658032,-0.7052076439658032
-0.6392299324937138,-0.6392299324937138
-0.5374124765182674,-0.5374124765182674
-0.5716231417260175,-0.5716231417260175
-0.6213100602420353,-0.6213100602420353
-0.5748813003172317,-0.5748813003172317
-0.5374124765182674,-0.5374124765182674
-0.6351572342546961,-0.6351572342546961
-0.7052076439658032,-0.7052076439658032
-0.6278263774244639,-0.6278263774244639
-0.5374124765182674,-0.5374124765182674
-0.6107210448205889,-0.6107210448205889
-0.7052076439658032,-0.7052076439658032
-0.6555207254497853,-0.6555207254497853
-0.5374124765182674,-0.5374124765182674
-0.5447433333484996,-0.5447433333484996
-0.6213100602420353,-0.6213100602420353
-0.6229391395376425,-0.6229391395376425
-0.5374124765182674,-0.5374124765182674
-0.4844673994110353,-0.4844673994110353
-0.452700353146696,-0.452700353146696
-0.3883517209702138,-0.3883517209702138
-0.28490518569916023,-0.28490518569916023
-0.2083384588056245,-0.2083384588056245
-0.1162954786038209,-0.1162954786038209
0.0327652769442327,0.0327652769442327
0.22010939593905418,0.22010939593905418
0.3202977726188935,0.3202977726188935
0.30400697966282203,0.30400697966282203
0.23232749065610775,0.23232749065610775
0.22010939593905418,0.22010939593905418
0.2616509179770363,0.2616509179770363
0.30400697966282203,0.30400697966282203
0.3015633607194113,0.3015633607194113
0.30400697966282203,0.30400697966282203
0.2917888849457685,0.2917888849457685
0.22010939593905418,0.22010939593905418
0.09467029017730415,0.09467029017730415
0.05149968884371485,0.05149968884371485
0.10363022630314343,0.10363022630314343
0.1353972725674827,0.1353972725674827
0.07349225933441128,0.07349225933441128
0.05149968884371485,0.05149968884371485
0.1134047020767863,0.1134047020767863
0.1353972725674827,0.1353972725674827
0.029507118353018412,0.029507118353018412
-0.03239789488005303,-0.03239789488005303
0.04579791130908985,0.04579791130908985
0.1353972725674827,0.1353972725674827
0.09141213158608985,0.09141213158608985
0.05149968884371485,0.05149968884371485
0.12888095538505415,0.12888095538505415
0.22010939593905418,0.22010939593905418
0.18101149284448273,0.18101149284448273
0.1353972725674827,0.1353972725674827
0.1818260324922863,0.1818260324922863
0.22010939593905418,0.22010939593905418
0.12480825714603629,0.12480825714603629
0.05149968884371485,0.05149968884371485
0.12073555890701844,0.12073555890701844
0.22010939593905418,0.22010939593905418
0.16472069988841131,0.16472069988841131
0.05149968884371485,0.05149968884371485
0.018918102931571982,0.018918102931571982
0.05149968884371485,0.05149968884371485
0.039281594126661275,0.039281594126661275
0.05149968884371485,0.05149968884371485
0.1353972725674827,0.1353972725674827
0.22010939593905418,0.22010939593905418
0.18589873073130417,0.18589873073130417
0.1353972725674827,0.1353972725674827
0.161462541297197,0.161462541297197
0.22010939593905418,0.22010939593905418
0.16879339812742916,0.16879339812742916
0.05149968884371485,0.05149968884371485
-0.005518086502535166,-0.005518086502535166
0.05149968884371485,0.05149968884371485
0.12236463820262558,0.12236463820262558
0.1353972725674827,0.1353972725674827
0.08489581440366128,0.08489581440366128
0.05149968884371485,0.05149968884371485
0.09955752806412557,0.09955752806412557
0.30400697966282203,0.30400697966282203
0.6795097573002685,0.6795097573002685
1.2293240195676793,1.2293240195676793
1.867108563797876,1.867108563797876
2.4902313943676084,2.4902313943676084
2.9585916918546618,2.9585916918546618
3.1630411434533583,3.1630411434533583
2.963478929741483,2.963478929741483
2.3224362269200727,2.3224362269200727
1.3702393786376972,1.3702393786376972
0.3879045633865899,0.3879045633865899
-0.4844673994110353,-0.4844673994110353
-1.2102222256040176,-1.2102222256040176
-1.6720662059086426,-1.6720662059086426
-1.6305246838706606,-1.6305246838706606
-1.1654225449748212,-1.1654225449748212
-0.7052076439658032,-0.7052076439658032
-0.5789539985562496,-0.5789539985562496
-0.6213100602420353,-0.6213100602420353
-0.5960593311601246,-0.5960593311601246
-0.5374124765182674,-0.5374124765182674
-0.5846557760908746,-0.5846557760908746
-0.6213100602420353,-0.6213100602420353
-0.5390415558138746,-0.5390415558138746
-0.452700353146696,-0.452700353146696
-0.526823461096821,-0.526823461096821
-0.6213100602420353,-0.6213100602420353
-0.6025756483425532,-0.6025756483425532
-0.5374124765182674,-0.5374124765182674
-0.5569614280655532,-0.5569614280655532
-0.5374124765182674,-0.5374124765182674
-0.4005698156872674,-0.4005698156872674
-0.28490518569916023,-0.28490518569916023
-0.34762473858003523,-0.34762473858003523
-0.452700353146696,-0.452700353146696
-0.4380386394862317,-0.4380386394862317
-0.3688027694229281,-0.3688027694229281
-0.41930422758674957,-0.41930422758674957
-0.5374124765182674,-0.5374124765182674
-0.5838412364430711,-0.5838412364430711
-0.5374124765182674,-0.5374124765182674
-0.5178635249709818,-0.5178635249709818
-0.5374124765182674,-0.5374124765182674
-0.5480014919397138,-0.5480014919397138
-0.5374124765182674,-0.5374124765182674
-0.589543013977696,-0.589543013977696
-0.7052076439658032,-0.7052076439658032
-0.8045814809978389,-0.8045814809978389
-0.789105227689571,-0.789105227689571
-0.7198693576262675,-0.7198693576262675
-0.7052076439658032,-0.7052076439658032
-0.7907343069851782,-0.7907343069851782
-0.8738173510611426,-0.8738173510611426
-0.9153588730991247,-0.9153588730991247
-0.9577149347849104,-0.9577149347849104
-1.0367252806218568,-1.0367252806218568
-1.0416125185086782,-1.0416125185086782
-0.9332787453508032,-0.9332787453508032
-0.789105227689571,-0.789105227689571
-0.7100948818526246,-0.7100948818526246
-0.6213100602420353,-0.6213100602420353
-0.4852819390588389,-0.4852819390588389
-0.3688027694229281,-0.3688027694229281
-0.3427375006932138,-0.3427375006932138
-0.28490518569916023,-0.28490518569916023
-0.12606995437746377,-0.12606995437746377
0.05149968884371485,0.05149968884371485
0.13784089151089343,0.13784089151089343
0.22010939593905418,0.22010939593905418
0.3569520567700542,0.3569520567700542
0.4718021471103578,0.4718021471103578
0.4726166867581614,0.4726166867581614
0.4718021471103578,0.4718021471103578
0.5516270325951078,0.5516270325951078
0.6404118542056971,0.6404118542056971
0.6412263938535007,0.6412263938535007
0.6404118542056971,0.6404118542056971
0.67299344011784,0.67299344011784
0.6404118542056971,0.6404118542056971
0.4856493211230185,0.4856493211230185
0.3879045633865899,0.3879045633865899
0.4335187836635899,0.4335187836635899
0.4718021471103578,0.4718021471103578
0.35043573958762564,0.35043573958762564
0.22010939593905418,0.22010939593905418
0.22906933206489347,0.22906933206489347
0.30400697966282203,0.30400697966282203
0.27631263163750064,0.27631263163750064
0.22010939593905418,0.22010939593905418
0.24128742678194703,0.24128742678194703
0.30400697966282203,0.30400697966282203
0.2795707902287149,0.2795707902287149
0.22010939593905418,0.22010939593905418
0.20381860298298274,0.20381860298298274
0.22010939593905418,0.22010939593905418
0.17775333425326845,0.17775333425326845
0.1353972725674827,0.1353972725674827
0.15820438270598272,0.15820438270598272
0.22010939593905418,0.22010939593905418
0.18019695319667917,0.18019695319667917
0.05149968884371485,0.05149968884371485
-0.0332124345278566,-0.0332124345278566
0.05149968884371485,0.05149968884371485
0.19241504791373273,0.19241504791373273
0.22010939593905418,0.22010939593905418
0.10688838489435772,0.10688838489435772
0.05149968884371485,0.05149968884371485
0.12806641573725058,0.12806641573725058
0.22010939593905418,0.22010939593905418
0.18915688932251845,0.18915688932251845
0.1353972725674827,0.1353972725674827
0.1590189223537863,0.1590189223537863
0.22010939593905418,0.22010939593905418
0.2168512373478399,0.2168512373478399
0.22010939593905418,0.22010939593905418
0.2706108541028756,0.2706108541028756
0.30400697966282203,0.30400697966282203
0.24617466466876847,0.24617466466876847
0.22010939593905418,0.22010939593905418
0.27305447304628633,0.27305447304628633
0.30400697966282203,0.30400697966282203
0.20870584086980418,0.20870584086980418
0.1353972725674827,0.1353972725674827
0.16960793777523273,0.16960793777523273
0.22010939593905418,0.22010939593905418
0.144357208693322,0.144357208693322
0.05149968884371485,0.05149968884371485
0.037652514831054126,0.037652514831054126
0.05149968884371485,0.05149968884371485
-0.003889007206928023,-0.003889007206928023
-0.03239789488005303,-0.03239789488005303
0.04498337166128628,0.04498337166128628
0.1353972725674827,0.1353972725674827
0.081637655812447,0.081637655812447
-0.03239789488005303,-0.03239789488005303
-0.010405324389356596,-0.010405324389356596
0.22010939593905418,0.22010939593905418
0.5109000502049292,0.5109000502049292
0.8082070216532329,0.8082070216532329
1.2448002728759473,1.2448002728759473
1.9860313523771975,1.9860313523771975
2.8706214098918763,2.8706214098918763
3.4994460179962337,3.4994460179962337
3.5523910951034656,3.5523910951034656
3.0791435597295904,3.0791435597295904
2.262974832630412,2.262974832630412
1.2293240195676793,1.2293240195676793
0.04335429236567913,0.04335429236567913
-1.0416125185086782,-1.0416125185086782
-1.7298985209026962,-1.7298985209026962
-1.8830319746897677,-1.8830319746897677
-1.6533317940091605,-1.6533317940091605
-1.2941198093277855,-1.2941198093277855
-1.0603469304081603,-1.0603469304081603
-1.0416125185086782,-1.0416125185086782
-1.1401718158929104,-1.1401718158929104
-1.125510102232446,-1.125510102232446
-0.9593440140805175,-0.9593440140805175
-0.789105227689571,-0.789105227689571
-0.7402328488213568,-0.7402328488213568
-0.7052076439658032,-0.7052076439658032
-0.6164228223552138,-0.6164228223552138
-0.5374124765182674,-0.5374124765182674
-0.5504451108831245,-0.5504451108831245
-0.5374124765182674,-0.5374124765182674
-0.4461840359642674,-0.4461840359642674
-0.3688027694229281,-0.3688027694229281
-0.412787910404321,-0.412787910404321
-0.452700353146696,-0.452700353146696
-0.4087152121653031,-0.4087152121653031
-0.3688027694229281,-0.3688027694229281
-0.42582054476917813,-0.42582054476917813
-0.452700353146696,-0.452700353146696
-0.36473007118391026,-0.36473007118391026
-0.28490518569916023,-0.28490518569916023
-0.35088289717124954,-0.35088289717124954
-0.452700353146696,-0.452700353146696
-0.49098371659346385,-0.49098371659346385
-0.5374124765182674,-0.5374124765182674
-0.6604079633366068,-0.6604079633366068
-0.7052076439658032,-0.7052076439658032
-0.6074628862293746,-0.6074628862293746
-0.5374124765182674,-0.5374124765182674
-0.6506334875629639,-0.6506334875629639
-0.789105227689571,-0.789105227689571
-0.8062105602934461,-0.8062105602934461
-0.789105227689571,-0.789105227689571
-0.8811482078913746,-0.8811482078913746
-0.9577149347849104,-0.9577149347849104
-0.9169879523947319,-0.9169879523947319
-0.8738173510611426,-0.8738173510611426
-0.987038362105839,-0.987038362105839
-1.125510102232446,-1.125510102232446
-1.1303973401192675,-1.1303973401192675
-1.0416125185086782,-1.0416125185086782
-1.0253217255526068,-1.0253217255526068
-1.0416125185086782,-1.0416125185086782
-0.9911110603448569,-0.9911110603448569
-0.8738173510611426,-0.8738173510611426
-0.7866616087461603,-0.7866616087461603
-0.7052076439658032,-0.7052076439658032
-0.5887284743298924,-0.5887284743298924
-0.452700353146696,-0.452700353146696
-0.3688027694229281,-0.3688027694229281
-0.28490518569916023,-0.28490518569916023
-0.14154620768573162,-0.14154620768573162
0.05149968884371485,0.05149968884371485
0.18019695319667917,0.18019695319667917
0.22010939593905418,0.22010939593905418
0.22988387171269703,0.22988387171269703
0.30400697966282203,0.30400697966282203
0.4082680545816792,0.4082680545816792
0.4718021471103578,0.4718021471103578
0.46691490922353635,0.46691490922353635
0.4718021471103578,0.4718021471103578
0.49298017795325066,0.49298017795325066
0.4718021471103578,0.4718021471103578
0.3740573893739292,0.3740573893739292
0.30400697966282203,0.30400697966282203
0.2999342814238042,0.2999342814238042
0.30400697966282203,0.30400697966282203
0.24861828361217916,0.24861828361217916
0.22010939593905418,0.22010939593905418
0.23558564924732203,0.23558564924732203
0.22010939593905418,0.22010939593905418
0.10607384524655414,0.10607384524655414
0.05149968884371485,0.05149968884371485
0.12236463820262558,0.12236463820262558
0.22010939593905418,0.22010939593905418
0.19241504791373273,0.19241504791373273
0.1353972725674827,0.1353972725674827
0.15494622411476844,0.15494622411476844
0.22010939593905418,0.22010939593905418
0.22662571312148275,0.22662571312148275
0.22010939593905418,0.22010939593905418
0.22988387171269703,0.22988387171269703
0.22010939593905418,0.22010939593905418
0.16553523953621488,0.16553523953621488
0.22010939593905418,0.22010939593905418
0.45795497309769706,0.45795497309769706
0.8082070216532329,0.8082070216532329
1.2048878301335721,1.2048878301335721
1.8174216452818581,1.8174216452818581
2.761473097086198,2.761473097086198
3.8358508925391086,3.8358508925391086
4.555089401549663,4.555089401549663
4.59337276499643,4.59337276499643
3.937668348514555,3.937668348514555
2.8266362689104834,2.8266362689104834
1.5030093412296794,1.5030093412296794
0.22010939593905418,0.22010939593905418
-0.7842179898027496,-0.7842179898027496
-1.2941198093277855,-1.2941198093277855
-1.317741459114089,-1.317741459114089
-1.0416125185086782,-1.0416125185086782
-0.714982119739446,-0.714982119739446
-0.452700353146696,-0.452700353146696
-0.3313339456239638,-0.3313339456239638
-0.3688027694229281,-0.3688027694229281
-0.5023872716627138,-0.5023872716627138
-0.5374124765182674,-0.5374124765182674
-0.4209333068823567,-0.4209333068823567
-0.28490518569916023,-0.28490518569916023
-0.2906069632337852,-0.2906069632337852
-0.3688027694229281,-0.3688027694229281
-0.4290787033603924,-0.4290787033603924
-0.452700353146696,-0.452700353146696
-0.48772555800224954,-0.48772555800224954
-0.452700353146696,-0.452700353146696
-0.37613362625316027,-0.37613362625316027
-0.3688027694229281,-0.3688027694229281
-0.48283832011542815,-0.48283832011542815
-0.5374124765182674,-0.5374124765182674
-0.452700353146696,-0.452700353146696
-0.3688027694229281,-0.3688027694229281
-0.412787910404321,-0.412787910404321
-0.452700353146696,-0.452700353146696
-0.3997552760394638,-0.3997552760394638
-0.3688027694229281,-0.3688027694229281
-0.47062022539837456,-0.47062022539837456
-0.5374124765182674,-0.5374124765182674
-0.4575875910335174,-0.4575875910335174
-0.3688027694229281,-0.3688027694229281
-0.43885317913403527,-0.43885317913403527
-0.5374124765182674,-0.5374124765182674
-0.5390415558138746,-0.5390415558138746
-0.5374124765182674,-0.5374124765182674
-0.6652952012234282,-0.6652952012234282
-0.789105227689571,-0.789105227689571
-0.7972506241676067,-0.7972506241676067
-0.789105227689571,-0.789105227689571
-0.9161734127469282,-0.9161734127469282
-1.0416125185086782,-1.0416125185086782
-1.0106600118921425,-1.0106600118921425
-0.8738173510611426,-0.8738173510611426
-0.8078396395890532,-0.8078396395890532
-0.789105227689571,-0.789105227689571
-0.7272002144564996,-0.7272002144564996
-0.6213100602420353,-0.6213100602420353
-0.5708086020782138,-0.5708086020782138
-0.5374124765182674,-0.5374124765182674
-0.44536949631646383,-0.44536949631646383
-0.28490518569916023,-0.28490518569916023
-0.1676114764154459,-0.1676114764154459
-0.1162954786038209,-0.1162954786038209
-0.0731248772702316,-0.0731248772702316
0.05149968884371485,0.05149968884371485
0.20381860298298274,0.20381860298298274
0.30400697966282203,0.30400697966282203
0.3333304069837506,0.3333304069837506
0.3879045633865899,0.3879045633865899
0.46121313168891137,0.46121313168891137
0.4718021471103578,0.4718021471103578
0.3993081184558399,0.3993081184558399
0.3879045633865899,0.3879045633865899
0.45551135415428634,0.45551135415428634
0.4718021471103578,0.4718021471103578
0.3577665964178578,0.3577665964178578
0.30400697966282203,0.30400697966282203
0.38709002373878637,0.38709002373878637
0.4718021471103578,0.4718021471103578
0.3944208805690185,0.3944208805690185
0.30400697966282203,0.30400697966282203
0.32925770874473276,0.32925770874473276
0.3879045633865899,0.3879045633865899
0.3422903431095899,0.3422903431095899
0.30400697966282203,0.30400697966282203
0.3805737065563578,0.3805737065563578
0.4718021471103578,0.4718021471103578
0.4107116735250899,0.4107116735250899
0.30400697966282203,0.30400697966282203
0.33821764487057204,0.33821764487057204
0.5565142704819293,0.5565142704819293
0.8635957177038758,0.8635957177038758
1.3132216032914472,1.3132216032914472
1.9958058281508404,1.9958058281508404
2.9113483922820547,2.9113483922820547
3.876577874929287,3.876577874929287
4.677270348720198,4.677270348720198
5.022635159388912,5.022635159388912
4.677270348720198,4.677270348720198
3.5931180774936444,3.5931180774936444
2.069928936100965,2.069928936100965
0.5206745259785721,0.5206745259785721
-0.7052076439658032,-0.7052076439658032
-1.4456241838192498,-1.4456241838192498
-1.6305246838706606,-1.6305246838706606
-1.3600975207998747,-1.3600975207998747
-0.8738173510611426,-0.8738173510611426
-0.4958709544802853,-0.4958709544802853
-0.3688027694229281,-0.3688027694229281
-0.4217478465301603,-0.4217478465301603
-0.452700353146696,-0.452700353146696
-0.412787910404321,-0.412787910404321
-0.3688027694229281,-0.3688027694229281
-0.38183540378778524,-0.38183540378778524
-0.3688027694229281,-0.3688027694229281
-0.31585769231569594,-0.31585769231569594
-0.28490518569916023,-0.28490518569916023
-0.34110842139760666,-0.34110842139760666
-0.3688027694229281,-0.3688027694229281
-0.3288903266805531,-0.3288903266805531
-0.28490518569916023,-0.28490518569916023
-0.33051940597616025,-0.33051940597616025
-0.3688027694229281,-0.3688027694229281
-0.355770135058071,-0.355770135058071
-0.3688027694229281,-0.3688027694229281
-0.4730638443417853,-0.4730638443417853
-0.5374124765182674,-0.5374124765182674
-0.492612795889071,-0.492612795889071
-0.452700353146696,-0.452700353146696
-0.5357833972226603,-0.5357833972226603
-0.6213100602420353,-0.6213100602420353
-0.623753679185446,-0.623753679185446
-0.6213100602420353,-0.6213100602420353
-0.6946186285443567,-0.6946186285443567
-0.7052076439658032,-0.7052076439658032
-0.6017611086947496,-0.6017611086947496
-0.5374124765182674,-0.5374124765182674
-0.6327136153112853,-0.6327136153112853
-0.7052076439658032,-0.7052076439658032
-0.6286409170722674,-0.6286409170722674
-0.5374124765182674,-0.5374124765182674
-0.6090919655249817,-0.6090919655249817
-0.7052076439658032,-0.7052076439658032
-0.6612225029844103,-0.6612225029844103
-0.5374124765182674,-0.5374124765182674
-0.5146053663797674,-0.5146053663797674
-0.5374124765182674,-0.5374124765182674
-0.4852819390588389,-0.4852819390588389
-0.3688027694229281,-0.3688027694229281
-0.3134140733722852,-0.3134140733722852
-0.28490518569916023,-0.28490518569916023
-0.1936767451451602,-0.1936767451451602
-0.03239789488005303,-0.03239789488005303
0.08245219546025057,0.08245219546025057
0.1353972725674827,0.1353972725674827
0.1875278100269113,0.1875278100269113
0.30400697966282203,0.30400697966282203
0.41885707000312566,0.41885707000312566
0.4718021471103578,0.4718021471103578
0.45876951274550065,0.45876951274550065
0.4718021471103578,0.4718021471103578
0.5223036052741793,0.5223036052741793
0.5565142704819293,0.5565142704819293
0.5166018277395542,0.5166018277395542
0.4718021471103578,0.4718021471103578
0.4644712902801257,0.4644712902801257
0.4718021471103578,0.4718021471103578
0.4335187836635899,0.4335187836635899
0.3879045633865899,0.3879045633865899
0.35043573958762564,0.35043573958762564
0.30400697966282203,0.30400697966282203
0.23232749065610775,0.23232749065610775
0.22010939593905418,0.22010939593905418
0.24861828361217916,0.24861828361217916
0.22010939593905418,0.22010939593905418
0.098742988416322,0.098742988416322
0.05149968884371485,0.05149968884371485
0.13458273291967915,0.13458273291967915
0.22010939593905418,0.22010939593905418
0.178567873901072,0.178567873901072
0.1353972725674827,0.1353972725674827
0.17693879460546488,0.17693879460546488
0.22010939593905418,0.22010939593905418
0.16390616024060772,0.16390616024060772
0.1353972725674827,0.1353972725674827
0.19485866685714345,0.19485866685714345
0.22010939593905418,0.22010939593905418
0.110146543485572,0.110146543485572
0.05149968884371485,0.05149968884371485
0.161462541297197,0.161462541297197
0.30400697966282203,0.30400697966282203
0.28934526600235777,0.28934526600235777
0.22010939593905418,0.22010939593905418
0.21522215805223274,0.21522215805223274
0.22010939593905418,0.22010939593905418
0.12236463820262558,0.12236463820262558
0.05149968884371485,0.05149968884371485
0.11666286066800058,0.11666286066800058
0.22010939593905418,0.22010939593905418
0.1761242549576613,0.1761242549576613
0.05149968884371485,0.05149968884371485
-0.0006308486157137365,-0.0006308486157137365
0.05149968884371485,0.05149968884371485
0.0498706095481077,0.0498706095481077
-0.03239789488005303,-0.03239789488005303
-0.0991901459999459,-0.0991901459999459
-0.03239789488005303,-0.03239789488005303
0.060459624969554135,0.060459624969554135
0.05149968884371485,0.05149968884371485
-0.04217237065369589,-0.04217237065369589
-0.03239789488005303,-0.03239789488005303
0.08571035405146485,0.08571035405146485
0.1353972725674827,0.1353972725674827
0.03439435623983984,0.03439435623983984
-0.03239789488005303,-0.03239789488005303
-0.00225992791132088,-0.00225992791132088
-0.03239789488005303,-0.03239789488005303
-0.17738595218908879,-0.17738595218908879
-0.1162954786038209,-0.1162954786038209
0.3577665964178578,0.3577665964178578
1.0607143124723402,1.0607143124723402
1.7253786650800544,1.7253786650800544
2.4063338106438406,2.4063338106438406
3.105208828459305,3.105208828459305
3.4994460179962337,3.4994460179962337
3.2713749166112334,3.2713749166112334
2.5749435177391797,2.5749435177391797
1.7009424756459475,1.7009424756459475
0.724309437929465,0.724309437929465
-0.3492538178756424,-0.3492538178756424
-1.2102222256040176,-1.2102222256040176
-1.5621033534551605,-1.5621033534551605
-1.4619149767753212,-1.4619149767753212
-1.213480384195232,-1.213480384195232
-0.9577149347849104,-0.9577149347849104
-0.760596340016446,-0.760596340016446
-0.7052076439658032,-0.7052076439658032
-0.8094687188846603,-0.8094687188846603
-0.8738173510611426,-0.8738173510611426
-0.7972506241676067,-0.7972506241676067
-0.7052076439658032,-0.7052076439658032
-0.7443055470603747,-0.7443055470603747
-0.789105227689571,-0.789105227689571
-0.7247565955130889,-0.7247565955130889
-0.6213100602420353,-0.6213100602420353
-0.6384153928459103,-0.6384153928459103
-0.7052076439658032,-0.7052076439658032
-0.7239420558652854,-0.7239420558652854
-0.7052076439658032,-0.7052076439658032
-0.7475637056515889,-0.7475637056515889
-0.789105227689571,-0.789105227689571
-0.7622254193120532,-0.7622254193120532
-0.7052076439658032,-0.7052076439658032
-0.7263856748086961,-0.7263856748086961
-0.789105227689571,-0.789105227689571
-0.7931779259285889,-0.7931779259285889
-0.7052076439658032,-0.7052076439658032
-0.6286409170722674,-0.6286409170722674
-0.6213100602420353,-0.6213100602420353
-0.6718115184058567,-0.6718115184058567
-0.7052076439658032,-0.7052076439658032
-0.7100948818526246,-0.7100948818526246
-0.7052076439658032,-0.7052076439658032
-0.7361601505823389,-0.7361601505823389
-0.789105227689571,-0.789105227689571
-0.8689301131743211,-0.8689301131743211
-0.9577149347849104,-0.9577149347849104
-1.0359107409740533,-1.0359107409740533
-1.0416125185086782,-1.0416125185086782
-1.0188054083701783,-1.0188054083701783
-1.0416125185086782,-1.0416125185086782
-1.1189937850500176,-1.1189937850500176
-1.125510102232446,-1.125510102232446
-1.062790549351571,-1.062790549351571
-1.0416125185086782,-1.0416125185086782
-1.0921139766724997,-1.0921139766724997
-1.0416125185086782,-1.0416125185086782
-0.8762609700045533,-0.8762609700045533
-0.789105227689571,-0.789105227689571
-0.8746318907089461,-0.8746318907089461
-0.8738173510611426,-0.8738173510611426
-0.6392299324937138,-0.6392299324937138
-0.3688027694229281,-0.3688027694229281
-0.29793782006401737,-0.29793782006401737
-0.28490518569916023,-0.28490518569916023
-0.14398982662914234,-0.14398982662914234
0.05149968884371485,0.05149968884371485
0.14028451045430415,0.14028451045430415
0.22010939593905418,0.22010939593905418
0.37324284972612565,0.37324284972612565
0.4718021471103578,0.4718021471103578
0.3887191030343935,0.3887191030343935
0.30400697966282203,0.30400697966282203
0.3691701514871078,0.3691701514871078
0.4718021471103578,0.4718021471103578
0.4400351008460185,0.4400351008460185
0.3879045633865899,0.3879045633865899
0.4318897043679828,0.4318897043679828
0.4718021471103578,0.4718021471103578
0.3602102153612685,0.3602102153612685
0.22010939593905418,0.22010939593905418
0.1940441272093399,0.1940441272093399
0.22010939593905418,0.22010939593905418
0.12317917785042914,0.12317917785042914
-0.03239789488005303,-0.03239789488005303
-0.09674652705653519,-0.09674652705653519
-0.03239789488005303,-0.03239789488005303
0.0270634994096077,0.0270634994096077
0.05149968884371485,0.05149968884371485
0.098742988416322,0.098742988416322
0.22010939593905418,0.22010939593905418
0.30807967790183993,0.30807967790183993
0.30400697966282203,0.30400697966282203
0.25187644220339345,0.25187644220339345
0.30400697966282203,0.30400697966282203
0.4213006889465364,0.4213006889465364
0.4718021471103578,0.4718021471103578
0.3781300876129471,0.3781300876129471
0.30400697966282203,0.30400697966282203
0.3561375171222506,0.3561375171222506
0.4718021471103578,0.4718021471103578
0.50194011407909,0.50194011407909
0.4718021471103578,0.4718021471103578
0.4603985920411078,0.4603985920411078
0.4718021471103578,0.4718021471103578
0.4286315457767685,0.4286315457767685
0.3879045633865899,0.3879045633865899
0.4644712902801257,0.4644712902801257
0.724309437929465,0.724309437929465
1.0973685966235007,1.0973685966235007
1.5657288941105545,1.5657288941105545
2.161971916302769,2.161971916302769
2.9113483922820547,2.9113483922820547
3.6403613770662515,3.6403613770662515
4.088358183358216,4.088358183358216
4.036227645898787,4.036227645898787
3.4994460179962337,3.4994460179962337
2.622186817311787,2.622186817311787
1.5657288941105545,1.5657288941105545
0.4009371977514471,0.4009371977514471
-0.7052076439658032,-0.7052076439658032
-1.470060373253357,-1.470060373253357
-1.6305246838706606,-1.6305246838706606
-1.300636126510214,-1.300636126510214
-0.8738173510611426,-0.8738173510611426
-0.686473232066321,-0.686473232066321
-0.7052076439658032,-0.7052076439658032
-0.764669038255464,-0.764669038255464
-0.789105227689571,-0.789105227689571
-0.8379776065577853,-0.8379776065577853
-0.8738173510611426,-0.8738173510611426
-0.8314612893753568,-0.8314612893753568
-0.7052076439658032,-0.7052076439658032
-0.6204955205942317,-0.6204955205942317
-0.6213100602420353,-0.6213100602420353
-0.6815859941794996,-0.6815859941794996
-0.7052076439658032,-0.7052076439658032
-0.7100948818526246,-0.7100948818526246
-0.7052076439658032,-0.7052076439658032
-0.6946186285443567,-0.6946186285443567
-0.6213100602420353,-0.6213100602420353
-0.5390415558138746,-0.5390415558138746
-0.5374124765182674,-0.5374124765182674
-0.6367863135503031,-0.6367863135503031
-0.7052076439658032,-0.7052076439658032
-0.6758842166448746,-0.6758842166448746
-0.6213100602420353,-0.6213100602420353
-0.6498189479151603,-0.6498189479151603
-0.7052076439658032,-0.7052076439658032
-0.7190548179784639,-0.7190548179784639
-0.7052076439658032,-0.7052076439658032
-0.7214984369218747,-0.7214984369218747
-0.7052076439658032,-0.7052076439658032
-0.6253827584810532,-0.6253827584810532
-0.5374124765182674,-0.5374124765182674
-0.5243798421534103,-0.5243798421534103
-0.5374124765182674,-0.5374124765182674
-0.5577759677133567,-0.5577759677133567
-0.6213100602420353,-0.6213100602420353
-0.7190548179784639,-0.7190548179784639
-0.7052076439658032,-0.7052076439658032
-0.5870993950342853,-0.5870993950342853
-0.5374124765182674,-0.5374124765182674
-0.6433026307327318,-0.6433026307327318
-0.7052076439658032,-0.7052076439658032
-0.6213100602420353,-0.6213100602420353
-0.5374124765182674,-0.5374124765182674
-0.5919866329211068,-0.5919866329211068
-0.6213100602420353,-0.6213100602420353
-0.5032018113105174,-0.5032018113105174
-0.3688027694229281,-0.3688027694229281
-0.3753190866053567,-0.3753190866053567
-0.3688027694229281,-0.3688027694229281
-0.2140402363402495,-0.2140402363402495
-0.03239789488005303,-0.03239789488005303
-0.011219864037160167,-0.011219864037160167
-0.03239789488005303,-0.03239789488005303
0.06290324391296485,0.06290324391296485
0.22010939593905418,0.22010939593905418
0.258392759385822,0.258392759385822
0.22010939593905418,0.22010939593905418
0.20707676157419702,0.20707676157419702
0.22010939593905418,0.22010939593905418
0.1736806360142506,0.1736806360142506
0.1353972725674827,0.1353972725674827
0.16960793777523273,0.16960793777523273
0.22010939593905418,0.22010939593905418
0.14028451045430415,0.14028451045430415
-0.03239789488005303,-0.03239789488005303
-0.15213522310717806,-0.15213522310717806
-0.1162954786038209,-0.1162954786038209
-0.034026974175660175,-0.034026974175660175
-0.03239789488005303,-0.03239789488005303
-0.13258627155989233,-0.13258627155989233
-0.20100760197539236,-0.20100760197539236
-0.18145865042810663,-0.18145865042810663
-0.1162954786038209,-0.1162954786038209
-0.08127027374826733,-0.08127027374826733
-0.03239789488005303,-0.03239789488005303
0.026248959761804126,0.026248959761804126
0.05149968884371485,0.05149968884371485
-0.004703546854731595,-0.004703546854731595
-0.03239789488005303,-0.03239789488005303
0.00262730997550055,0.00262730997550055
0.05149968884371485,0.05149968884371485
0.037652514831054126,0.037652514831054126
0.05149968884371485,0.05149968884371485
0.1362118122152863,0.1362118122152863
0.22010939593905418,0.22010939593905418
0.19485866685714345,0.19485866685714345
0.1353972725674827,0.1353972725674827
0.1451717483411256,0.1451717483411256
0.22010939593905418,0.22010939593905418
0.24454558537316132,0.24454558537316132
0.22010939593905418,0.22010939593905418
0.23558564924732203,0.23558564924732203
0.3879045633865899,0.3879045633865899
0.66158988504859,0.66158988504859
1.0607143124723402,1.0607143124723402
1.6113431143875545,1.6113431143875545
2.3224362269200727,2.3224362269200727
3.009907689666287,3.009907689666287
3.415548434272466,3.415548434272466
3.3626033571652334,3.3626033571652334
2.9113483922820547,2.9113483922820547
2.1741900110198227,2.1741900110198227
1.2293240195676793,1.2293240195676793
0.13295365362407202,0.13295365362407202
-0.8738173510611426,-0.8738173510611426
-1.4871657058572318,-1.4871657058572318
-1.5466271001468928,-1.5466271001468928
-1.2354729546859282,-1.2354729546859282
-0.8738173510611426,-0.8738173510611426
-0.7003204060789817,-0.7003204060789817
-0.7052076439658032,-0.7052076439658032
-0.7915488466329818,-0.7915488466329818
-0.8738173510611426,-0.8738173510611426
-0.9626021726717318,-0.9626021726717318
-1.0416125185086782,-1.0416125185086782
-1.079895881955446,-1.079895881955446
-1.0416125185086782,-1.0416125185086782
-1.0114745515399461,-1.0114745515399461
-1.0416125185086782,-1.0416125185086782
-1.0986302938549282,-1.0986302938549282
-1.0416125185086782,-1.0416125185086782
-0.9194315713381426,-0.9194315713381426
-0.8738173510611426,-0.8738173510611426
-0.9495695383068746,-0.9495695383068746
-0.9577149347849104,-0.9577149347849104
-0.8282031307841425,-0.8282031307841425
-0.7052076439658032,-0.7052076439658032
-0.7100948818526246,-0.7100948818526246
-0.7052076439658032,-0.7052076439658032
-0.6042047276381604,-0.6042047276381604
-0.5374124765182674,-0.5374124765182674
-0.6270118377766604,-0.6270118377766604
-0.7052076439658032,-0.7052076439658032
-0.6359717739024996,-0.6359717739024996
-0.5374124765182674,-0.5374124765182674
-0.5708086020782138,-0.5708086020782138
-0.6213100602420353,-0.6213100602420353
-0.5765103796128389,-0.5765103796128389
-0.5374124765182674,-0.5374124765182674
-0.6278263774244639,-0.6278263774244639
-0.7052076439658032,-0.7052076439658032
-0.6628515822800175,-0.6628515822800175
-0.6213100602420353,-0.6213100602420353
-0.7133530404438388,-0.7133530404438388
-0.789105227689571,-0.789105227689571
-0.7459346263559817,-0.7459346263559817
-0.7052076439658032,-0.7052076439658032
-0.7801452915637318,-0.7801452915637318
-0.789105227689571,-0.789105227689571
-0.6449317100283389,-0.6449317100283389
-0.5374124765182674,-0.5374124765182674
-0.6278263774244639,-0.6278263774244639
-0.7052076439658032,-0.7052076439658032
-0.5976884104557317,-0.5976884104557317
-0.452700353146696,-0.452700353146696
-0.4836528597632317,-0.4836528597632317
-0.5374124765182674,-0.5374124765182674
-0.4176751482911424,-0.4176751482911424
-0.20100760197539236,-0.20100760197539236
-0.11385185966041018,-0.11385185966041018
-0.1162954786038209,-0.1162954786038209
-0.06335040149658876,-0.06335040149658876
0.05149968884371485,0.05149968884371485
0.08245219546025057,0.08245219546025057
0.05149968884371485,0.05149968884371485
0.081637655812447,0.081637655812447
0.22010939593905418,0.22010939593905418
0.3194832329710899,0.3194832329710899
0.30400697966282203,0.30400697966282203
0.24536012502096488,0.24536012502096488
0.30400697966282203,0.30400697966282203
0.4286315457767685,0.4286315457767685
0.4718021471103578,0.4718021471103578
0.3675410721915006,0.3675410721915006
0.30400697966282203,0.30400697966282203
0.37161377043051846,0.37161377043051846
0.4718021471103578,0.4718021471103578
0.4489950369718578,0.4489950369718578
0.3879045633865899,0.3879045633865899
0.40500989599046494,0.40500989599046494
0.4718021471103578,0.4718021471103578
0.48239116253180425,0.48239116253180425
0.4718021471103578,0.4718021471103578
0.4766893849971792,0.4766893849971792
0.4718021471103578,0.4718021471103578
0.47098760746255425,0.47098760746255425
0.6404118542056971,0.6404118542056971
0.9971802199436615,0.9971802199436615
1.397119187015215,1.397119187015215
1.815792565986251,1.815792565986251
2.4902313943676084,2.4902313943676084
3.3968140223729835,3.3968140223729835
4.088358183358216,4.088358183358216
4.150263196591287,4.150263196591287
3.668055725091573,3.668055725091573
2.833152586092912,2.833152586092912
1.6496264778343224,1.6496264778343224
0.18997142897032201,0.18997142897032201
-1.0416125185086782,-1.0416125185086782
-1.5979430979585176,-1.5979430979585176
-1.5466271001468928,-1.5466271001468928
-1.2965634282711962,-1.2965634282711962
-1.0416125185086782,-1.0416125185086782
-0.8200577343061067,-0.8200577343061067
-0.7052076439658032,-0.7052076439658032
-0.7744435140291067,-0.7744435140291067
-0.8738173510611426,-0.8738173510611426
-0.861599256344089,-0.861599256344089
-0.789105227689571,-0.789105227689571
-0.810283258532464,-0.810283258532464
-0.8738173510611426,-0.8738173510611426
-0.8705591924699282,-0.8705591924699282
-0.789105227689571,-0.789105227689571
-0.7622254193120532,-0.7622254193120532
-0.789105227689571,-0.789105227689571
-0.7956215448719997,-0.7956215448719997
-0.7052076439658032,-0.7052076439658032
-0.6196809809464282,-0.6196809809464282
-0.6213100602420353,-0.6213100602420353
-0.6954331681921603,-0.6954331681921603
-0.7052076439658032,-0.7052076439658032
-0.6229391395376425,-0.6229391395376425
-0.5374124765182674,-0.5374124765182674
-0.532525238631446,-0.532525238631446
-0.5374124765182674,-0.5374124765182674
-0.4975000337758924,-0.4975000337758924
-0.452700353146696,-0.452700353146696
-0.4844673994110353,-0.4844673994110353
-0.5374124765182674,-0.5374124765182674
-0.5520741901787317,-0.5520741901787317
-0.5374124765182674,-0.5374124765182674
-0.5455578729963031,-0.5455578729963031
-0.5374124765182674,-0.5374124765182674
-0.5137908267319639,-0.5137908267319639
-0.5374124765182674,-0.5374124765182674
-0.6416735514371246,-0.6416735514371246
-0.7052076439658032,-0.7052076439658032
-0.6726260580536603,-0.6726260580536603
-0.6213100602420353,-0.6213100602420353
-0.6571498047453924,-0.6571498047453924
-0.7052076439658032,-0.7052076439658032
-0.7100948818526246,-0.7100948818526246
-0.7052076439658032,-0.7052076439658032
-0.7361601505823389,-0.7361601505823389
-0.7052076439658032,-0.7052076439658032
-0.6033901879903567,-0.6033901879903567
-0.5374124765182674,-0.5374124765182674
-0.5675504434869996,-0.5675504434869996
-0.5374124765182674,-0.5374124765182674
-0.39323895885703525,-0.39323895885703525
-0.28490518569916023,-0.28490518569916023
-0.3362211835107852,-0.3362211835107852
-0.3688027694229281,-0.3688027694229281
-0.23440372753533878,-0.23440372753533878
-0.03239789488005303,-0.03239789488005303
0.04253975271787556,0.04253975271787556
0.05149968884371485,0.05149968884371485
0.11503378137239344,0.11503378137239344
0.22010939593905418,0.22010939593905418
0.23884380783853632,0.23884380783853632
0.22010939593905418,0.22010939593905418
0.23965834748633988,0.23965834748633988
0.30400697966282203,0.30400697966282203
0.2901598056501613,0.2901598056501613
0.22010939593905418,0.22010939593905418
0.17693879460546488,0.17693879460546488
0.22010939593905418,0.22010939593905418
0.25350552149900063,0.25350552149900063
0.22010939593905418,0.22010939593905418
0.1704224774230363,0.1704224774230363
0.22010939593905418,0.22010939593905418
0.3105232968452506,0.3105232968452506
0.30400697966282203,0.30400697966282203
0.1940441272093399,0.1940441272093399
0.22010939593905418,0.22010939593905418
0.5117145898527328,0.5117145898527328
0.9768167287485722,0.9768167287485722
1.4891621672170188,1.4891621672170188
2.153826519824733,2.153826519824733
3.013980387905305,3.013980387905305
3.8358508925391086,3.8358508925391086
4.2414916371452875,4.2414916371452875
4.088358183358216,4.088358183358216
3.4074030377944298,3.4074030377944298
2.3224362269200727,2.3224362269200727
1.0566416142333221,1.0566416142333221
-0.03239789488005303,-0.03239789488005303
-0.7923633862807854,-0.7923633862807854
-1.2941198093277855,-1.2941198093277855
-1.553957956977125,-1.553957956977125
-1.3780173930515534,-1.3780173930515534
-0.8314612893753568,-0.8314612893753568
-0.3688027694229281,-0.3688027694229281
-0.3655446108317138,-0.3655446108317138
-0.6213100602420353,-0.6213100602420353
-0.760596340016446,-0.760596340016446
-0.7052076439658032,-0.7052076439658032
-0.6481898686195532,-0.6481898686195532
-0.6213100602420353,-0.6213100602420353
-0.5756958399650353,-0.5756958399650353
-0.5374124765182674,-0.5374124765182674
-0.6082774258771781,-0.6082774258771781
-0.7052076439658032,-0.7052076439658032
-0.7353456109345353,-0.7353456109345353
-0.7052076439658032,-0.7052076439658032
-0.7337165316389281,-0.7337165316389281
-0.789105227689571,-0.789105227689571
-0.8127268774758747,-0.8127268774758747
-0.789105227689571,-0.789105227689571
-0.7834034501549461,-0.7834034501549461
-0.789105227689571,-0.789105227689571
-0.7931779259285889,-0.7931779259285889
-0.789105227689571,-0.789105227689571
-0.7988797034632139,-0.7988797034632139
-0.789105227689571,-0.789105227689571
-0.7777016726203211,-0.7777016726203211
-0.789105227689571,-0.789105227689571
-0.8436793840924104,-0.8436793840924104
-0.8738173510611426,-0.8738173510611426
-0.8689301131743211,-0.8689301131743211
-0.8738173510611426,-0.8738173510611426
-0.9536422365458925,-0.9536422365458925
-1.0416125185086782,-1.0416125185086782
-1.051386994282321,-1.051386994282321
-0.9577149347849104,-0.9577149347849104
-0.8762609700045533,-0.8762609700045533
-0.8738173510611426,-0.8738173510611426
-0.9112861748601068,-0.9112861748601068
-0.8738173510611426,-0.8738173510611426
-0.7972506241676067,-0.7972506241676067
-0.789105227689571,-0.789105227689571
-0.8713737321177318,-0.8713737321177318
-0.8738173510611426,-0.8738173510611426
-0.7272002144564996,-0.7272002144564996
-0.5374124765182674,-0.5374124765182674
-0.441296798077446,-0.441296798077446
-0.3688027694229281,-0.3688027694229281
-0.24906544119580307,-0.24906544119580307
-0.1162954786038209,-0.1162954786038209
-0.04380144994930303,-0.04380144994930303
0.05149968884371485,0.05149968884371485
0.19811682544835774,0.19811682544835774
0.30400697966282203,0.30400697966282203
0.29504704353698274,0.29504704353698274
0.30400697966282203,0.30400697966282203
0.3976790391602328,0.3976790391602328
0.4718021471103578,0.4718021471103578
0.42374430788994705,0.42374430788994705
0.3879045633865899,0.3879045633865899
0.4408496404938221,0.4408496404938221
0.4718021471103578,0.4718021471103578
0.3740573893739292,0.3740573893739292
0.30400697966282203,0.30400697966282203
0.3740573893739292,0.3740573893739292
0.4718021471103578,0.4718021471103578
0.4416641801416257,0.4416641801416257
0.3879045633865899,0.3879045633865899
0.4204861492987328,0.4204861492987328
0.4718021471103578,0.4718021471103578
0.42537338718555423,0.42537338718555423
0.3879045633865899,0.3879045633865899
0.43596240260700064,0.43596240260700064
0.4718021471103578,0.4718021471103578
0.35858113606566133,0.35858113606566133
0.22010939593905418,0.22010939593905418
0.2111494598132149,0.2111494598132149
0.30400697966282203,0.30400697966282203
0.3113378364930542,0.3113378364930542
0.22010939593905418,0.22010939593905418
0.1353972725674827,0.1353972725674827
0.1353972725674827,0.1353972725674827
0.12562279679383986,0.12562279679383986
0.05149968884371485,0.05149968884371485
-0.04054329135808875,-0.04054329135808875
-0.03239789488005303,-0.03239789488005303
0.03357981659203627,0.03357981659203627
0.05149968884371485,0.05149968884371485
-0.015292562276178026,-0.015292562276178026
-0.03239789488005303,-0.03239789488005303
0.026248959761804126,0.026248959761804126
0.05149968884371485,0.05149968884371485
-0.04543052924491017,-0.04543052924491017
-0.1162954786038209,-0.1162954786038209
-0.06172132220098161,-0.06172132220098161
0.05149968884371485,0.05149968884371485
0.09548482982510771,0.09548482982510771
0.1353972725674827,0.1353972725674827
0.2046331426307863,0.2046331426307863
0.22010939593905418,0.22010939593905418
0.11421924172458986,0.11421924172458986
0.05149968884371485,0.05149968884371485
0.12399371749823272,0.12399371749823272
0.22010939593905418,0.22010939593905418
0.1883423496747149,0.1883423496747149
0.1353972725674827,0.1353972725674827
0.16472069988841131,0.16472069988841131
0.22010939593905418,0.22010939593905418
0.178567873901072,0.178567873901072
0.1353972725674827,0.1353972725674827
0.1679788584796256,0.1679788584796256
0.22010939593905418,0.22010939593905418
0.15494622411476844,0.15494622411476844
0.05149968884371485,0.05149968884371485
0.015659944340357695,0.015659944340357695
0.05149968884371485,0.05149968884371485
0.05801600602614342,0.05801600602614342
0.05149968884371485,0.05149968884371485
0.081637655812447,0.081637655812447
0.1353972725674827,0.1353972725674827
0.11503378137239344,0.11503378137239344
0.05149968884371485,0.05149968884371485
0.07512133863001842,0.07512133863001842
0.30400697966282203,0.30400697966282203
0.6697352815266256,0.6697352815266256
1.0607143124723402,1.0607143124723402
1.450878803770251,1.450878803770251
1.9860313523771975,1.9860313523771975
2.7256333525828405,2.7256333525828405
3.4994460179962337,3.4994460179962337
3.90915946084143,3.90915946084143
3.668055725091573,3.668055725091573
2.7639167160296085,2.7639167160296085
1.481016770738983,1.481016770738983
0.16472069988841131,0.16472069988841131
-0.8738173510611426,-0.8738173510611426
-1.4611004371275176,-1.4611004371275176
-1.5466271001468928,-1.5466271001468928
-1.270498159541482,-1.270498159541482
-0.8738173510611426,-0.8738173510611426
-0.6082774258771781,-0.6082774258771781
-0.5374124765182674,-0.5374124765182674
-0.5634777452479818,-0.5634777452479818
-0.5374124765182674,-0.5374124765182674
-0.47143476504617815,-0.47143476504617815
-0.452700353146696,-0.452700353146696
-0.5137908267319639,-0.5137908267319639
-0.5374124765182674,-0.5374124765182674
-0.49342733553687457,-0.49342733553687457
-0.452700353146696,-0.452700353146696
-0.4966854941280888,-0.4966854941280888
-0.5374124765182674,-0.5374124765182674
-0.5349688575748567,-0.5349688575748567
-0.5374124765182674,-0.5374124765182674
-0.623753679185446,-0.623753679185446
-0.7052076439658032,-0.7052076439658032
-0.7190548179784639,-0.7190548179784639
-0.7052076439658032,-0.7052076439658032
-0.7255711351608924,-0.7255711351608924
-0.7052076439658032,-0.7052076439658032
-0.6139792034118031,-0.6139792034118031
-0.5374124765182674,-0.5374124765182674
-0.5691795227826068,-0.5691795227826068
-0.6213100602420353,-0.6213100602420353
-0.6221245998898389,-0.6221245998898389
-0.6213100602420353,-0.6213100602420353
-0.7035785646701961,-0.7035785646701961
-0.789105227689571,-0.789105227689571
-0.8070250999412496,-0.8070250999412496
-0.789105227689571,-0.789105227689571
-0.8314612893753568,-0.8314612893753568
-0.8738173510611426,-0.8738173510611426
-0.8493811616270354,-0.8493811616270354
-0.789105227689571,-0.789105227689571
-0.8282031307841425,-0.8282031307841425
-0.9577149347849104,-0.9577149347849104
-1.068492326886196,-1.068492326886196
-1.0416125185086782,-1.0416125185086782
-0.9194315713381426,-0.9194315713381426
-0.789105227689571,-0.789105227689571
-0.7320874523433211,-0.7320874523433211
-0.7052076439658032,-0.7052076439658032
-0.6530771065063746,-0.6530771065063746
-0.5374124765182674,-0.5374124765182674
-0.42744962406478526,-0.42744962406478526
-0.3688027694229281,-0.3688027694229281
-0.3541410557624638,-0.3541410557624638
-0.28490518569916023,-0.28490518569916023
-0.13584443015110662,-0.13584443015110662
0.05149968884371485,0.05149968884371485
0.1736806360142506,0.1736806360142506
0.22010939593905418,0.22010939593905418
0.23558564924732203,0.23558564924732203
0.30400697966282203,0.30400697966282203
0.4001226581036435,0.4001226581036435
0.4718021471103578,0.4718021471103578
0.4775039246449828,0.4775039246449828
0.4718021471103578,0.4718021471103578
0.4718021471103578,0.4718021471103578
0.4718021471103578,0.4718021471103578
0.4546968145064828,0.4546968145064828
0.4718021471103578,0.4718021471103578
0.4954237968966614,0.4954237968966614
0.4718021471103578,0.4718021471103578
0.39523542021682206,0.39523542021682206
0.3879045633865899,0.3879045633865899
0.4530677352108757,0.4530677352108757
0.4718021471103578,0.4718021471103578
0.37242831007832206,0.37242831007832206
0.30400697966282203,0.30400697966282203
0.34066126381398276,0.34066126381398276
0.3879045633865899,0.3879045633865899
0.3349594862793578,0.3349594862793578
0.30400697966282203,0.30400697966282203
0.3765010083173399,0.3765010083173399
0.4718021471103578,0.4718021471103578
0.4644712902801257,0.4644712902801257
0.4718021471103578,0.4718021471103578
0.5801359202682328,0.5801359202682328
0.724309437929465,0.724309437929465
0.7495601670113757,0.7495601670113757
0.724309437929465,0.724309437929465
0.7251239775772685,0.7251239775772685
0.724309437929465,0.724309437929465
0.6371536956144829,0.6371536956144829
0.5565142704819293,0.5565142704819293
0.5703614444945899,0.5703614444945899
0.6404118542056971,0.6404118542056971
0.6477427110359293,0.6477427110359293
0.6404118542056971,0.6404118542056971
0.7096477242690007,0.7096477242690007
0.8929191450248043,0.8929191450248043
1.138910118661483,1.138910118661483
1.481016770738983,1.481016770738983
1.9550788457606618,1.9550788457606618
2.5749435177391797,2.5749435177391797
3.267302218372216,3.267302218372216
3.92056301591068,3.92056301591068
4.258596969749163,4.258596969749163
4.004460599634448,4.004460599634448
3.091361654446644,3.091361654446644
1.8174216452818581,1.8174216452818581
0.5328926206956257,0.5328926206956257
-0.5374124765182674,-0.5374124765182674
-1.3030797454536247,-1.3030797454536247
-1.6305246838706606,-1.6305246838706606
-1.5091582763479283,-1.5091582763479283
-1.125510102232446,-1.125510102232446
-0.810283258532464,-0.810283258532464
-0.7052076439658032,-0.7052076439658032
-0.7532654831862139,-0.7532654831862139
-0.789105227689571,-0.789105227689571
-0.7679271968466782,-0.7679271968466782
-0.7052076439658032,-0.7052076439658032
-0.6612225029844103,-0.6612225029844103
-0.6213100602420353,-0.6213100602420353
-0.5887284743298924,-0.5887284743298924
-0.5374124765182674,-0.5374124765182674
-0.47387838398958887,-0.47387838398958887
-0.3688027694229281,-0.3688027694229281
-0.2922360425293924,-0.2922360425293924
-0.28490518569916023,-0.28490518569916023
-0.3288903266805531,-0.3288903266805531
-0.28490518569916023,-0.28490518569916023
-0.16679693676764235,-0.16679693676764235
-0.1162954786038209,-0.1162954786038209
-0.20670937951001736,-0.20670937951001736
-0.28490518569916023,-0.28490518569916023
-0.25313813943482094,-0.25313813943482094
-0.20100760197539236,-0.20100760197539236
-0.24173458436557094,-0.24173458436557094
-0.28490518569916023,-0.28490518569916023
-0.2686143927430888,-0.2686143927430888
-0.28490518569916023,-0.28490518569916023
-0.4225623861779638,-0.4225623861779638
-0.5374124765182674,-0.5374124765182674
-0.5194926042665888,-0.5194926042665888
-0.452700353146696,-0.452700353146696
-0.48283832011542815,-0.48283832011542815
-0.5374124765182674,-0.5374124765182674
-0.5374124765182674,-0.5374124765182674
-0.5374124765182674,-0.5374124765182674
-0.629455456720071,-0.629455456720071
-0.7052076439658032,-0.7052076439658032
-0.6807714545316961,-0.6807714545316961
-0.6213100602420353,-0.6213100602420353
-0.6555207254497853,-0.6555207254497853
-0.7052076439658032,-0.7052076439658032
-0.6620370426322139,-0.6620370426322139
-0.5374124765182674,-0.5374124765182674
-0.4649184478637496,-0.4649184478637496
-0.452700353146696,-0.452700353146696
-0.43966771878183886,-0.43966771878183886
-0.3688027694229281,-0.3688027694229281
-0.2881633442903745,-0.2881633442903745
-0.20100760197539236,-0.20100760197539236
-0.09430290811312447,-0.09430290811312447
0.05149968884371485,0.05149968884371485
0.1679788584796256,0.1679788584796256
0.22010939593905418,0.22010939593905418
0.2331420303039113,0.2331420303039113
0.30400697966282203,0.30400697966282203
0.41315529246850063,0.41315529246850063
0.4718021471103578,0.4718021471103578
0.42781700612896495,0.42781700612896495
0.3879045633865899,0.3879045633865899
0.41559891141191135,0.41559891141191135
0.4718021471103578,0.4718021471103578
0.4750603057015721,0.4750603057015721
0.4718021471103578,0.4718021471103578
0.4856493211230185,0.4856493211230185
0.4718021471103578,0.4718021471103578
0.3797591669085542,0.3797591669085542
0.30400697966282203,0.30400697966282203
0.29586158318478634,0.29586158318478634
0.30400697966282203,0.30400697966282203
0.25350552149900063,0.25350552149900063
0.22010939593905418,0.22010939593905418
0.22988387171269703,0.22988387171269703
0.22010939593905418,0.22010939593905418
0.12073555890701844,0.12073555890701844
0.05149968884371485,0.05149968884371485
0.0783794972212327,0.0783794972212327
0.1353972725674827,0.1353972725674827
0.09955752806412557,0.09955752806412557
0.05149968884371485,0.05149968884371485
0.0669759421519827,0.0669759421519827
0.1353972725674827,0.1353972725674827
0.14842990693233987,0.14842990693233987
0.1353972725674827,0.1353972725674827
0.13376819327187559,0.13376819327187559
0.1353972725674827,0.1353972725674827
0.08978305229048271,0.08978305229048271
0.05149968884371485,0.05149968884371485
0.06941956109539342,0.06941956109539342
0.1353972725674827,0.1353972725674827
0.17693879460546488,0.17693879460546488
0.22010939593905418,0.22010939593905418
0.3251850105057149,0.3251850105057149
0.5565142704819293,0.5565142704819293
0.9018790811506436,0.9018790811506436
1.397119187015215,1.397119187015215
2.055267222440501,2.055267222440501
2.8266362689104834,2.8266362689104834
3.4782679871533406,3.4782679871533406
3.7519533088153407,3.7519533088153407
3.502704176587448,3.502704176587448
2.8266362689104834,2.8266362689104834
1.8793266585149295,1.8793266585149295
0.8082070216532329,0.8082070216532329
-0.2686143927430888,-0.2686143927430888
-1.125510102232446,-1.125510102232446
-1.5490707190903035,-1.5490707190903035
-1.4619149767753212,-1.4619149767753212
-1.0579033114647496,-1.0579033114647496
-0.6213100602420353,-0.6213100602420353
-0.38509356237899955,-0.38509356237899955
-0.3688027694229281,-0.3688027694229281
-0.46980568575057097,-0.46980568575057097
-0.5374124765182674,-0.5374124765182674
-0.5463724126441067,-0.5463724126441067
-0.5374124765182674,-0.5374124765182674
-0.572437681373821,-0.572437681373821
-0.6213100602420353,-0.6213100602420353
-0.6726260580536603,-0.6726260580536603
-0.7052076439658032,-0.7052076439658032
-0.7296438333999103,-0.7296438333999103
-0.7052076439658032,-0.7052076439658032
-0.6856586924185175,-0.6856586924185175
-0.7052076439658032,-0.7052076439658032
-0.7508218642428032,-0.7508218642428032
-0.7052076439658032,-0.7052076439658032
-0.589543013977696,-0.589543013977696
-0.5374124765182674,-0.5374124765182674
-0.6229391395376425,-0.6229391395376425
-0.7052076439658032,-0.7052076439658032
-0.6799569148838924,-0.6799569148838924
-0.6213100602420353,-0.6213100602420353
-0.6783278355882854,-0.6783278355882854
-0.789105227689571,-0.789105227689571
-0.8110977981802675,-0.8110977981802675
-0.7052076439658032,-0.7052076439658032
-0.6139792034118031,-0.6139792034118031
-0.6213100602420353,-0.6213100602420353
-0.6897313906575353,-0.6897313906575353
-0.7052076439658032,-0.7052076439658032
-0.663666121927821,-0.663666121927821
-0.6213100602420353,-0.6213100602420353
-0.646560789323946,-0.646560789323946
-0.7052076439658032,-0.7052076439658032
-0.7622254193120532,-0.7622254193120532
-0.789105227689571,-0.789105227689571
-0.8045814809978389,-0.8045814809978389
-0.789105227689571,-0.789105227689571
-0.7777016726203211,-0.7777016726203211
-0.789105227689571,-0.789105227689571
-0.8208722739539104,-0.8208722739539104
-0.789105227689571,-0.789105227689571
-0.7231275162174817,-0.7231275162174817
-0.7052076439658032,-0.7052076439658032
-0.7524509435384104,-0.7524509435384104
-0.7052076439658032,-0.7052076439658032
-0.5089035888451424,-0.5089035888451424
-0.28490518569916023,-0.28490518569916023
-0.1798295711324995,-0.1798295711324995
-0.1162954786038209,-0.1162954786038209
-0.0014453882635173082,-0.0014453882635173082
0.1353972725674827,0.1353972725674827
0.19160050826592917,0.19160050826592917
0.22010939593905418,0.22010939593905418
0.28934526600235777,0.28934526600235777
0.3879045633865899,0.3879045633865899
0.43840602155041136,0.43840602155041136
0.4718021471103578,0.4718021471103578
0.49379471760105426,0.49379471760105426
0.4718021471103578,0.4718021471103578
0.3968644995124292,0.3968644995124292
0.3879045633865899,0.3879045633865899
0.4538822748586792,0.4538822748586792
0.4718021471103578,0.4718021471103578
0.3683556118393042,0.3683556118393042
0.30400697966282203,0.30400697966282203
0.37324284972612565,0.37324284972612565
0.4718021471103578,0.4718021471103578
0.4489950369718578,0.4489950369718578
0.3879045633865899,0.3879045633865899
0.40175173739925063,0.40175173739925063
0.4718021471103578,0.4718021471103578
0.4840202418274114,0.4840202418274114
0.4718021471103578,0.4718021471103578
0.4775039246449828,0.4775039246449828
0.4718021471103578,0.4718021471103578
0.3854609444431792,0.3854609444431792
0.30400697966282203,0.30400697966282203
0.3113378364930542,0.3113378364930542
0.3879045633865899,0.3879045633865899
0.3887191030343935,0.3887191030343935
0.30400697966282203,0.30400697966282203
0.2135930787566256,0.2135930787566256
0.22010939593905418,0.22010939593905418
0.24536012502096488,0.24536012502096488
0.22010939593905418,0.22010939593905418
0.1419135897499113,0.1419135897499113
0.1353972725674827,0.1353972725674827
0.1940441272093399,0.1940441272093399
0.22010939593905418,0.22010939593905418
0.15983346200158988,0.15983346200158988
0.1353972725674827,0.1353972725674827
0.18915688932251845,0.18915688932251845
0.22010939593905418,0.22010939593905418
0.12806641573725058,0.12806641573725058
0.05149968884371485,0.05149968884371485
0.13784089151089343,0.13784089151089343
0.3879045633865899,0.3879045633865899
0.7047604863821793,0.7047604863821793
