ECG,PPG
0.2605764813299759,0.2605764813299759
0.9853298045827317,0.9853298045827317
0.2605764813299759,0.2605764813299759
-0.09735384088994337,-0.09735384088994337
0.30726304509779145,0.30726304509779145
0.5414369205046123,0.5414369205046123
0.30726304509779145,0.30726304509779145
0.1531232790072258,0.1531232790072258
0.30726304509779145,0.30726304509779145
0.4021182857689088,0.4021182857689088
0.30726304509779145,0.30726304509779145
0.2427911237041414,0.2427911237041414
0.30726304509779145,0.30726304509779145
0.34357481691720354,0.34357481691720354
0.30726304509779145,0.30726304509779145
0.26798704700740694,0.26798704700740694
0.2605764813299759,0.2605764813299759
0.2368626711621966,0.2368626711621966
0.21388991756216036,0.21388991756216036
0.2049972387492431,0.2049972387492431
0.21388991756216036,0.21388991756216036
0.20944357815570172,0.20944357815570172
0.21388991756216036,0.21388991756216036
0.20722040845247242,0.20722040845247242
0.21388991756216036,0.21388991756216036
0.20870252158795863,0.20870252158795863
0.21388991756216036,0.21388991756216036
0.20722040845247242,0.20722040845247242
0.21388991756216036,0.21388991756216036
0.20870252158795863,0.20870252158795863
0.21388991756216036,0.21388991756216036
0.20722040845247242,0.20722040845247242
0.21388991756216036,0.21388991756216036
0.2079614650202155,0.2079614650202155
0.21388991756216036,0.21388991756216036
0.21981837010410518,0.21981837010410518
0.2605764813299759,0.2605764813299759
0.30726304509779145,0.30726304509779145
0.353949608865607,0.353949608865607
0.3576548917043225,0.3576548917043225
0.353949608865607,0.353949608865607
0.35543172200109324,0.35543172200109324
0.4006361726334226,0.4006361726334226
0.4384300575883209,0.4384300575883209
0.44732273640123815,0.44732273640123815
0.4013772292011657,0.4013772292011657
0.353949608865607,0.353949608865607
0.30355776225907594,0.30355776225907594
0.2605764813299759,0.2605764813299759
0.19980984277504138,0.19980984277504138
0.16720335379434478,0.16720335379434478
0.14200743049107925,0.14200743049107925
0.12051679002652924,0.12051679002652924
0.06123226460708091,0.06123226460708091
0.027143662490898123,0.027143662490898123
0.016768870542494665,0.016768870542494665
0.027143662490898123,0.027143662490898123
-0.012873392167229497,-0.012873392167229497
-0.066229465044733,-0.066229465044733
-0.10995180254157613,-0.10995180254157613
-0.11291602881254854,-0.11291602881254854
-0.1425582915222727,-0.1425582915222727
-0.20628915634817965,-0.20628915634817965
-0.2885464353676642,-0.2885464353676642
-0.2996622838838108,-0.2996622838838108
-0.23741353219339004,-0.23741353219339004
-0.11291602881254854,-0.11291602881254854
0.03159000189735675,0.03159000189735675
0.2605764813299759,0.2605764813299759
0.6296226520660417,0.6296226520660417
1.1950488132540302,1.1950488132540302
1.8879367040938324,1.8879367040938324
2.59638678285624,2.59638678285624
3.10252841862478,3.10252841862478
3.249998675605658,3.249998675605658
2.9832183112181405,2.9832183112181405
2.4563270915527933,2.4563270915527933
1.8323574615130998,1.8323574615130998
1.2417353770218458,1.2417353770218458
0.7000230260016367,0.7000230260016367
0.2605764813299759,0.2605764813299759
-0.061783125638274365,-0.061783125638274365
-0.25297572011599523,-0.25297572011599523
-0.3737679406581212,-0.3737679406581212
-0.4397219751872575,-0.4397219751872575
-0.49381910463250406,-0.49381910463250406
-0.5338361592906317,-0.5338361592906317
-0.5879332887358782,-0.5879332887358782
-0.6272092868262628,-0.6272092868262628
-0.6612978889424456,-0.6612978889424456
-0.6738958505940783,-0.6738958505940783
-0.6864938122457112,-0.6864938122457112
-0.6738958505940783,-0.6738958505940783
-0.6687084546198766,-0.6687084546198766
-0.6738958505940783,-0.6738958505940783
-0.7102076224134904,-0.7102076224134904
-0.7205824143618939,-0.7205824143618939
-0.7198413577941508,-0.7198413577941508
-0.7205824143618939,-0.7205824143618939
-0.7694921478329387,-0.7694921478329387
-0.8139555418975251,-0.8139555418975251
-0.8309998429556164,-0.8309998429556164
-0.8139555418975251,-0.8139555418975251
-0.8250713904136716,-0.8250713904136716
-0.8606421056653406,-0.8606421056653406
-0.9154802916783302,-0.9154802916783302
-0.9540152332009717,-0.9540152332009717
-1.0014428535365303,-1.0014428535365303
-1.0473883607366028,-1.0473883607366028
-1.1044497164528218,-1.1044497164528218
-1.140761488272234,-1.140761488272234
-1.1733679772529304,-1.1733679772529304
-1.1874480520400494,-1.1874480520400494
-1.2141260884788012,-1.2141260884788012
-1.234134615807865,-1.234134615807865
-1.2526610300014427,-1.2526610300014427
-1.234134615807865,-1.234134615807865
-1.2104208056400858,-1.2104208056400858
-1.1874480520400494,-1.1874480520400494
-1.1822606560658477,-1.1822606560658477
-1.140761488272234,-1.140761488272234
-1.0644326617946942,-1.0644326617946942
-0.9540152332009717,-0.9540152332009717
-0.849526257149194,-0.849526257149194
-0.7205824143618939,-0.7205824143618939
-0.5812637796261904,-0.5812637796261904
-0.4397219751872575,-0.4397219751872575
-0.3411614516774246,-0.3411614516774246
-0.25297572011599523,-0.25297572011599523
-0.1796111199094279,-0.1796111199094279
-0.11291602881254854,-0.11291602881254854
-0.08772010550928301,-0.08772010550928301
-0.066229465044733,-0.066229465044733
-0.04696199428341229,-0.04696199428341229
-0.019542901276917435,-0.019542901276917435
-0.020283957844660538,-0.020283957844660538
-0.019542901276917435,-0.019542901276917435
-0.009909165896257082,-0.009909165896257082
0.027143662490898123,0.027143662490898123
0.03900056757478779,0.03900056757478779
0.027143662490898123,0.027143662490898123
-0.009168109328513977,-0.009168109328513977
-0.019542901276917435,-0.019542901276917435
-0.021025014412403644,-0.021025014412403644
-0.019542901276917435,-0.019542901276917435
-0.047703050851155386,-0.047703050851155386
-0.066229465044733,-0.066229465044733
-0.07660425699313644,-0.07660425699313644
-0.066229465044733,-0.066229465044733
-0.07067580445119162,-0.07067580445119162
-0.066229465044733,-0.066229465044733
-0.0677115781802192,-0.0677115781802192
-0.066229465044733,-0.066229465044733
-0.09364855805122785,-0.09364855805122785
-0.11291602881254854,-0.11291602881254854
-0.12551399046418132,-0.12551399046418132
-0.11291602881254854,-0.11291602881254854
-0.11513919851577786,-0.11513919851577786
-0.11291602881254854,-0.11291602881254854
-0.1203265944899796,-0.1203265944899796
-0.11291602881254854,-0.11291602881254854
-0.11736236821900717,-0.11736236821900717
-0.11291602881254854,-0.11291602881254854
-0.11810342478675027,-0.11810342478675027
-0.11291602881254854,-0.11291602881254854
-0.11958553792223649,-0.11958553792223649
-0.11291602881254854,-0.11291602881254854
-0.11736236821900717,-0.11736236821900717
-0.11291602881254854,-0.11291602881254854
-0.10921074597383303,-0.10921074597383303
-0.066229465044733,-0.066229465044733
-0.015096561870458809,-0.015096561870458809
0.027143662490898123,0.027143662490898123
0.024179436219925708,0.024179436219925708
0.027143662490898123,0.027143662490898123
0.04344690698124641,0.04344690698124641
0.07383022625871367,0.07383022625871367
0.06345543431031023,0.06345543431031023
0.027143662490898123,0.027143662490898123
-0.04251565487695366,-0.04251565487695366
-0.11291602881254854,-0.11291602881254854
-0.18479851588362964,-0.18479851588362964
-0.20628915634817965,-0.20628915634817965
-0.20554809978043656,-0.20554809978043656
-0.20628915634817965,-0.20628915634817965
-0.25964522922568317,-0.25964522922568317
-0.2996622838838108,-0.2996622838838108
-0.3167065849419022,-0.3167065849419022
-0.2996622838838108,-0.2996622838838108
-0.31818869807738837,-0.31818869807738837
-0.3463488476516263,-0.3463488476516263
-0.38043744976780913,-0.38043744976780913
-0.39303541141944187,-0.39303541141944187
-0.4315703529420833,-0.4315703529420833
-0.4871495955228161,-0.4871495955228161
-0.5679247614068145,-0.5679247614068145
-0.6272092868262628,-0.6272092868262628
-0.6479588707230697,-0.6479588707230697
-0.5805227230584472,-0.5805227230584472
-0.4352756357807988,-0.4352756357807988
-0.20628915634817965,-0.20628915634817965
0.0953208667232637,0.0953208667232637
0.5406958639368693,0.5406958639368693
1.1528085888926731,1.1528085888926731
1.8953472697712634,1.8953472697712634
2.569708746417488,2.569708746417488
2.9698792929987645,2.9698792929987645
2.946165482830985,2.946165482830985
2.5497002190884244,2.5497002190884244
1.9175789668035566,1.9175789668035566
1.2417353770218458,1.2417353770218458
0.6192478601176383,0.6192478601176383
0.12051679002652924,0.12051679002652924
-0.2663147383353711,-0.2663147383353711
-0.5338361592906317,-0.5338361592906317
-0.7153950183876921,-0.7153950183876921
-0.8139555418975251,-0.8139555418975251
-0.8732400673169733,-0.8732400673169733
-0.9073286694331562,-0.9073286694331562
-0.9554973463364579,-0.9554973463364579
-1.0007017969687872,-1.0007017969687872
-1.041459908194658,-1.041459908194658
-1.0473883607366028,-1.0473883607366028
-1.0481294173043458,-1.0481294173043458
-1.0473883607366028,-1.0473883607366028
-1.0740663971753546,-1.0740663971753546
-1.0940749245044183,-1.0940749245044183
-1.1229761306463995,-1.1229761306463995
-1.140761488272234,-1.140761488272234
-1.1748500903884167,-1.1748500903884167
-1.1874480520400494,-1.1874480520400494
-1.1941175611497374,-1.1941175611497374
-1.1874480520400494,-1.1874480520400494
-1.2081976359368565,-1.2081976359368565
-1.234134615807865,-1.234134615807865
-1.2652589916530754,-1.2652589916530754
-1.2808211795756805,-1.2808211795756805
-1.319356121098322,-1.319356121098322
-1.3741943071113116,-1.3741943071113116
-1.4416304547759342,-1.4416304547759342
-1.4675674346469427,-1.4675674346469427
-1.469790604350172,-1.469790604350172
-1.4675674346469427,-1.4675674346469427
-1.5105487155760429,-1.5105487155760429
-1.5609405621825738,-1.5609405621825738
-1.603180786543931,-1.603180786543931
-1.6076271259503896,-1.6076271259503896
-1.611332408789105,-1.611332408789105
-1.6076271259503896,-1.6076271259503896
-1.6150376916278206,-1.6150376916278206
-1.6076271259503896,-1.6076271259503896
-1.6002165602729586,-1.6002165602729586
-1.5609405621825738,-1.5609405621825738
-1.4935044145179515,-1.4935044145179515
-1.3741943071113116,-1.3741943071113116
-1.24006306834981,-1.24006306834981
-1.0940749245044183,-1.0940749245044183
-0.9599436857429166,-0.9599436857429166
-0.8139555418975251,-0.8139555418975251
-0.6850116991102249,-0.6850116991102249
-0.5805227230584472,-0.5805227230584472
-0.5153097450970541,-0.5153097450970541
-0.4397219751872575,-0.4397219751872575
-0.3641342052774608,-0.3641342052774608
-0.2996622838838108,-0.2996622838838108
-0.27891269998700385,-0.27891269998700385
-0.25297572011599523,-0.25297572011599523
-0.22259240083852797,-0.22259240083852797
-0.20628915634817965,-0.20628915634817965
-0.2500114938450228,-0.2500114938450228
-0.2996622838838108,-0.2996622838838108
-0.3211529243483608,-0.3211529243483608
-0.2996622838838108,-0.2996622838838108
-0.2944748879096091,-0.2944748879096091
-0.2996622838838108,-0.2996622838838108
-0.3115191889677004,-0.3115191889677004
-0.2996622838838108,-0.2996622838838108
-0.2989212273160677,-0.2989212273160677
-0.2996622838838108,-0.2996622838838108
-0.31003707583221424,-0.31003707583221424
-0.2996622838838108,-0.2996622838838108
-0.2989212273160677,-0.2989212273160677
-0.2996622838838108,-0.2996622838838108
-0.31522447180641594,-0.31522447180641594
-0.2996622838838108,-0.2996622838838108
-0.27520741714828834,-0.27520741714828834
-0.25297572011599523,-0.25297572011599523
-0.27594847371603143,-0.27594847371603143
-0.2996622838838108,-0.2996622838838108
-0.31448341523867285,-0.31448341523867285
-0.2996622838838108,-0.2996622838838108
-0.2989212273160677,-0.2989212273160677
-0.2996622838838108,-0.2996622838838108
-0.3218939809161039,-0.3218939809161039
-0.3463488476516263,-0.3463488476516263
-0.38488378917426774,-0.38488378917426774
-0.39303541141944187,-0.39303541141944187
-0.393776467987185,-0.393776467987185
-0.39303541141944187,-0.39303541141944187
-0.4123028821807626,-0.4123028821807626
-0.39303541141944187,-0.39303541141944187
-0.3470899042193694,-0.3470899042193694
-0.2996622838838108,-0.2996622838838108
-0.3033675667225263,-0.3033675667225263
-0.2996622838838108,-0.2996622838838108
-0.2670557949031142,-0.2670557949031142
-0.20628915634817965,-0.20628915634817965
-0.1796111199094279,-0.1796111199094279
-0.1596025925803641,-0.1596025925803641
-0.1395940652513003,-0.1395940652513003
-0.11291602881254854,-0.11291602881254854
-0.14107617838678652,-0.14107617838678652
-0.20628915634817965,-0.20628915634817965
-0.29299277477412283,-0.29299277477412283
-0.3463488476516263,-0.3463488476516263
-0.38488378917426774,-0.38488378917426774
-0.39303541141944187,-0.39303541141944187
-0.40192809023235915,-0.40192809023235915
-0.39303541141944187,-0.39303541141944187
-0.3997049205291298,-0.3997049205291298
-0.39303541141944187,-0.39303541141944187
-0.3989638639613867,-0.3989638639613867
-0.39303541141944187,-0.39303541141944187
-0.4130439387485057,-0.4130439387485057
-0.4397219751872575,-0.4397219751872575
-0.4915959349292747,-0.4915959349292747
-0.5338361592906317,-0.5338361592906317
-0.5827458927616765,-0.5827458927616765
-0.6272092868262628,-0.6272092868262628
-0.6872348688134542,-0.6872348688134542
-0.7205824143618939,-0.7205824143618939
-0.7124307921167198,-0.7124307921167198
-0.6272092868262628,-0.6272092868262628
-0.4849264258195868,-0.4849264258195868
-0.25297572011599523,-0.25297572011599523
0.0945798101555206,0.0945798101555206
0.6340689914725004,0.6340689914725004
1.3477064662091096,1.3477064662091096
2.128780088610341,2.128780088610341
2.7201432296693384,2.7201432296693384
2.9231927292309487,2.9231927292309487
2.6845725144176695,2.6845725144176695
2.175466652378157,2.175466652378157
1.563353927422353,1.563353927422353
0.9616159944149524,0.9616159944149524
0.39100243725276224,0.39100243725276224
-0.066229465044733,-0.066229465044733
-0.3737679406581212,-0.3737679406581212
-0.5338361592906317,-0.5338361592906317
-0.6390661919101525,-0.6390661919101525
-0.7205824143618939,-0.7205824143618939
-0.7887596185942595,-0.7887596185942595
-0.8139555418975251,-0.8139555418975251
-0.8339640692265888,-0.8339640692265888
-0.8606421056653406,-0.8606421056653406
-0.9147392351105872,-0.9147392351105872
-0.9540152332009717,-0.9540152332009717
-0.9718005908268061,-0.9718005908268061
-0.9540152332009717,-0.9540152332009717
-0.9480867806590269,-0.9480867806590269
-0.9540152332009717,-0.9540152332009717
-0.9873627787494114,-0.9873627787494114
-1.0007017969687872,-1.0007017969687872
-1.0081123626462183,-1.0081123626462183
-1.0007017969687872,-1.0007017969687872
-1.0184871545946217,-1.0184871545946217
-1.0473883607366028,-1.0473883607366028
-1.09926232047862,-1.09926232047862
-1.140761488272234,-1.140761488272234
-1.177073260091646,-1.177073260091646
-1.1874480520400494,-1.1874480520400494
-1.2052334096658839,-1.2052334096658839
-1.234134615807865,-1.234134615807865
-1.2897138583885979,-1.2897138583885979
-1.327507743343496,-1.327507743343496
-1.354926836349991,-1.354926836349991
-1.3741943071113116,-1.3741943071113116
-1.4231040405823565,-1.4231040405823565
-1.4675674346469427,-1.4675674346469427
-1.5046202630340981,-1.5046202630340981
-1.5142539984147583,-1.5142539984147583
-1.525369846930905,-1.525369846930905
-1.5142539984147583,-1.5142539984147583
-1.4986918104921532,-1.4986918104921532
-1.4675674346469427,-1.4675674346469427
-1.440148341640448,-1.440148341640448
-1.3741943071113116,-1.3741943071113116
-1.2756337836014788,-1.2756337836014788
-1.140761488272234,-1.140761488272234
-1.0095944757817046,-1.0095944757817046
-0.8606421056653406,-0.8606421056653406
-0.7027970567360594,-0.7027970567360594
-0.5338361592906317,-0.5338361592906317
-0.40192809023235915,-0.40192809023235915
-0.2996622838838108,-0.2996622838838108
-0.2307440230837021,-0.2307440230837021
-0.1596025925803641,-0.1596025925803641
-0.10846968940608992,-0.10846968940608992
-0.066229465044733,-0.066229465044733
-0.047703050851155386,-0.047703050851155386
-0.019542901276917435,-0.019542901276917435
0.002688795755375688,0.002688795755375688
0.027143662490898123,0.027143662490898123
0.02640260592315502,0.02640260592315502
0.027143662490898123,0.027143662490898123
0.02121520994895329,0.02121520994895329
0.027143662490898123,0.027143662490898123
0.02121520994895329,0.02121520994895329
0.027143662490898123,0.027143662490898123
0.03751845443930158,0.03751845443930158
0.07383022625871367,0.07383022625871367
0.09976720612972233,0.09976720612972233
0.12051679002652924,0.12051679002652924
0.11681150718781372,0.11681150718781372
0.12051679002652924,0.12051679002652924
0.11607045062007061,0.11607045062007061
0.12051679002652924,0.12051679002652924
0.1123651677813551,0.1123651677813551
0.12051679002652924,0.12051679002652924
0.12051679002652924,0.12051679002652924
0.12051679002652924,0.12051679002652924
0.09235664045229128,0.09235664045229128
0.07383022625871367,0.07383022625871367
0.06123226460708091,0.06123226460708091
0.07383022625871367,0.07383022625871367
0.07234811312322748,0.07234811312322748
0.07383022625871367,0.07383022625871367
0.06567860401353953,0.06567860401353953
0.07383022625871367,0.07383022625871367
0.07086599998774126,0.07086599998774126
0.07383022625871367,0.07383022625871367
0.06419649087805333,0.06419649087805333
0.07383022625871367,0.07383022625871367
0.08642818791034645,0.08642818791034645
0.12051679002652924,0.12051679002652924
0.14274848705882237,0.14274848705882237
0.16720335379434478,0.16720335379434478
0.17980131544597758,0.17980131544597758
0.21388991756216036,0.21388991756216036
0.2405679540009121,0.2405679540009121
0.2605764813299759,0.2605764813299759
0.2516838025170587,0.2516838025170587
0.2605764813299759,0.2605764813299759
0.2798439520912966,0.2798439520912966
0.30726304509779145,0.30726304509779145
0.2931829703106725,0.2931829703106725
0.2605764813299759,0.2605764813299759
0.2079614650202155,0.2079614650202155
0.16720335379434478,0.16720335379434478
0.1131062243490982,0.1131062243490982
0.07383022625871367,0.07383022625871367
0.03529528473607227,0.03529528473607227
0.027143662490898123,0.027143662490898123
0.016027813974751563,0.016027813974751563
0.027143662490898123,0.027143662490898123
0.02492049278766881,0.02492049278766881
0.027143662490898123,0.027143662490898123
0.00046562605214637605,0.00046562605214637605
-0.019542901276917435,-0.019542901276917435
-0.04696199428341229,-0.04696199428341229
-0.066229465044733,-0.066229465044733
-0.12477293389643822,-0.12477293389643822
-0.20628915634817965,-0.20628915634817965
-0.3041086232902694,-0.3041086232902694
-0.3463488476516263,-0.3463488476516263
-0.33078665972902116,-0.33078665972902116
-0.25297572011599523,-0.25297572011599523
-0.16330787541907962,-0.16330787541907962
-0.019542901276917435,-0.019542901276917435
0.2516838025170587,0.2516838025170587
0.774128682775947,0.774128682775947
1.5248189858997114,1.5248189858997114
2.362953964017162,2.362953964017162
3.0150837436310938,3.0150837436310938
3.296685239373473,3.296685239373473
3.1321706813345043,3.1321706813345043
2.6430733466240555,2.6430733466240555
1.9961309629843256,1.9961309629843256
1.3817950683252924,1.3817950683252924
0.8593501880664041,0.8593501880664041
0.44732273640123815,0.44732273640123815
0.1131062243490982,0.1131062243490982
-0.11291602881254854,-0.11291602881254854
-0.2455651544385642,-0.2455651544385642
-0.2996622838838108,-0.2996622838838108
-0.34783096078711256,-0.34783096078711256
-0.39303541141944187,-0.39303541141944187
-0.4493557105679178,-0.4493557105679178
-0.4871495955228161,-0.4871495955228161
-0.5227203107744851,-0.5227203107744851
-0.5338361592906317,-0.5338361592906317
-0.5405056684003197,-0.5405056684003197
-0.5338361592906317,-0.5338361592906317
-0.5412467249680627,-0.5412467249680627
-0.5338361592906317,-0.5338361592906317
-0.5353182724261178,-0.5353182724261178
-0.5338361592906317,-0.5338361592906317
-0.5612552522971265,-0.5612552522971265
-0.5805227230584472,-0.5805227230584472
-0.6057186463617128,-0.6057186463617128
-0.6272092868262628,-0.6272092868262628
-0.6761190202973076,-0.6761190202973076
-0.7205824143618939,-0.7205824143618939
-0.7583762993167922,-0.7583762993167922
-0.7672689781297094,-0.7672689781297094
-0.7872775054587733,-0.7872775054587733
-0.8139555418975251,-0.8139555418975251
-0.8643473885040561,-0.8643473885040561
-0.9073286694331562,-0.9073286694331562
-0.9584615726074303,-0.9584615726074303
-1.0007017969687872,-1.0007017969687872
-1.0555399829817769,-1.0555399829817769
-1.0940749245044183,-1.0940749245044183
-1.1296456397560874,-1.1296456397560874
-1.140761488272234,-1.140761488272234
-1.1511362802206373,-1.1511362802206373
-1.140761488272234,-1.140761488272234
-1.1289045831883442,-1.1289045831883442
-1.0940749245044183,-1.0940749245044183
-1.0592452658204925,-1.0592452658204925
-1.0007017969687872,-1.0007017969687872
-0.9280782533299631,-0.9280782533299631
-0.8139555418975251,-0.8139555418975251
-0.6835295859747387,-0.6835295859747387
-0.5338361592906317,-0.5338361592906317
-0.3959996376904143,-0.3959996376904143
-0.25297572011599523,-0.25297572011599523
-0.13144244300612615,-0.13144244300612615
-0.019542901276917435,-0.019542901276917435
0.05530381206513608,0.05530381206513608
0.12051679002652924,0.12051679002652924
0.1664622972266017,0.1664622972266017
0.21388991756216036,0.21388991756216036
0.23760372772993968,0.23760372772993968
0.2605764813299759,0.2605764813299759
0.2746565561170949,0.2746565561170949
0.30726304509779145,0.30726304509779145
0.3309768552655708,0.3309768552655708
0.353949608865607,0.353949608865607
0.3524674957301208,0.3524674957301208
0.353949608865607,0.353949608865607
0.3472800997559191,0.3472800997559191
0.353949608865607,0.353949608865607
0.3495032694591484,0.3495032694591484
0.353949608865607,0.353949608865607
0.3487622128914053,0.3487622128914053
0.353949608865607,0.353949608865607
0.3487622128914053,0.3487622128914053
0.353949608865607,0.353949608865607
0.3487622128914053,0.3487622128914053
0.353949608865607,0.353949608865607
0.3472800997559191,0.3472800997559191
0.353949608865607,0.353949608865607
0.3495032694591484,0.3495032694591484
0.353949608865607,0.353949608865607
0.3457979866204329,0.3457979866204329
0.353949608865607,0.353949608865607
0.3524674957301208,0.3524674957301208
0.353949608865607,0.353949608865607
0.3272715724268553,0.3272715724268553
0.30726304509779145,0.30726304509779145
0.2909598006074432,0.2909598006074432
0.30726304509779145,0.30726304509779145
0.3131914976397363,0.3131914976397363
0.30726304509779145,0.30726304509779145
0.2731744429816087,0.2731744429816087
0.2605764813299759,0.2605764813299759
0.25464802878803106,0.25464802878803106
0.2605764813299759,0.2605764813299759
0.24797851967834314,0.24797851967834314
0.2605764813299759,0.2605764813299759
0.29392402687841557,0.29392402687841557
0.353949608865607,0.353949608865607
0.3843329281430743,0.3843329281430743
0.4006361726334226,0.4006361726334226
0.40804673831085364,0.40804673831085364
0.44732273640123815,0.44732273640123815
0.47918816881419163,0.47918816881419163
0.4940093001690537,0.4940093001690537
0.46955443343353126,0.46955443343353126
0.44732273640123815,0.44732273640123815
0.40878779487859673,0.40878779487859673
0.353949608865607,0.353949608865607
0.26650493387192076,0.26650493387192076
0.21388991756216036,0.21388991756216036
0.19906878620729826,0.19906878620729826
0.21388991756216036,0.21388991756216036
0.19165822052986722,0.19165822052986722
0.16720335379434478,0.16720335379434478
0.14719482646528098,0.14719482646528098
0.16720335379434478,0.16720335379434478
0.1701675800653172,0.1701675800653172
0.16720335379434478,0.16720335379434478
0.13978426078784995,0.13978426078784995
0.12051679002652924,0.12051679002652924
0.0775355090974292,0.0775355090974292
0.027143662490898123,0.027143662490898123
-0.049926220554384705,-0.049926220554384705
-0.11291602881254854,-0.11291602881254854
-0.16256681885133653,-0.16256681885133653
-0.1596025925803641,-0.1596025925803641
-0.13218349957386927,-0.13218349957386927
-0.066229465044733,-0.066229465044733
0.04567007668447572,0.04567007668447572
0.30726304509779145,0.30726304509779145
0.7748697393436902,0.7748697393436902
1.4751681958609235,1.4751681958609235
2.2814377415654206,2.2814377415654206
3.01656585676658,3.01656585676658
3.4278522518640027,3.4278522518640027
3.3900583669091047,3.3900583669091047
2.9283801252051505,2.9283801252051505
2.269580836481531,2.269580836481531
1.6048530952159668,1.6048530952159668
1.0549891219505836,1.0549891219505836
0.6140604641434365,0.6140604641434365
0.30726304509779145,0.30726304509779145
0.10421354553618095,0.10421354553618095
-0.019542901276917435,-0.019542901276917435
-0.12921927330289684,-0.12921927330289684
-0.20628915634817965,-0.20628915634817965
-0.2640915686321418,-0.2640915686321418
-0.2996622838838108,-0.2996622838838108
-0.3552415264645436,-0.3552415264645436
-0.39303541141944187,-0.39303541141944187
-0.4085975993420471,-0.4085975993420471
-0.39303541141944187,-0.39303541141944187
-0.407856542774304,-0.407856542774304
-0.4397219751872575,-0.4397219751872575
-0.4834443126841006,-0.4834443126841006
-0.4871495955228161,-0.4871495955228161
-0.4871495955228161,-0.4871495955228161
-0.4871495955228161,-0.4871495955228161
-0.5182739713680264,-0.5182739713680264
-0.5338361592906317,-0.5338361592906317
-0.5405056684003197,-0.5405056684003197
-0.5338361592906317,-0.5338361592906317
-0.5679247614068145,-0.5679247614068145
-0.6272092868262628,-0.6272092868262628
-0.6961275476263714,-0.6961275476263714
-0.7205824143618939,-0.7205824143618939
-0.7235466406328663,-0.7235466406328663
-0.7205824143618939,-0.7205824143618939
-0.7598584124522784,-0.7598584124522784
-0.8139555418975251,-0.8139555418975251
-0.8762042935879457,-0.8762042935879457
-0.9073286694331562,-0.9073286694331562
-0.9354888190073941,-0.9354888190073941
-0.9540152332009717,-0.9540152332009717
-0.9866217221816682,-0.9866217221816682
-1.0007017969687872,-1.0007017969687872
-1.0110765889171907,-1.0110765889171907
-1.0007017969687872,-1.0007017969687872
-0.99180911815587,-0.99180911815587
-0.9540152332009717,-0.9540152332009717
-0.9014002168912113,-0.9014002168912113
-0.8139555418975251,-0.8139555418975251
-0.713912905252206,-0.713912905252206
-0.5805227230584472,-0.5805227230584472
-0.4441683145937161,-0.4441683145937161
-0.2996622838838108,-0.2996622838838108
-0.16923632796102445,-0.16923632796102445
-0.019542901276917435,-0.019542901276917435
0.1131062243490982,0.1131062243490982
0.21388991756216036,0.21388991756216036
0.2568711984912604,0.2568711984912604
0.30726304509779145,0.30726304509779145
0.37395813619467083,0.37395813619467083
0.44732273640123815,0.44732273640123815
0.4628849243238433,0.4628849243238433
0.44732273640123815,0.44732273640123815
0.4280552656399174,0.4280552656399174
0.44732273640123815,0.44732273640123815
0.47029549000127435,0.47029549000127435
0.4940093001690537,0.4940093001690537
0.4932682436013106,0.4932682436013106
0.4940093001690537,0.4940093001690537
0.4851166213561364,0.4851166213561364
0.4940093001690537,0.4940093001690537
0.4940093001690537,0.4940093001690537
0.4940093001690537,0.4940093001690537
0.4799292253819347,0.4799292253819347
0.4940093001690537,0.4940093001690537
0.5169820537690899,0.5169820537690899
0.5406958639368693,0.5406958639368693
0.5199462800400624,0.5199462800400624
0.4940093001690537,0.4940093001690537
0.4762239425432192,0.4762239425432192
0.4940093001690537,0.4940093001690537
0.4991966961432554,0.4991966961432554
0.4940093001690537,0.4940093001690537
0.4621438677561002,0.4621438677561002
0.44732273640123815,0.44732273640123815
0.4369479444528347,0.4369479444528347
0.44732273640123815,0.44732273640123815
0.4443585101302657,0.4443585101302657
0.44732273640123815,0.44732273640123815
0.43917111415606397,0.43917111415606397
0.44732273640123815,0.44732273640123815
0.4443585101302657,0.4443585101302657
0.44732273640123815,0.44732273640123815
0.4376890010205778,0.4376890010205778
0.44732273640123815,0.44732273640123815
0.44806379296898124,0.44806379296898124
0.44732273640123815,0.44732273640123815
0.42953737877540366,0.42953737877540366
0.44732273640123815,0.44732273640123815
0.48659873449162266,0.48659873449162266
0.5406958639368693,0.5406958639368693
0.5629275609691624,0.5629275609691624
0.5873824277046849,0.5873824277046849
0.6081320116014918,0.6081320116014918
0.6340689914725004,0.6340689914725004
0.6303637086337849,0.6303637086337849
0.6340689914725004,0.6340689914725004
0.6348100480402434,0.6348100480402434
0.6340689914725004,0.6340689914725004
0.5903466539756572,0.5903466539756572
0.5406958639368693,0.5406958639368693
0.48659873449162266,0.48659873449162266
0.44732273640123815,0.44732273640123815
0.39026138068501914,0.39026138068501914
0.353949608865607,0.353949608865607
0.3346821381042863,0.3346821381042863
0.353949608865607,0.353949608865607
0.35469066543335015,0.35469066543335015
0.353949608865607,0.353949608865607
0.3265305158591122,0.3265305158591122
0.30726304509779145,0.30726304509779145
0.2739154995493518,0.2739154995493518
0.2605764813299759,0.2605764813299759
0.2390858408654259,0.2390858408654259
0.21388991756216036,0.21388991756216036
0.1464537698975379,0.1464537698975379
0.07383022625871367,0.07383022625871367
0.002688795755375688,0.002688795755375688
-0.019542901276917435,-0.019542901276917435
-0.003980713354312248,-0.003980713354312248
0.07383022625871367,0.07383022625871367
0.18943505082663792,0.18943505082663792
0.4006361726334226,0.4006361726334226
0.7800571353178919,0.7800571353178919
1.428481632093108,1.428481632093108
2.2503133657202103,2.2503133657202103
3.01656585676658,3.01656585676658
3.4397091569478926,3.4397091569478926
3.43674493067692,3.43674493067692
3.0669577033731112,3.0669577033731112
2.503013655320609,2.503013655320609
1.8657050070615393,1.8657050070615393
1.2884219407896613,1.2884219407896613
0.8193331334082764,0.8193331334082764
0.4940093001690537,0.4940093001690537
0.26576387730417766,0.26576387730417766
0.12051679002652924,0.12051679002652924
0.009358304865063624,0.009358304865063624
-0.066229465044733,-0.066229465044733
-0.13144244300612615,-0.13144244300612615
-0.1596025925803641,-0.1596025925803641
-0.18257534618040033,-0.18257534618040033
-0.20628915634817965,-0.20628915634817965
-0.25964522922568317,-0.25964522922568317
-0.2996622838838108,-0.2996622838838108
-0.33152771629676425,-0.33152771629676425
-0.3463488476516263,-0.3463488476516263
-0.38043744976780913,-0.38043744976780913
-0.39303541141944187,-0.39303541141944187
-0.40118703366461606,-0.40118703366461606
-0.39303541141944187,-0.39303541141944187
-0.4174902781549643,-0.4174902781549643
-0.4397219751872575,-0.4397219751872575
-0.4701052944647247,-0.4701052944647247
-0.4871495955228161,-0.4871495955228161
-0.5175329148002834,-0.5175329148002834
-0.5338361592906317,-0.5338361592906317
-0.5553267997551817,-0.5553267997551817
-0.5805227230584472,-0.5805227230584472
-0.6346198525036938,-0.6346198525036938
-0.6738958505940783,-0.6738958505940783
-0.7020560001683163,-0.7020560001683163
-0.7205824143618939,-0.7205824143618939
-0.7828311660523146,-0.7828311660523146
-0.8606421056653406,-0.8606421056653406
-0.9332656493041648,-0.9332656493041648
-0.9540152332009717,-0.9540152332009717
-0.9592026291751734,-0.9592026291751734
-0.9540152332009717,-0.9540152332009717
-0.9636489685816321,-0.9636489685816321
-0.9540152332009717,-0.9540152332009717
-0.9399351584138527,-0.9399351584138527
-0.9073286694331562,-0.9073286694331562
-0.878427463291175,-0.878427463291175
-0.8139555418975251,-0.8139555418975251
-0.7183592446586646,-0.7183592446586646
-0.5805227230584472,-0.5805227230584472
-0.4441683145937161,-0.4441683145937161
-0.2996622838838108,-0.2996622838838108
-0.16478998855456584,-0.16478998855456584
-0.019542901276917435,-0.019542901276917435
0.10273143240069474,0.10273143240069474
0.21388991756216036,0.21388991756216036
0.28873663090421386,0.28873663090421386
0.353949608865607,0.353949608865607
0.3976719463624502,0.3976719463624502
0.44732273640123815,0.44732273640123815
0.4762239425432192,0.4762239425432192
0.4940093001690537,0.4940093001690537
0.48585767792387957,0.48585767792387957
0.4940093001690537,0.4940093001690537
0.510312544659402,0.510312544659402
0.5406958639368693,0.5406958639368693
0.5444011467755848,0.5444011467755848
0.5406958639368693,0.5406958639368693
0.5288389588529796,0.5288389588529796
0.5406958639368693,0.5406958639368693
0.5436600902078417,0.5436600902078417
0.5406958639368693,0.5406958639368693
0.511053601227145,0.511053601227145
0.4940093001690537,0.4940093001690537
0.48289345165290715,0.48289345165290715
0.4940093001690537,0.4940093001690537
0.49178613046582437,0.49178613046582437
0.4940093001690537,0.4940093001690537
0.48585767792387957,0.48585767792387957
0.4940093001690537,0.4940093001690537
0.4910450738980813,0.4910450738980813
0.4940093001690537,0.4940093001690537
0.48437556478839333,0.48437556478839333
0.4940093001690537,0.4940093001690537
0.4947503567367968,0.4947503567367968
0.4940093001690537,0.4940093001690537
0.46510809402707265,0.46510809402707265
0.44732273640123815,0.44732273640123815
0.43472477474960536,0.43472477474960536
0.44732273640123815,0.44732273640123815
0.44732273640123815,0.44732273640123815
0.44732273640123815,0.44732273640123815
0.4236089262334588,0.4236089262334588
0.4006361726334226,0.4006361726334226
0.36358334424626737,0.36358334424626737
0.353949608865607,0.353949608865607
0.3613601745430381,0.3613601745430381
0.4006361726334226,0.4006361726334226
0.425091039368945,0.425091039368945
0.44732273640123815,0.44732273640123815
0.45695647178189847,0.45695647178189847
0.4940093001690537,0.4940093001690537
0.5362495245304106,0.5362495245304106
0.5873824277046849,0.5873824277046849
0.610355181304721,0.610355181304721
0.6340689914725004,0.6340689914725004
0.6511132925305918,0.6511132925305918
0.680755555240316,0.680755555240316
0.6763092158338573,0.6763092158338573
0.6340689914725004,0.6340689914725004
0.53847269423364,0.53847269423364
0.44732273640123815,0.44732273640123815
0.37395813619467083,0.37395813619467083
0.353949608865607,0.353949608865607
0.3472800997559191,0.3472800997559191
0.353949608865607,0.353949608865607
0.3302357986978277,0.3302357986978277
0.30726304509779145,0.30726304509779145
0.2694691601428932,0.2694691601428932
0.2605764813299759,0.2605764813299759
0.2524248590848018,0.2524248590848018
0.2605764813299759,0.2605764813299759
0.2427911237041414,0.2427911237041414
0.21388991756216036,0.21388991756216036
0.16053384468465687,0.16053384468465687
0.12051679002652924,0.12051679002652924
0.05752698176836539,0.05752698176836539
-0.019542901276917435,-0.019542901276917435
-0.09142538834799853,-0.09142538834799853
-0.066229465044733,-0.066229465044733
0.018992040245723978,0.018992040245723978
0.12051679002652924,0.12051679002652924
0.26279965103320524,0.26279965103320524
0.6340689914725004,0.6340689914725004
1.27137763973157,1.27137763973157
2.03540696107471,2.03540696107471
2.7149558336951367,2.7149558336951367
3.249998675605658,3.249998675605658
3.516037983425432,3.516037983425432
3.343371803141289,3.343371803141289
2.681608288146697,2.681608288146697
1.848660706003448,1.848660706003448
1.1802276818991682,1.1802276818991682
0.774128682775947,0.774128682775947
0.47103654656901744,0.47103654656901744
0.21388991756216036,0.21388991756216036
0.024179436219925708,0.024179436219925708
-0.066229465044733,-0.066229465044733
-0.1381119521158141,-0.1381119521158141
-0.20628915634817965,-0.20628915634817965
-0.2715021343095728,-0.2715021343095728
-0.2996622838838108,-0.2996622838838108
-0.32634032032256255,-0.32634032032256255
-0.3463488476516263,-0.3463488476516263
-0.3789553366323229,-0.3789553366323229
-0.39303541141944187,-0.39303541141944187
-0.40563337307107467,-0.40563337307107467
-0.39303541141944187,-0.39303541141944187
-0.393776467987185,-0.393776467987185
-0.39303541141944187,-0.39303541141944187
-0.42045450442593674,-0.42045450442593674
-0.4397219751872575,-0.4397219751872575
-0.4708463510324678,-0.4708463510324678
-0.4871495955228161,-0.4871495955228161
-0.5138276319615679,-0.5138276319615679
-0.5338361592906317,-0.5338361592906317
-0.5627373654326128,-0.5627373654326128
-0.5805227230584472,-0.5805227230584472
-0.6190576645810887,-0.6190576645810887
-0.6738958505940783,-0.6738958505940783
-0.756894186181306,-0.756894186181306
-0.8139555418975251,-0.8139555418975251
-0.8487852005814509,-0.8487852005814509
-0.8606421056653406,-0.8606421056653406
-0.9014002168912113,-0.9014002168912113
-0.9540152332009717,-0.9540152332009717
-1.0147818717559063,-1.0147818717559063
-1.0473883607366028,-1.0473883607366028
-1.07777168001407,-1.07777168001407
-1.0940749245044183,-1.0940749245044183
-1.1111192255625097,-1.1111192255625097
-1.0940749245044183,-1.0940749245044183
-1.0622094920914649,-1.0622094920914649
-1.0007017969687872,-1.0007017969687872
-0.9295603664654493,-0.9295603664654493
-0.8139555418975251,-0.8139555418975251
-0.6798243031360232,-0.6798243031360232
-0.5338361592906317,-0.5338361592906317
-0.4182313347227074,-0.4182313347227074
-0.2996622838838108,-0.2996622838838108
-0.17368266736748308,-0.17368266736748308
-0.019542901276917435,-0.019542901276917435
0.11162411121361199,0.11162411121361199
0.21388991756216036,0.21388991756216036
0.26650493387192076,0.26650493387192076
0.30726304509779145,0.30726304509779145
0.3280126289945984,0.3280126289945984
0.353949608865607,0.353949608865607
0.3702528533559553,0.3702528533559553
0.4006361726334226,0.4006361726334226
0.4236089262334588,0.4236089262334588
0.44732273640123815,0.44732273640123815
0.44658167983349506,0.44658167983349506
0.44732273640123815,0.44732273640123815
0.4406532272915502,0.4406532272915502
0.44732273640123815,0.44732273640123815
0.44361745356252263,0.44361745356252263
0.44732273640123815,0.44732273640123815
0.4413942838592933,0.4413942838592933
0.44732273640123815,0.44732273640123815
0.4421353404270364,0.4421353404270364
0.44732273640123815,0.44732273640123815
0.44287639699477954,0.44287639699477954
0.44732273640123815,0.44732273640123815
0.4399121707238071,0.4399121707238071
0.44732273640123815,0.44732273640123815
0.4443585101302657,0.4443585101302657
0.44732273640123815,0.44732273640123815
0.4369479444528347,0.4369479444528347
0.44732273640123815,0.44732273640123815
0.44954590610446743,0.44954590610446743
0.44732273640123815,0.44732273640123815
0.4154573039882847,0.4154573039882847
0.4006361726334226,0.4006361726334226
0.39396666352373466,0.39396666352373466
0.4006361726334226,0.4006361726334226
0.37618130589790016,0.37618130589790016
0.353949608865607,0.353949608865607
0.33764636437525875,0.33764636437525875
0.353949608865607,0.353949608865607
0.35617277856883633,0.35617277856883633
0.353949608865607,0.353949608865607
0.34061059064623117,0.34061059064623117
0.353949608865607,0.353949608865607
0.35839594827206567,0.35839594827206567
0.353949608865607,0.353949608865607
0.3317179118333139,0.3317179118333139
0.353949608865607,0.353949608865607
0.4006361726334226,0.4006361726334226
0.44732273640123815,0.44732273640123815
0.4443585101302657,0.4443585101302657
0.44732273640123815,0.44732273640123815
0.4762239425432192,0.4762239425432192
0.5406958639368693,0.5406958639368693
0.574784466053052,0.574784466053052
0.5873824277046849,0.5873824277046849
0.5695970700788503,0.5695970700788503
0.5406958639368693,0.5406958639368693
0.4717776031367606,0.4717776031367606
0.4006361726334226,0.4006361726334226
0.3354231946720294,0.3354231946720294
0.30726304509779145,0.30726304509779145
0.2783618389558104,0.2783618389558104
0.2605764813299759,0.2605764813299759
0.22796999234927934,0.22796999234927934
0.21388991756216036,0.21388991756216036
0.19832772963955517,0.19832772963955517
0.21388991756216036,0.21388991756216036
0.21833625696861897,0.21833625696861897
0.21388991756216036,0.21388991756216036
0.16720335379434478,0.16720335379434478
0.12051679002652924,0.12051679002652924
0.06716071714902574,0.06716071714902574
0.027143662490898123,0.027143662490898123
-0.041774598309210556,-0.041774598309210556
-0.11291602881254854,-0.11291602881254854
-0.17071844109651066,-0.17071844109651066
-0.1596025925803641,-0.1596025925803641
-0.1225497641932089,-0.1225497641932089
-0.066229465044733,-0.066229465044733
0.04344690698124641,0.04344690698124641
0.353949608865607,0.353949608865607
0.8993672427245316,0.8993672427245316
1.6152278871643702,1.6152278871643702
2.3422043801203554,2.3422043801203554
2.9698792929987645,2.9698792929987645
3.30780108788962,3.30780108788962
3.203312111837842,3.203312111837842
2.652707082004716,2.652707082004716
1.942033833539079,1.942033833539079
1.3225105429058441,1.3225105429058441
0.8675018103115781,0.8675018103115781
0.47918816881419163,0.47918816881419163
0.16720335379434478,0.16720335379434478
-0.033622976064036414,-0.033622976064036414
-0.11291602881254854,-0.11291602881254854
-0.16404893198682274,-0.16404893198682274
-0.20628915634817965,-0.20628915634817965
-0.25742205952245384,-0.25742205952245384
-0.2996622838838108,-0.2996622838838108
-0.3589468093032591,-0.3589468093032591
-0.39303541141944187,-0.39303541141944187
-0.4041512599355885,-0.4041512599355885
-0.39303541141944187,-0.39303541141944187
-0.4137849953162488,-0.4137849953162488
-0.4397219751872575,-0.4397219751872575
-0.47381057730344023,-0.47381057730344023
-0.4871495955228161,-0.4871495955228161
-0.5175329148002834,-0.5175329148002834
-0.5338361592906317,-0.5338361592906317
-0.5456930643745214,-0.5456930643745214
-0.5338361592906317,-0.5338361592906317
-0.5464341209422644,-0.5464341209422644
-0.5805227230584472,-0.5805227230584472
-0.6398072484778956,-0.6398072484778956
-0.6738958505940783,-0.6738958505940783
-0.6976096607618577,-0.6976096607618577
-0.7205824143618939,-0.7205824143618939
-0.7872775054587733,-0.7872775054587733
-0.8606421056653406,-0.8606421056653406
-0.9273371967622199,-0.9273371967622199
-0.9540152332009717,-0.9540152332009717
-0.9799522130719803,-0.9799522130719803
-1.0007017969687872,-1.0007017969687872
-1.03479039908497,-1.03479039908497
-1.0473883607366028,-1.0473883607366028
-1.0562810395495201,-1.0562810395495201
-1.0473883607366028,-1.0473883607366028
-1.0518347001430615,-1.0518347001430615
-1.0473883607366028,-1.0473883607366028
-1.041459908194658,-1.041459908194658
-1.0007017969687872,-1.0007017969687872
-0.9451225543880545,-0.9451225543880545
-0.8606421056653406,-0.8606421056653406
-0.7650458084264802,-0.7650458084264802
-0.6272092868262628,-0.6272092868262628
-0.4708463510324678,-0.4708463510324678
-0.2996622838838108,-0.2996622838838108
-0.1551562531739055,-0.1551562531739055
-0.019542901276917435,-0.019542901276917435
0.08346396163937403,0.08346396163937403
0.16720335379434478,0.16720335379434478
0.21240780442667415,0.21240780442667415
0.2605764813299759,0.2605764813299759
0.30429881882681903,0.30429881882681903
0.353949608865607,0.353949608865607
0.37618130589790016,0.37618130589790016
0.4006361726334226,0.4006361726334226
0.4199036433947433,0.4199036433947433
0.44732273640123815,0.44732273640123815
0.44806379296898124,0.44806379296898124
0.44732273640123815,0.44732273640123815
0.43917111415606397,0.43917111415606397
0.44732273640123815,0.44732273640123815
0.4443585101302657,0.4443585101302657
0.44732273640123815,0.44732273640123815
0.4413942838592933,0.4413942838592933
0.44732273640123815,0.44732273640123815
0.4421353404270364,0.4421353404270364
0.44732273640123815,0.44732273640123815
0.4421353404270364,0.4421353404270364
0.44732273640123815,0.44732273640123815
0.4406532272915502,0.4406532272915502
0.44732273640123815,0.44732273640123815
0.4443585101302657,0.4443585101302657
0.44732273640123815,0.44732273640123815
0.425091039368945,0.425091039368945
0.4006361726334226,0.4006361726334226
0.3650654573817536,0.3650654573817536
0.353949608865607,0.353949608865607
0.3457979866204329,0.3457979866204329
0.353949608865607,0.353949608865607
0.3480211563236622,0.3480211563236622
0.353949608865607,0.353949608865607
0.3487622128914053,0.3487622128914053
0.353949608865607,0.353949608865607
0.3457979866204329,0.3457979866204329
0.353949608865607,0.353949608865607
0.353949608865607,0.353949608865607
0.353949608865607,0.353949608865607
0.32578945929136904,0.32578945929136904
0.30726304509779145,0.30726304509779145
0.2931829703106725,0.2931829703106725
0.30726304509779145,0.30726304509779145
0.32060206331716734,0.32060206331716734
0.353949608865607,0.353949608865607
0.37692236246564326,0.37692236246564326
0.4006361726334226,0.4006361726334226
0.40878779487859673,0.40878779487859673
0.44732273640123815,0.44732273640123815
0.4947503567367968,0.4947503567367968
0.5406958639368693,0.5406958639368693
0.5406958639368693,0.5406958639368693
0.5406958639368693,0.5406958639368693
0.5525527690207589,0.5525527690207589
0.5873824277046849,0.5873824277046849
0.582195031730483,0.582195031730483
0.5406958639368693,0.5406958639368693
0.4628849243238433,0.4628849243238433
0.4006361726334226,0.4006361726334226
0.34209270378171736,0.34209270378171736
0.30726304509779145,0.30726304509779145
0.2702102167106363,0.2702102167106363
0.2605764813299759,0.2605764813299759
0.25020168938157245,0.25020168938157245
0.2605764813299759,0.2605764813299759
0.25464802878803106,0.25464802878803106
0.2605764813299759,0.2605764813299759
0.25464802878803106,0.25464802878803106
0.2605764813299759,0.2605764813299759
0.24205006713639832,0.24205006713639832
0.21388991756216036,0.21388991756216036
0.1479358830330241,0.1479358830330241
0.07383022625871367,0.07383022625871367
-0.013614448734972601,-0.013614448734972601
-0.066229465044733,-0.066229465044733
-0.09068433178025542,-0.09068433178025542
-0.066229465044733,-0.066229465044733
-0.02398924068337606,-0.02398924068337606
0.07383022625871367,0.07383022625871367
0.2598354247622328,0.2598354247622328
0.6340689914725004,0.6340689914725004
1.2239500193960111,1.2239500193960111
1.9887203973068945,1.9887203973068945
2.709027381153192,2.709027381153192
3.1566255480700267,3.1566255480700267
3.172187735992632,3.172187735992632
2.8298196016953177,2.8298196016953177
2.282178798133164,2.282178798133164
1.7086010147000013,1.7086010147000013
1.1705939465185078,1.1705939465185078
0.7274421190081315,0.7274421190081315
0.3843329281430743,0.3843329281430743
0.16720335379434478,0.16720335379434478
0.025661549355411914,0.025661549355411914
-0.066229465044733,-0.066229465044733
-0.15293308347067616,-0.15293308347067616
-0.20628915634817965,-0.20628915634817965
-0.24185987159984865,-0.24185987159984865
-0.25297572011599523,-0.25297572011599523
-0.27965375655474695,-0.27965375655474695
-0.2996622838838108,-0.2996622838838108
-0.3285634900257918,-0.3285634900257918
-0.3463488476516263,-0.3463488476516263
-0.37969639320006604,-0.37969639320006604
-0.39303541141944187,-0.39303541141944187
-0.40341020336784533,-0.40341020336784533
-0.39303541141944187,-0.39303541141944187
-0.4130439387485057,-0.4130439387485057
-0.4397219751872575,-0.4397219751872575
-0.47751586014215575,-0.47751586014215575
-0.4871495955228161,-0.4871495955228161
-0.5041938965809075,-0.5041938965809075
-0.5338361592906317,-0.5338361592906317
-0.5908975150068507,-0.5908975150068507
-0.6272092868262628,-0.6272092868262628
-0.6531462666972714,-0.6531462666972714
-0.6738958505940783,-0.6738958505940783
-0.7257698103360957,-0.7257698103360957
-0.7672689781297094,-0.7672689781297094
-0.7976522974071767,-0.7976522974071767
-0.8139555418975251,-0.8139555418975251
-0.8613831622330836,-0.8613831622330836
-0.9073286694331562,-0.9073286694331562
-0.9458636109557975,-0.9458636109557975
-0.9540152332009717,-0.9540152332009717
-0.976987986801008,-0.976987986801008
-1.0007017969687872,-1.0007017969687872
-1.0229334940010804,-1.0229334940010804
-1.0007017969687872,-1.0007017969687872
-0.9629079120138889,-0.9629079120138889
-0.9073286694331562,-0.9073286694331562
-0.8561957662588819,-0.8561957662588819
-0.7672689781297094,-0.7672689781297094
-0.6464767575875835,-0.6464767575875835
-0.4871495955228161,-0.4871495955228161
-0.3419025082451677,-0.3419025082451677
-0.20628915634817965,-0.20628915634817965
-0.09587172775445715,-0.09587172775445715
0.027143662490898123,0.027143662490898123
0.14274848705882237,0.14274848705882237
0.2605764813299759,0.2605764813299759
0.34283376034946045,0.34283376034946045
0.4006361726334226,0.4006361726334226
0.4221268130979726,0.4221268130979726
0.44732273640123815,0.44732273640123815
0.46659020716255883,0.46659020716255883
0.4940093001690537,0.4940093001690537
0.4969735264400261,0.4969735264400261
0.4940093001690537,0.4940093001690537
0.4814113385174209,0.4814113385174209
0.4940093001690537,0.4940093001690537
0.5117946577948882,0.5117946577948882
0.5406958639368693,0.5406958639368693
0.5451422033433279,0.5451422033433279
0.5406958639368693,0.5406958639368693
0.5140178274981175,0.5140178274981175
0.4940093001690537,0.4940093001690537
0.4628849243238433,0.4628849243238433
0.44732273640123815,0.44732273640123815
0.4332426616141192,0.4332426616141192
0.44732273640123815,0.44732273640123815
0.4502869626722106,0.4502869626722106
0.44732273640123815,0.44732273640123815
0.4280552656399174,0.4280552656399174
0.44732273640123815,0.44732273640123815
0.4762239425432192,0.4762239425432192
0.4940093001690537,0.4940093001690537
0.4636259808915864,0.4636259808915864
0.44732273640123815,0.44732273640123815
0.4458406232657519,0.4458406232657519
0.44732273640123815,0.44732273640123815
0.3976719463624502,0.3976719463624502
0.353949608865607,0.353949608865607
0.3361642512397725,0.3361642512397725
0.353949608865607,0.353949608865607
0.3502443260268915,0.3502443260268915
0.353949608865607,0.353949608865607
0.3665475705172398,0.3665475705172398
0.4006361726334226,0.4006361726334226
0.403600398904395,0.403600398904395
0.4006361726334226,0.4006361726334226
0.39026138068501914,0.39026138068501914
0.4006361726334226,0.4006361726334226
0.39544877665922085,0.39544877665922085
0.4006361726334226,0.4006361726334226
0.4095288514463398,0.4095288514463398
0.44732273640123815,0.44732273640123815
0.4725186597045037,0.4725186597045037
0.4940093001690537,0.4940093001690537
0.5021609224142278,0.5021609224142278
0.5406958639368693,0.5406958639368693
0.5866413711369417,0.5866413711369417
0.6340689914725004,0.6340689914725004
0.6399974440144452,0.6399974440144452
0.6340689914725004,0.6340689914725004
0.6110962378724641,0.6110962378724641
0.5873824277046849,0.5873824277046849
0.5236515628787779,0.5236515628787779
0.44732273640123815,0.44732273640123815
0.37321707962692774,0.37321707962692774
0.353949608865607,0.353949608865607
0.3532085522978639,0.3532085522978639
0.353949608865607,0.353949608865607
0.31986100674942425,0.31986100674942425
0.30726304509779145,0.30726304509779145
0.30133459255584666,0.30133459255584666
0.30726304509779145,0.30726304509779145
0.2783618389558104,0.2783618389558104
0.2605764813299759,0.2605764813299759
0.2390858408654259,0.2390858408654259
0.21388991756216036,0.21388991756216036
0.14200743049107925,0.14200743049107925
0.07383022625871367,0.07383022625871367
0.015286757407008458,0.015286757407008458
-0.019542901276917435,-0.019542901276917435
-0.061783125638274365,-0.061783125638274365
-0.066229465044733,-0.066229465044733
-0.050667277122127805,-0.050667277122127805
-0.019542901276917435,-0.019542901276917435
0.03529528473607227,0.03529528473607227
0.2605764813299759,0.2605764813299759
0.7318884584145902,0.7318884584145902
1.428481632093108,1.428481632093108
2.1791719352168726,2.1791719352168726
2.8298196016953177,2.8298196016953177
3.166259283450687,3.166259283450687
3.0632524205343956,3.0632524205343956
2.5474770493851953,2.5474770493851953
1.8953472697712634,1.8953472697712634
1.329180052015532,1.329180052015532
0.9149294306471368,0.9149294306471368
0.5569991084272176,0.5569991084272176
0.2605764813299759,0.2605764813299759
0.04641113325221883,0.04641113325221883
-0.066229465044733,-0.066229465044733
-0.14774568749647443,-0.14774568749647443
-0.20628915634817965,-0.20628915634817965
-0.26038628579342626,-0.26038628579342626
-0.2996622838838108,-0.2996622838838108
-0.3559825830322867,-0.3559825830322867
-0.39303541141944187,-0.39303541141944187
-0.4100797124775333,-0.4100797124775333
-0.39303541141944187,-0.39303541141944187
-0.3922943548516988,-0.3922943548516988
-0.39303541141944187,-0.39303541141944187
-0.4048923165033316,-0.4048923165033316
-0.39303541141944187,-0.39303541141944187
-0.40637442963881776,-0.40637442963881776
-0.4397219751872575,-0.4397219751872575
-0.5049349531486506,-0.5049349531486506
-0.5338361592906317,-0.5338361592906317
-0.5375414421293472,-0.5375414421293472
-0.5338361592906317,-0.5338361592906317
-0.5753353270842455,-0.5753353270842455
-0.6272092868262628,-0.6272092868262628
-0.6805653597037663,-0.6805653597037663
-0.7205824143618939,-0.7205824143618939
-0.7895006751620026,-0.7895006751620026
-0.8606421056653406,-0.8606421056653406
-0.9258550836267337,-0.9258550836267337
-0.9540152332009717,-0.9540152332009717
-0.9814343262074665,-0.9814343262074665
-1.0007017969687872,-1.0007017969687872
-1.0318261728139977,-1.0318261728139977
-1.0473883607366028,-1.0473883607366028
-1.0740663971753546,-1.0740663971753546
-1.0940749245044183,-1.0940749245044183
-1.1140834518334821,-1.1140834518334821
-1.0940749245044183,-1.0940749245044183
-1.0562810395495201,-1.0562810395495201
-1.0007017969687872,-1.0007017969687872
-0.9510510069299992,-0.9510510069299992
-0.8606421056653406,-0.8606421056653406
-0.7361446022844991,-0.7361446022844991
-0.5805227230584472,-0.5805227230584472
-0.44194514489048675,-0.44194514489048675
-0.2996622838838108,-0.2996622838838108
-0.16256681885133653,-0.16256681885133653
-0.019542901276917435,-0.019542901276917435
0.08494607477486024,0.08494607477486024
0.16720335379434478,0.16720335379434478
0.21685414383313276,0.21685414383313276
0.2605764813299759,0.2605764813299759
0.28058500865903974,0.28058500865903974
0.30726304509779145,0.30726304509779145
0.3280126289945984,0.3280126289945984
0.353949608865607,0.353949608865607
0.353949608865607,0.353949608865607
0.353949608865607,0.353949608865607
0.34653904318817597,0.34653904318817597
0.353949608865607,0.353949608865607
0.35098538259463463,0.35098538259463463
0.353949608865607,0.353949608865607
0.3472800997559191,0.3472800997559191
0.353949608865607,0.353949608865607
0.3502443260268915,0.3502443260268915
0.353949608865607,0.353949608865607
0.3472800997559191,0.3472800997559191
0.353949608865607,0.353949608865607
0.3502443260268915,0.3502443260268915
0.353949608865607,0.353949608865607
0.3457979866204329,0.3457979866204329
0.353949608865607,0.353949608865607
0.3532085522978639,0.3532085522978639
0.353949608865607,0.353949608865607
0.3272715724268553,0.3272715724268553
0.30726304509779145,0.30726304509779145
0.2917008571751863,0.2917008571751863
0.30726304509779145,0.30726304509779145
0.31170938450425006,0.31170938450425006
0.30726304509779145,0.30726304509779145
0.2746565561170949,0.2746565561170949
0.2605764813299759,0.2605764813299759
0.2524248590848018,0.2524248590848018
0.2605764813299759,0.2605764813299759
0.2524248590848018,0.2524248590848018
0.2605764813299759,0.2605764813299759
0.2620585944654621,0.2620585944654621
0.2605764813299759,0.2605764813299759
0.22796999234927934,0.22796999234927934
0.21388991756216036,0.21388991756216036
0.2079614650202155,0.2079614650202155
0.21388991756216036,0.21388991756216036
0.19906878620729826,0.19906878620729826
0.21388991756216036,0.21388991756216036
0.2524248590848018,0.2524248590848018
0.30726304509779145,0.30726304509779145
0.3265305158591122,0.3265305158591122
0.353949608865607,0.353949608865607
0.3932256069559915,0.3932256069559915
0.44732273640123815,0.44732273640123815
0.4554743586464123,0.4554743586464123
0.44732273640123815,0.44732273640123815
0.44732273640123815,0.44732273640123815
0.4940093001690537,0.4940093001690537
0.5332852982594383,0.5332852982594383
0.5406958639368693,0.5406958639368693
0.4814113385174209,0.4814113385174209
0.4006361726334226,0.4006361726334226
0.31170938450425006,0.31170938450425006
0.2605764813299759,0.2605764813299759
0.2250057660783069,0.2250057660783069
0.21388991756216036,0.21388991756216036
0.1879529376911517,0.1879529376911517
0.16720335379434478,0.16720335379434478
0.1316326385426758,0.1316326385426758
0.12051679002652924,0.12051679002652924
0.11162411121361199,0.11162411121361199
0.12051679002652924,0.12051679002652924
0.10273143240069474,0.10273143240069474
0.07383022625871367,0.07383022625871367
0.020474153381210187,0.020474153381210187
-0.019542901276917435,-0.019542901276917435
-0.06993474788344851,-0.06993474788344851
-0.11291602881254854,-0.11291602881254854
-0.158861536012621,-0.158861536012621
-0.1596025925803641,-0.1596025925803641
-0.13070138643838305,-0.13070138643838305
-0.066229465044733,-0.066229465044733
0.018250983677980875,0.018250983677980875
0.21388991756216036,0.21388991756216036
0.5910877105434004,0.5910877105434004
1.1950488132540302,1.1950488132540302
1.9049810051519238,1.9049810051519238
2.5497002190884244,2.5497002190884244
2.903184201901885,2.903184201901885
2.8765061654631334,2.8765061654631334
2.4948620330754347,2.4948620330754347
1.942033833539079,1.942033833539079
1.3632686541317147,1.3632686541317147
0.8675018103115781,0.8675018103115781
0.46066175462061404,0.46066175462061404
0.16720335379434478,0.16720335379434478
-0.03806931547049504,-0.03806931547049504
-0.1596025925803641,-0.1596025925803641
-0.2485293807095366,-0.2485293807095366
-0.2996622838838108,-0.2996622838838108
-0.33523299913547977,-0.33523299913547977
-0.3463488476516263,-0.3463488476516263
-0.37080371438714876,-0.37080371438714876
-0.39303541141944187,-0.39303541141944187
-0.4256419004001385,-0.4256419004001385
-0.4397219751872575,-0.4397219751872575
-0.46417684192277986,-0.46417684192277986
-0.4871495955228161,-0.4871495955228161
-0.5234613673422283,-0.5234613673422283
-0.5338361592906317,-0.5338361592906317
-0.5390235552648334,-0.5390235552648334
-0.5338361592906317,-0.5338361592906317
-0.5582910260261541,-0.5582910260261541
-0.5805227230584472,-0.5805227230584472
-0.6086828726326852,-0.6086828726326852
-0.6272092868262628,-0.6272092868262628
-0.6709316243231059,-0.6709316243231059
-0.7205824143618939,-0.7205824143618939
-0.7798669397813422,-0.7798669397813422
-0.8139555418975251,-0.8139555418975251
-0.8435978046072492,-0.8435978046072492
-0.8606421056653406,-0.8606421056653406
-0.9021412734589545,-0.9021412734589545
-0.9540152332009717,-0.9540152332009717
-1.0184871545946217,-1.0184871545946217
-1.0473883607366028,-1.0473883607366028
-1.0555399829817769,-1.0555399829817769
-1.0473883607366028,-1.0473883607366028
-1.0688790012011529,-1.0688790012011529
-1.0940749245044183,-1.0940749245044183
-1.1163066215367115,-1.1163066215367115
-1.0940749245044183,-1.0940749245044183
-1.0570220961172632,-1.0570220961172632
-1.0007017969687872,-1.0007017969687872
-0.9458636109557975,-0.9458636109557975
-0.8606421056653406,-0.8606421056653406
-0.7717153175361681,-0.7717153175361681
-0.6738958505940783,-0.6738958505940783
-0.5797816664907042,-0.5797816664907042
-0.4397219751872575,-0.4397219751872575
-0.27594847371603143,-0.27594847371603143
-0.11291602881254854,-0.11291602881254854
-0.008427052760770872,-0.008427052760770872
0.07383022625871367,0.07383022625871367
0.14274848705882237,0.14274848705882237
0.21388991756216036,0.21388991756216036
0.24427323683962762,0.24427323683962762
0.2605764813299759,0.2605764813299759
0.27095127327837937,0.27095127327837937
0.30726304509779145,0.30726304509779145
0.33320002496880013,0.33320002496880013
0.353949608865607,0.353949608865607
0.3517264391623777,0.3517264391623777
0.353949608865607,0.353949608865607
0.3472800997559191,0.3472800997559191
0.353949608865607,0.353949608865607
0.35098538259463463,0.35098538259463463
0.353949608865607,0.353949608865607
0.3457979866204329,0.3457979866204329
0.353949608865607,0.353949608865607
0.35469066543335015,0.35469066543335015
0.353949608865607,0.353949608865607
0.32578945929136904,0.32578945929136904
0.30726304509779145,0.30726304509779145
0.29392402687841557,0.29392402687841557
0.30726304509779145,0.30726304509779145
0.30726304509779145,0.30726304509779145
0.30726304509779145,0.30726304509779145
0.2954061400139018,0.2954061400139018
0.30726304509779145,0.30726304509779145
0.31096832793650697,0.31096832793650697
0.30726304509779145,0.30726304509779145
0.2739154995493518,0.2739154995493518
0.2605764813299759,0.2605764813299759
0.2553890853557742,0.2553890853557742
0.2605764813299759,0.2605764813299759
0.23389844489122416,0.23389844489122416
0.21388991756216036,0.21388991756216036
0.2012919559105276,0.2012919559105276
0.21388991756216036,0.21388991756216036
0.21092569129118793,0.21092569129118793
0.21388991756216036,0.21388991756216036
0.2079614650202155,0.2079614650202155
0.21388991756216036,0.21388991756216036
0.2057382953169862,0.2057382953169862
0.21388991756216036,0.21388991756216036
0.21463097412990345,0.21463097412990345
0.21388991756216036,0.21388991756216036
0.19536350336858274,0.19536350336858274
0.21388991756216036,0.21388991756216036
0.2553890853557742,0.2553890853557742
0.30726304509779145,0.30726304509779145
0.32504840272362595,0.32504840272362595
0.353949608865607,0.353949608865607
0.39544877665922085,0.39544877665922085
0.44732273640123815,0.44732273640123815
0.45325118894318295,0.45325118894318295
0.44732273640123815,0.44732273640123815
0.45251013237543986,0.45251013237543986
0.4940093001690537,0.4940093001690537
0.4991966961432554,0.4991966961432554
0.44732273640123815,0.44732273640123815
0.33912847751074493,0.33912847751074493
0.2605764813299759,0.2605764813299759
0.2190773135363621,0.2190773135363621
0.21388991756216036,0.21388991756216036
0.1879529376911517,0.1879529376911517
0.16720335379434478,0.16720335379434478
0.13682003451687752,0.13682003451687752
0.12051679002652924,0.12051679002652924
0.08568713134260335,0.08568713134260335
0.07383022625871367,0.07383022625871367
0.06864283028451196,0.06864283028451196
0.07383022625871367,0.07383022625871367
0.03455422816832916,0.03455422816832916
-0.019542901276917435,-0.019542901276917435
-0.08105059639959507,-0.08105059639959507
-0.11291602881254854,-0.11291602881254854
-0.14700463092873134,-0.14700463092873134
-0.1596025925803641,-0.1596025925803641
-0.14774568749647443,-0.14774568749647443
-0.066229465044733,-0.066229465044733
0.06123226460708091,0.06123226460708091
0.2605764813299759,0.2605764813299759
0.5599633346981899,0.5599633346981899
1.0549891219505836,1.0549891219505836
1.7160115803774323,1.7160115803774323
2.409640527784978,2.409640527784978
2.875024052327647,2.875024052327647
2.9698792929987645,2.9698792929987645
2.681608288146697,2.681608288146697
2.175466652378157,2.175466652378157
1.6048530952159668,1.6048530952159668
1.1016756857183991,1.1016756857183991
0.6792734421048298,0.6792734421048298
0.353949608865607,0.353949608865607
0.09976720612972233,0.09976720612972233
-0.066229465044733,-0.066229465044733
-0.18183428961265724,-0.18183428961265724
-0.25297572011599523,-0.25297572011599523
-0.31522447180641594,-0.31522447180641594
-0.3463488476516263,-0.3463488476516263
-0.372285827522635,-0.372285827522635
-0.39303541141944187,-0.39303541141944187
-0.44268620145822984,-0.44268620145822984
-0.4871495955228161,-0.4871495955228161
-0.5249434804777144,-0.5249434804777144
-0.5338361592906317,-0.5338361592906317
-0.5427288381035489,-0.5427288381035489
-0.5338361592906317,-0.5338361592906317
-0.5353182724261178,-0.5353182724261178
-0.5338361592906317,-0.5338361592906317
-0.5597731391616403,-0.5597731391616403
-0.5805227230584472,-0.5805227230584472
-0.6086828726326852,-0.6086828726326852
-0.6272092868262628,-0.6272092868262628
-0.6590747192392162,-0.6590747192392162
-0.6738958505940783,-0.6738958505940783
-0.6946454344908852,-0.6946454344908852
-0.7205824143618939,-0.7205824143618939
-0.7754206003748836,-0.7754206003748836
-0.8139555418975251,-0.8139555418975251
-0.842115691471763,-0.842115691471763
-0.8606421056653406,-0.8606421056653406
-0.9095518391363855,-0.9095518391363855
-0.9540152332009717,-0.9540152332009717
-0.9903270050203837,-0.9903270050203837
-1.0007017969687872,-1.0007017969687872
-1.026638776839796,-1.026638776839796
-1.0473883607366028,-1.0473883607366028
-1.0644326617946942,-1.0644326617946942
-1.0473883607366028,-1.0473883607366028
-1.0296030031107684,-1.0296030031107684
-1.0007017969687872,-1.0007017969687872
-0.9725416473945493,-0.9725416473945493
-0.9073286694331562,-0.9073286694331562
-0.8272945601169008,-0.8272945601169008
-0.7205824143618939,-0.7205824143618939
-0.6027544200907403,-0.6027544200907403
-0.4397219751872575,-0.4397219751872575
-0.2685379080386004,-0.2685379080386004
-0.11291602881254854,-0.11291602881254854
-0.014355505302715706,-0.014355505302715706
0.07383022625871367,0.07383022625871367
0.1501590527362534,0.1501590527362534
0.21388991756216036,0.21388991756216036
0.23315738832348107,0.23315738832348107
0.2605764813299759,0.2605764813299759
0.30281670569133284,0.30281670569133284
0.353949608865607,0.353949608865607
0.35839594827206567,0.35839594827206567
0.353949608865607,0.353949608865607
0.3621012311107812,0.3621012311107812
0.4006361726334226,0.4006361726334226
0.41249307771731225,0.41249307771731225
0.4006361726334226,0.4006361726334226
0.3665475705172398,0.3665475705172398
0.353949608865607,0.353949608865607
0.3457979866204329,0.3457979866204329
0.353949608865607,0.353949608865607
0.3502443260268915,0.3502443260268915
0.353949608865607,0.353949608865607
0.3472800997559191,0.3472800997559191
0.353949608865607,0.353949608865607
0.3495032694591484,0.3495032694591484
0.353949608865607,0.353949608865607
0.3472800997559191,0.3472800997559191
0.353949608865607,0.353949608865607
0.35098538259463463,0.35098538259463463
0.353949608865607,0.353949608865607
0.3317179118333139,0.3317179118333139
0.30726304509779145,0.30726304509779145
0.27095127327837937,0.27095127327837937
0.2605764813299759,0.2605764813299759
0.25316591565254487,0.25316591565254487
0.2605764813299759,0.2605764813299759
0.25316591565254487,0.25316591565254487
0.2605764813299759,0.2605764813299759
0.2598354247622328,0.2598354247622328
0.2605764813299759,0.2605764813299759
0.23241633175573795,0.23241633175573795
0.21388991756216036,0.21388991756216036
0.20055089934278447,0.20055089934278447
0.21388991756216036,0.21388991756216036
0.21388991756216036,0.21388991756216036
0.21388991756216036,0.21388991756216036
0.20203301247827068,0.20203301247827068
0.21388991756216036,0.21388991756216036
0.22871104891702243,0.22871104891702243
0.2605764813299759,0.2605764813299759
0.2791028955235535,0.2791028955235535
0.30726304509779145,0.30726304509779145
0.32504840272362595,0.32504840272362595
0.353949608865607,0.353949608865607
0.3709939099236984,0.3709939099236984
0.4006361726334226,0.4006361726334226
0.4199036433947433,0.4199036433947433
0.44732273640123815,0.44732273640123815
0.46510809402707265,0.46510809402707265
0.4940093001690537,0.4940093001690537
0.4910450738980813,0.4910450738980813
0.44732273640123815,0.44732273640123815
0.34653904318817597,0.34653904318817597
0.2605764813299759,0.2605764813299759
0.21240780442667415,0.21240780442667415
0.21388991756216036,0.21388991756216036
0.19684561650406895,0.19684561650406895
0.16720335379434478,0.16720335379434478
0.12348101629750165,0.12348101629750165
0.12051679002652924,0.12051679002652924
0.12051679002652924,0.12051679002652924
0.12051679002652924,0.12051679002652924
0.08865135761357576,0.08865135761357576
0.07383022625871367,0.07383022625871367
0.05456275549739297,0.05456275549739297
0.027143662490898123,0.027143662490898123
-0.044738824580182975,-0.044738824580182975
-0.11291602881254854,-0.11291602881254854
-0.17368266736748308,-0.17368266736748308
-0.20628915634817965,-0.20628915634817965
-0.23370824935467452,-0.23370824935467452
-0.20628915634817965,-0.20628915634817965
-0.12477293389643822,-0.12477293389643822
0.027143662490898123,0.027143662490898123
0.24723746311060005,0.24723746311060005
0.6340689914725004,0.6340689914725004
1.2202447365572957,1.2202447365572957
1.942033833539079,1.942033833539079
2.5593339544690847,2.5593339544690847
2.8765061654631334,2.8765061654631334
2.7935078298759057,2.7935078298759057
2.409640527784978,2.409640527784978
1.856071271680879,1.856071271680879
1.2884219407896613,1.2884219407896613
0.7674591736662592,0.7674591736662592
0.353949608865607,0.353949608865607
0.041964793845760205,0.041964793845760205
-0.1596025925803641,-0.1596025925803641
-0.3018854535870401,-0.3018854535870401
-0.39303541141944187,-0.39303541141944187
-0.4612126156518075,-0.4612126156518075
-0.4871495955228161,-0.4871495955228161
-0.5071581228518799,-0.5071581228518799
-0.5338361592906317,-0.5338361592906317
-0.5879332887358782,-0.5879332887358782
-0.6272092868262628,-0.6272092868262628
-0.6568515495359869,-0.6568515495359869
-0.6738958505940783,-0.6738958505940783
-0.7087255092780043,-0.7087255092780043
-0.7205824143618939,-0.7205824143618939
-0.7228055840651232,-0.7228055840651232
-0.7205824143618939,-0.7205824143618939
-0.764304751858737,-0.764304751858737
-0.8139555418975251,-0.8139555418975251
-0.8539725965556526,-0.8539725965556526
-0.8606421056653406,-0.8606421056653406
-0.8799095764266612,-0.8799095764266612
-0.9073286694331562,-0.9073286694331562
-0.9569794594719441,-0.9569794594719441
-1.0007017969687872,-1.0007017969687872
-1.0533168132785475,-1.0533168132785475
-1.0940749245044183,-1.0940749245044183
-1.1429846579754632,-1.1429846579754632
-1.1874480520400494,-1.1874480520400494
-1.2445094077562684,-1.2445094077562684
-1.2808211795756805,-1.2808211795756805
-1.311945555420891,-1.311945555420891
-1.327507743343496,-1.327507743343496
-1.3571500060532202,-1.3571500060532202
-1.3741943071113116,-1.3741943071113116
-1.3860512121952013,-1.3860512121952013
-1.3741943071113116,-1.3741943071113116
-1.3741943071113116,-1.3741943071113116
-1.3741943071113116,-1.3741943071113116
-1.374935363679055,-1.374935363679055
-1.327507743343496,-1.327507743343496
-1.248955747162727,-1.248955747162727
-1.140761488272234,-1.140761488272234
-1.0362725122204561,-1.0362725122204561
-0.9073286694331562,-0.9073286694331562
-0.770974260968425,-0.770974260968425
-0.6272092868262628,-0.6272092868262628
-0.5101223491228524,-0.5101223491228524
-0.39303541141944187,-0.39303541141944187
-0.29151066163863665,-0.29151066163863665
-0.20628915634817965,-0.20628915634817965
-0.1751647805029693,-0.1751647805029693
-0.1596025925803641,-0.1596025925803641
-0.14626357436098822,-0.14626357436098822
-0.11291602881254854,-0.11291602881254854
-0.1047644065673744,-0.1047644065673744
-0.11291602881254854,-0.11291602881254854
-0.13144244300612615,-0.13144244300612615
-0.11291602881254854,-0.11291602881254854
-0.0862379923737968,-0.0862379923737968
-0.066229465044733,-0.066229465044733
-0.08846116207702612,-0.08846116207702612
-0.11291602881254854,-0.11291602881254854
-0.12773716016741063,-0.12773716016741063
-0.11291602881254854,-0.11291602881254854
-0.11069285910931924,-0.11069285910931924
-0.11291602881254854,-0.11291602881254854
-0.12551399046418132,-0.12551399046418132
-0.11291602881254854,-0.11291602881254854
-0.10846968940608992,-0.10846968940608992
-0.11291602881254854,-0.11291602881254854
-0.14552251779324513,-0.14552251779324513
-0.1596025925803641,-0.1596025925803641
-0.16478998855456584,-0.16478998855456584
-0.1596025925803641,-0.1596025925803641
-0.18479851588362964,-0.18479851588362964
-0.20628915634817965,-0.20628915634817965
-0.22185134427078484,-0.22185134427078484
-0.20628915634817965,-0.20628915634817965
-0.20332493007720726,-0.20332493007720726
-0.20628915634817965,-0.20628915634817965
-0.2329671927869314,-0.2329671927869314
-0.25297572011599523,-0.25297572011599523
-0.2841000959612056,-0.2841000959612056
-0.2996622838838108,-0.2996622838838108
-0.31300130210318666,-0.31300130210318666
-0.2996622838838108,-0.2996622838838108
-0.29669805761283835,-0.29669805761283835
-0.2996622838838108,-0.2996622838838108
-0.33004560316127807,-0.33004560316127807
-0.3463488476516263,-0.3463488476516263
-0.3559825830322867,-0.3559825830322867
-0.3463488476516263,-0.3463488476516263
-0.3522773001935712,-0.3522773001935712
-0.3463488476516263,-0.3463488476516263
-0.33597405570322286,-0.33597405570322286
-0.2996622838838108,-0.2996622838838108
-0.27594847371603143,-0.27594847371603143
-0.25297572011599523,-0.25297572011599523
-0.24185987159984865,-0.24185987159984865
-0.20628915634817965,-0.20628915634817965
-0.16404893198682274,-0.16404893198682274
-0.11291602881254854,-0.11291602881254854
-0.09883595402542956,-0.09883595402542956
-0.11291602881254854,-0.11291602881254854
-0.1618257622835934,-0.1618257622835934
-0.20628915634817965,-0.20628915634817965
-0.27002002117408663,-0.27002002117408663
-0.3463488476516263,-0.3463488476516263
-0.4397219751872575,-0.4397219751872575
-0.4871495955228161,-0.4871495955228161
-0.4975243874712196,-0.4975243874712196
-0.4871495955228161,-0.4871495955228161
-0.5123455188260817,-0.5123455188260817
-0.5338361592906317,-0.5338361592906317
-0.5464341209422644,-0.5464341209422644
-0.5338361592906317,-0.5338361592906317
-0.5501394037809799,-0.5501394037809799
-0.5805227230584472,-0.5805227230584472
-0.6301735130972352,-0.6301735130972352
-0.6738958505940783,-0.6738958505940783
-0.7405909416909577,-0.7405909416909577
-0.8139555418975251,-0.8139555418975251
-0.8984359906202389,-0.8984359906202389
-0.9540152332009717,-0.9540152332009717
-0.9814343262074665,-0.9814343262074665
-0.9540152332009717,-0.9540152332009717
-0.8932485946460371,-0.8932485946460371
-0.7672689781297094,-0.7672689781297094
-0.5271666501809438,-0.5271666501809438
-0.066229465044733,-0.066229465044733
0.609614124736978,0.609614124736978
1.3817950683252924,1.3817950683252924
1.9946488498488395,1.9946488498488395
2.269580836481531,2.269580836481531
2.1354495977200294,2.1354495977200294
1.7086010147000013,1.7086010147000013
1.1394695706732973,1.1394695706732973
0.5873824277046849,0.5873824277046849
0.09902614956197922,0.09902614956197922
-0.2996622838838108,-0.2996622838838108
-0.6160934383101162,-0.6160934383101162
-0.8139555418975251,-0.8139555418975251
-0.9280782533299631,-0.9280782533299631
-1.0007017969687872,-1.0007017969687872
-1.083700132556015,-1.083700132556015
-1.140761488272234,-1.140761488272234
-1.171144807549701,-1.171144807549701
-1.1874480520400494,-1.1874480520400494
-1.234875672375608,-1.234875672375608
-1.2808211795756805,-1.2808211795756805
-1.3141687251241203,-1.3141687251241203
-1.327507743343496,-1.327507743343496
-1.3578910626209635,-1.3578910626209635
-1.3741943071113116,-1.3741943071113116
-1.3816048727887427,-1.3816048727887427
-1.3741943071113116,-1.3741943071113116
-1.397908117279091,-1.397908117279091
-1.4208808708791272,-1.4208808708791272
-1.446817850750136,-1.446817850750136
-1.4675674346469427,-1.4675674346469427
-1.5164771681179876,-1.5164771681179876
-1.5609405621825738,-1.5609405621825738
-1.5950291642987566,-1.5950291642987566
-1.6076271259503896,-1.6076271259503896
-1.6454210109052878,-1.6454210109052878
-1.7010002534860207,-1.7010002534860207
-1.7780701365313034,-1.7780701365313034
-1.8418010013572104,-1.8418010013572104
-1.9003444702089156,-1.9003444702089156
-1.9351741288928415,-1.9351741288928415
-1.9648163916025656,-1.9648163916025656
-1.981860692660657,-1.981860692660657
-2.010020842234895,-2.010020842234895
-2.028547256428473,-2.028547256428473
-2.0418862746478483,-2.0418862746478483
-2.028547256428473,-2.028547256428473
-2.011502955370381,-2.011502955370381
-1.981860692660657,-1.981860692660657
-1.9514773733831898,-1.9514773733831898
-1.888487565125026,-1.888487565125026
-1.8062302861055415,-1.8062302861055415
-1.7010002534860207,-1.7010002534860207
-1.5979933905697292,-1.5979933905697292
-1.4675674346469427,-1.4675674346469427
-1.3171329513950927,-1.3171329513950927
-1.140761488272234,-1.140761488272234
-0.9866217221816682,-0.9866217221816682
-0.8606421056653406,-0.8606421056653406
-0.7820901094845716,-0.7820901094845716
-0.7205824143618939,-0.7205824143618939
-0.6768600768650508,-0.6768600768650508
-0.6272092868262628,-0.6272092868262628
-0.5960849109810524,-0.5960849109810524
-0.5805227230584472,-0.5805227230584472
-0.5886743453036214,-0.5886743453036214
-0.5805227230584472,-0.5805227230584472
-0.5619963088648696,-0.5619963088648696
-0.5338361592906317,-0.5338361592906317
-0.5308719330196593,-0.5308719330196593
-0.5338361592906317,-0.5338361592906317
-0.5405056684003197,-0.5405056684003197
-0.5338361592906317,-0.5338361592906317
-0.536059328993861,-0.536059328993861
-0.5338361592906317,-0.5338361592906317
-0.5382824986970903,-0.5382824986970903
-0.5338361592906317,-0.5338361592906317
-0.5382824986970903,-0.5382824986970903
-0.5338361592906317,-0.5338361592906317
-0.536800385561604,-0.536800385561604
-0.5338361592906317,-0.5338361592906317
-0.5419877815358058,-0.5419877815358058
-0.5338361592906317,-0.5338361592906317
-0.5316129895874023,-0.5316129895874023
-0.5338361592906317,-0.5338361592906317
-0.5627373654326128,-0.5627373654326128
-0.5805227230584472,-0.5805227230584472
-0.5894154018713644,-0.5894154018713644
-0.5805227230584472,-0.5805227230584472
-0.5849690624649059,-0.5849690624649059
-0.5805227230584472,-0.5805227230584472
-0.5812637796261904,-0.5812637796261904
-0.5805227230584472,-0.5805227230584472
-0.6064597029294558,-0.6064597029294558
-0.6272092868262628,-0.6272092868262628
-0.6398072484778956,-0.6398072484778956
-0.6272092868262628,-0.6272092868262628
-0.6264682302585197,-0.6264682302585197
-0.6272092868262628,-0.6272092868262628
-0.6383251353424093,-0.6383251353424093
-0.6272092868262628,-0.6272092868262628
-0.6109060423359145,-0.6109060423359145
-0.5805227230584472,-0.5805227230584472
-0.5605141957293834,-0.5605141957293834
-0.5338361592906317,-0.5338361592906317
-0.5167918582325403,-0.5167918582325403
-0.4871495955228161,-0.4871495955228161
-0.45380204997437645,-0.45380204997437645
-0.39303541141944187,-0.39303541141944187
-0.3396793385419384,-0.3396793385419384
-0.2996622838838108,-0.2996622838838108
-0.2989212273160677,-0.2989212273160677
-0.2996622838838108,-0.2996622838838108
-0.31522447180641594,-0.31522447180641594
-0.3463488476516263,-0.3463488476516263
-0.42045450442593674,-0.42045450442593674
-0.4871495955228161,-0.4871495955228161
-0.529389819884173,-0.529389819884173
-0.5338361592906317,-0.5338361592906317
-0.5531036300519524,-0.5531036300519524
-0.5805227230584472,-0.5805227230584472
-0.6197987211488317,-0.6197987211488317
-0.6272092868262628,-0.6272092868262628
-0.6316556262327214,-0.6316556262327214
-0.6272092868262628,-0.6272092868262628
-0.6509230969940422,-0.6509230969940422
-0.6738958505940783,-0.6738958505940783
-0.7035381133038026,-0.7035381133038026
-0.7205824143618939,-0.7205824143618939
-0.7598584124522784,-0.7598584124522784
-0.8139555418975251,-0.8139555418975251
-0.8932485946460371,-0.8932485946460371
-0.9540152332009717,-0.9540152332009717
-0.984398552478439,-0.984398552478439
-0.9540152332009717,-0.9540152332009717
-0.8999181037557251,-0.8999181037557251
-0.8139555418975251,-0.8139555418975251
-0.6538873232650145,-0.6538873232650145
-0.2996622838838108,-0.2996622838838108
0.2583533116267466,0.2583533116267466
0.9616159944149524,0.9616159944149524
1.6819229782612495,1.6819229782612495
2.316267400249347,2.316267400249347
2.6378859506498538,2.6378859506498538
2.4563270915527933,2.4563270915527933
1.7945635765582013,1.7945635765582013
1.008302558182768,1.008302558182768
0.3887792675495329,0.3887792675495329
-0.019542901276917435,-0.019542901276917435
-0.3574646961677729,-0.3574646961677729
-0.6272092868262628,-0.6272092868262628
-0.7895006751620026,-0.7895006751620026
-0.8606421056653406,-0.8606421056653406
-0.94882783722677,-0.94882783722677
-1.0473883607366028,-1.0473883607366028
-1.1192708478076838,-1.1192708478076838
-1.140761488272234,-1.140761488272234
-1.1666984681432426,-1.1666984681432426
-1.1874480520400494,-1.1874480520400494
-1.1993049571239391,-1.1993049571239391
-1.1874480520400494,-1.1874480520400494
-1.1904122783110218,-1.1904122783110218
-1.1874480520400494,-1.1874480520400494
-1.1904122783110218,-1.1904122783110218
-1.1874480520400494,-1.1874480520400494
-1.2133850319110582,-1.2133850319110582
-1.234134615807865,-1.234134615807865
-1.2608126522466168,-1.2608126522466168
-1.2808211795756805,-1.2808211795756805
-1.3282487999112393,-1.3282487999112393
-1.3741943071113116,-1.3741943071113116
-1.4134703052016961,-1.4134703052016961
-1.4208808708791272,-1.4208808708791272
-1.4371841153694755,-1.4371841153694755
-1.4675674346469427,-1.4675674346469427
-1.5238877337954186,-1.5238877337954186
-1.5609405621825738,-1.5609405621825738
-1.589100711756812,-1.589100711756812
-1.6076271259503896,-1.6076271259503896
-1.6535726331504619,-1.6535726331504619
-1.7010002534860207,-1.7010002534860207
-1.7550973829312673,-1.7550973829312673
-1.7943733810216518,-1.7943733810216518
-1.8351314922475224,-1.8351314922475224
-1.8418010013572104,-1.8418010013572104
-1.8269798700023483,-1.8269798700023483
-1.7943733810216518,-1.7943733810216518
-1.7802933062345327,-1.7802933062345327
-1.7476868172538362,-1.7476868172538362
-1.682473839292443,-1.682473839292443
-1.5609405621825738,-1.5609405621825738
-1.4260682668533289,-1.4260682668533289
-1.2808211795756805,-1.2808211795756805
-1.1466899408141789,-1.1466899408141789
-1.0007017969687872,-1.0007017969687872
-0.8621242188008268,-0.8621242188008268
-0.7205824143618939,-0.7205824143618939
-0.5990491372520248,-0.5990491372520248
-0.4871495955228161,-0.4871495955228161
-0.40711548620656085,-0.40711548620656085
-0.3463488476516263,-0.3463488476516263
-0.3211529243483608,-0.3211529243483608
-0.2996622838838108,-0.2996622838838108
-0.2848411525289487,-0.2848411525289487
-0.25297572011599523,-0.25297572011599523
-0.22926190994821588,-0.22926190994821588
-0.20628915634817965,-0.20628915634817965
-0.20703021291592277,-0.20703021291592277
-0.20628915634817965,-0.20628915634817965
-0.21369972202561072,-0.21369972202561072
-0.20628915634817965,-0.20628915634817965
-0.20777126948366587,-0.20777126948366587
-0.20628915634817965,-0.20628915634817965
-0.21666394829658311,-0.21666394829658311
-0.20628915634817965,-0.20628915634817965
-0.18998591185783137,-0.18998591185783137
-0.1596025925803641,-0.1596025925803641
-0.1551562531739055,-0.1551562531739055
-0.1596025925803641,-0.1596025925803641
-0.1751647805029693,-0.1751647805029693
-0.1596025925803641,-0.1596025925803641
-0.13662983898032788,-0.13662983898032788
-0.11291602881254854,-0.11291602881254854
-0.13070138643838305,-0.13070138643838305
-0.1596025925803641,-0.1596025925803641
-0.1973964775352624,-0.1973964775352624
-0.20628915634817965,-0.20628915634817965
-0.21369972202561072,-0.21369972202561072
-0.20628915634817965,-0.20628915634817965
-0.21147655232238138,-0.21147655232238138
-0.20628915634817965,-0.20628915634817965
-0.21147655232238138,-0.21147655232238138
-0.20628915634817965,-0.20628915634817965
-0.2122176088901245,-0.2122176088901245
-0.20628915634817965,-0.20628915634817965
-0.21147655232238138,-0.21147655232238138
-0.20628915634817965,-0.20628915634817965
-0.2122176088901245,-0.2122176088901245
-0.20628915634817965,-0.20628915634817965
-0.2122176088901245,-0.2122176088901245
-0.20628915634817965,-0.20628915634817965
-0.19887859067074862,-0.19887859067074862
-0.1596025925803641,-0.1596025925803641
-0.11588025508352097,-0.11588025508352097
-0.066229465044733,-0.066229465044733
-0.045479881147926074,-0.045479881147926074
-0.019542901276917435,-0.019542901276917435
0.013063587703779146,0.013063587703779146
0.07383022625871367,0.07383022625871367
0.1123651677813551,0.1123651677813551
0.12051679002652924,0.12051679002652924
0.0775355090974292,0.0775355090974292
0.027143662490898123,0.027143662490898123
-0.028435580089834683,-0.028435580089834683
-0.066229465044733,-0.066229465044733
-0.11736236821900717,-0.11736236821900717
-0.1596025925803641,-0.1596025925803641
-0.20110176037397792,-0.20110176037397792
-0.20628915634817965,-0.20628915634817965
-0.21147655232238138,-0.21147655232238138
-0.20628915634817965,-0.20628915634817965
-0.21888711799981242,-0.21888711799981242
-0.20628915634817965,-0.20628915634817965
-0.20184281694172104,-0.20184281694172104
-0.20628915634817965,-0.20628915634817965
-0.2544578332514814,-0.2544578332514814
-0.2996622838838108,-0.2996622838838108
-0.34783096078711256,-0.34783096078711256
-0.39303541141944187,-0.39303541141944187
-0.47158740760021095,-0.47158740760021095
-0.5338361592906317,-0.5338361592906317
-0.5605141957293834,-0.5605141957293834
-0.5338361592906317,-0.5338361592906317
-0.4923369914970178,-0.4923369914970178
-0.39303541141944187,-0.39303541141944187
-0.17887006334168482,-0.17887006334168482
0.2605764813299759,0.2605764813299759
0.9312326751374851,0.9312326751374851
1.7552875784678168,1.7552875784678168
2.4815230148560588,2.4815230148560588
2.8765061654631334,2.8765061654631334
2.8127753006372265,2.8127753006372265
2.409640527784978,2.409640527784978
1.8323574615130998,1.8323574615130998
1.2417353770218458,1.2417353770218458
0.6933535168919487,0.6933535168919487
0.2605764813299759,0.2605764813299759
-0.05214939025761402,-0.05214939025761402
-0.25297572011599523,-0.25297572011599523
-0.40118703366461606,-0.40118703366461606
-0.4871495955228161,-0.4871495955228161
-0.5271666501809438,-0.5271666501809438
-0.5338361592906317,-0.5338361592906317
-0.5694068745423007,-0.5694068745423007
-0.6272092868262628,-0.6272092868262628
-0.693163321355399,-0.693163321355399
-0.7205824143618939,-0.7205824143618939
-0.7279929800393249,-0.7279929800393249
-0.7205824143618939,-0.7205824143618939
-0.7405909416909577,-0.7405909416909577
-0.7672689781297094,-0.7672689781297094
-0.8058039196523509,-0.8058039196523509
-0.8139555418975251,-0.8139555418975251
-0.8184018813039836,-0.8184018813039836
-0.8139555418975251,-0.8139555418975251
-0.8369282954975612,-0.8369282954975612
-0.8606421056653406,-0.8606421056653406
-0.8917664815105509,-0.8917664815105509
-0.9073286694331562,-0.9073286694331562
-0.9317835361686786,-0.9317835361686786
-0.9540152332009717,-0.9540152332009717
-0.9992196838333011,-0.9992196838333011
-1.0473883607366028,-1.0473883607366028
-1.106672886156051,-1.106672886156051
-1.140761488272234,-1.140761488272234
-1.1681805812787287,-1.1681805812787287
-1.1874480520400494,-1.1874480520400494
-1.234875672375608,-1.234875672375608
-1.2808211795756805,-1.2808211795756805
-1.3223203473692944,-1.3223203473692944
-1.327507743343496,-1.327507743343496
-1.3304719696144685,-1.3304719696144685
-1.327507743343496,-1.327507743343496
-1.3393646484273858,-1.3393646484273858
-1.327507743343496,-1.327507743343496
-1.298606537201515,-1.298606537201515
-1.234134615807865,-1.234134615807865
-1.1585468458980683,-1.1585468458980683
-1.0473883607366028,-1.0473883607366028
-0.9191855745170457,-0.9191855745170457
-0.7672689781297094,-0.7672689781297094
-0.6286913999617489,-0.6286913999617489
-0.4871495955228161,-0.4871495955228161
-0.35375941332905736,-0.35375941332905736
-0.20628915634817965,-0.20628915634817965
-0.07956848326410887,-0.07956848326410887
0.027143662490898123,0.027143662490898123
0.08420501820711714,0.08420501820711714
0.12051679002652924,0.12051679002652924
0.13607897794913443,0.13607897794913443
0.16720335379434478,0.16720335379434478
0.19165822052986722,0.19165822052986722
0.21388991756216036,0.21388991756216036
0.21092569129118793,0.21092569129118793
0.21388991756216036,0.21388991756216036
0.21092569129118793,0.21092569129118793
0.21388991756216036,0.21388991756216036
0.2035151256137569,0.2035151256137569
0.21388991756216036,0.21388991756216036
0.23241633175573795,0.23241633175573795
0.2605764813299759,0.2605764813299759
0.2605764813299759,0.2605764813299759
0.2605764813299759,0.2605764813299759
0.25390697222028796,0.25390697222028796
0.2605764813299759,0.2605764813299759
0.25390697222028796,0.25390697222028796
0.2605764813299759,0.2605764813299759
0.2598354247622328,0.2598354247622328
0.2605764813299759,0.2605764813299759
0.23241633175573795,0.23241633175573795
0.21388991756216036,0.21388991756216036
0.2012919559105276,0.2012919559105276
0.21388991756216036,0.21388991756216036
0.21166674785893105,0.21166674785893105
0.21388991756216036,0.21388991756216036
0.2057382953169862,0.2057382953169862
0.21388991756216036,0.21388991756216036
0.20944357815570172,0.20944357815570172
0.21388991756216036,0.21388991756216036
0.20722040845247242,0.20722040845247242
0.21388991756216036,0.21388991756216036
0.20870252158795863,0.20870252158795863
0.21388991756216036,0.21388991756216036
0.20870252158795863,0.20870252158795863
0.21388991756216036,0.21388991756216036
0.20647935188472932,0.20647935188472932
0.21388991756216036,0.21388991756216036
0.2227825963750776,0.2227825963750776
0.2605764813299759,0.2605764813299759
0.2998524794203604,0.2998524794203604
0.353949608865607,0.353949608865607
0.39470772009147775,0.39470772009147775
0.44732273640123815,0.44732273640123815
0.49178613046582437,0.49178613046582437
0.5406958639368693,0.5406958639368693
0.553293825588502,0.553293825588502
0.5406958639368693,0.5406958639368693
0.49178613046582437,0.49178613046582437
0.44732273640123815,0.44732273640123815
0.39618983322696394,0.39618983322696394
0.353949608865607,0.353949608865607
0.2961471965816449,0.2961471965816449
0.2605764813299759,0.2605764813299759
0.2413090105686552,0.2413090105686552
0.2605764813299759,0.2605764813299759
0.2642817641686914,0.2642817641686914
0.2605764813299759,0.2605764813299759
0.22648787921379313,0.22648787921379313
0.21388991756216036,0.21388991756216036
0.20647935188472932,0.20647935188472932
0.21388991756216036,0.21388991756216036
0.17980131544597758,0.17980131544597758
0.12051679002652924,0.12051679002652924
0.036777397871558475,0.036777397871558475
-0.019542901276917435,-0.019542901276917435
-0.07215791758667782,-0.07215791758667782
-0.11291602881254854,-0.11291602881254854
-0.1603436491481072,-0.1603436491481072
-0.1596025925803641,-0.1596025925803641
-0.10698757627060372,-0.10698757627060372
0.027143662490898123,0.027143662490898123
0.24353218027188453,0.24353218027188453
0.6340689914725004,0.6340689914725004
1.2432174901573319,1.2432174901573319
2.03540696107471,2.03540696107471
2.7705350762758694,2.7705350762758694
3.203312111837842,3.203312111837842
3.18849098048298,3.18849098048298
2.8298196016953177,2.8298196016953177
2.28366091126865,2.28366091126865
1.7086010147000013,1.7086010147000013
1.1631833808410768,1.1631833808410768
0.7274421190081315,0.7274421190081315
0.41249307771731225,0.41249307771731225
0.21388991756216036,0.21388991756216036
0.056044868632879184,0.056044868632879184
-0.066229465044733,-0.066229465044733
-0.16330787541907962,-0.16330787541907962
-0.20628915634817965,-0.20628915634817965
-0.23593141905790382,-0.23593141905790382
-0.25297572011599523,-0.25297572011599523
-0.28335903939346246,-0.28335903939346246
-0.2996622838838108,-0.2996622838838108
-0.3255992637548194,-0.3255992637548194
-0.3463488476516263,-0.3463488476516263
-0.3826606194710384,-0.3826606194710384
-0.39303541141944187,-0.39303541141944187
-0.3997049205291298,-0.3997049205291298
-0.39303541141944187,-0.39303541141944187
-0.4174902781549643,-0.4174902781549643
-0.4397219751872575,-0.4397219751872575
-0.47158740760021095,-0.47158740760021095
-0.4871495955228161,-0.4871495955228161
-0.5153097450970541,-0.5153097450970541
-0.5338361592906317,-0.5338361592906317
-0.5597731391616403,-0.5597731391616403
-0.5805227230584472,-0.5805227230584472
-0.6264682302585197,-0.6264682302585197
-0.6738958505940783,-0.6738958505940783
-0.728734036607068,-0.728734036607068
-0.7672689781297094,-0.7672689781297094
-0.8161787116007543,-0.8161787116007543
-0.8606421056653406,-0.8606421056653406
-0.9169624048138165,-0.9169624048138165
-0.9540152332009717,-0.9540152332009717
-0.9895859484526407,-0.9895859484526407
-1.0007017969687872,-1.0007017969687872
-1.0103355323494476,-1.0103355323494476
-1.0007017969687872,-1.0007017969687872
-1.0029249666720166,-1.0029249666720166
-1.0007017969687872,-1.0007017969687872
-1.0014428535365303,-1.0014428535365303
-0.9540152332009717,-0.9540152332009717
-0.8621242188008268,-0.8621242188008268
-0.7205824143618939,-0.7205824143618939
-0.5827458927616765,-0.5827458927616765
-0.4397219751872575,-0.4397219751872575
-0.29595700104509526,-0.29595700104509526
-0.11291602881254854,-0.11291602881254854
0.06493754744579643,0.06493754744579643
0.21388991756216036,0.21388991756216036
0.2946650834461587,0.2946650834461587
0.353949608865607,0.353949608865607
0.39915405949793636,0.39915405949793636
0.44732273640123815,0.44732273640123815
0.46881337686578817,0.46881337686578817
0.4940093001690537,0.4940093001690537
0.5154999406336037,0.5154999406336037
0.5406958639368693,0.5406958639368693
0.5377316376658968,0.5377316376658968
0.5406958639368693,0.5406958639368693
0.5518117124530159,0.5518117124530159
0.5873824277046849,0.5873824277046849
0.610355181304721,0.610355181304721
0.6340689914725004,0.6340689914725004
0.6377742743112159,0.6377742743112159
0.6340689914725004,0.6340689914725004
0.6036856721950331,0.6036856721950331
0.5873824277046849,0.5873824277046849
0.5777486923240245,0.5777486923240245
0.5873824277046849,0.5873824277046849
0.58145397516274,0.58145397516274
0.5873824277046849,0.5873824277046849
0.5866413711369417,0.5866413711369417
0.5873824277046849,0.5873824277046849
0.5592222781304469,0.5592222781304469
0.5406958639368693,0.5406958639368693
0.5280979022852365,0.5280979022852365
0.5406958639368693,0.5406958639368693
0.5377316376658968,0.5377316376658968
0.5406958639368693,0.5406958639368693
0.5340263548271813,0.5340263548271813
0.5406958639368693,0.5406958639368693
0.5325442416916951,0.5325442416916951
0.5406958639368693,0.5406958639368693
0.553293825588502,0.553293825588502
0.5873824277046849,0.5873824277046849
0.5962751065176021,0.5962751065176021
0.5873824277046849,0.5873824277046849
0.5518117124530159,0.5518117124530159
0.5406958639368693,0.5406958639368693
0.5481064296143003,0.5481064296143003
0.5873824277046849,0.5873824277046849
0.6118372944402073,0.6118372944402073
0.6340689914725004,0.6340689914725004
0.6444437834209038,0.6444437834209038
0.680755555240316,0.680755555240316
0.7074335916790677,0.7074335916790677
0.7274421190081315,0.7274421190081315
0.7326295149823332,0.7326295149823332
0.774128682775947,0.774128682775947
0.8156278505695609,0.8156278505695609
0.8208152465437626,0.8208152465437626
0.7496738160404246,0.7496738160404246
0.680755555240316,0.680755555240316
0.6422206137176745,0.6422206137176745
0.6340689914725004,0.6340689914725004
0.588864540840171,0.588864540840171
0.5406958639368693,0.5406958639368693
0.49993775271099855,0.49993775271099855
0.4940093001690537,0.4940093001690537
0.4673312637303019,0.4673312637303019
0.44732273640123815,0.44732273640123815
0.42953737877540366,0.42953737877540366
0.44732273640123815,0.44732273640123815
0.45102801923995367,0.45102801923995367
0.44732273640123815,0.44732273640123815
0.4058235686076243,0.4058235686076243
0.353949608865607,0.353949608865607
0.2746565561170949,0.2746565561170949
0.21388991756216036,0.21388991756216036
0.17980131544597758,0.17980131544597758
0.21388991756216036,0.21388991756216036
0.2731744429816087,0.2731744429816087
0.353949608865607,0.353949608865607
0.45325118894318295,0.45325118894318295
0.680755555240316,0.680755555240316
1.1053809685571145,1.1053809685571145
1.7552875784678168,1.7552875784678168
2.497085202778664,2.497085202778664
3.1566255480700267,3.1566255480700267
3.501957908638313,3.501957908638313
3.43674493067692,3.43674493067692
2.9995215557084887,2.9995215557084887
2.409640527784978,2.409640527784978
1.8256879524034118,1.8256879524034118
1.3351085045574769,1.3351085045574769
0.9119652043761644,0.9119652043761644
0.5873824277046849,0.5873824277046849
0.35543172200109324,0.35543172200109324
0.21388991756216036,0.21388991756216036
0.10124931926520853,0.10124931926520853
0.027143662490898123,0.027143662490898123
-0.030658749793063995,-0.030658749793063995
-0.066229465044733,-0.066229465044733
-0.10624651970286061,-0.10624651970286061
-0.11291602881254854,-0.11291602881254854
-0.10921074597383303,-0.10921074597383303
-0.11291602881254854,-0.11291602881254854
-0.16627210169005205,-0.16627210169005205
-0.20628915634817965,-0.20628915634817965
-0.22185134427078484,-0.22185134427078484
-0.20628915634817965,-0.20628915634817965
-0.22703874024498658,-0.22703874024498658
-0.25297572011599523,-0.25297572011599523
-0.2863232656644349,-0.2863232656644349
-0.2996622838838108,-0.2996622838838108
-0.3293045465935349,-0.3293045465935349
-0.3463488476516263,-0.3463488476516263
-0.37006265781940567,-0.37006265781940567
-0.39303541141944187,-0.39303541141944187
-0.44639148429694536,-0.44639148429694536
-0.4871495955228161,-0.4871495955228161
-0.5175329148002834,-0.5175329148002834
-0.5338361592906317,-0.5338361592906317
-0.579040609922961,-0.579040609922961
-0.6272092868262628,-0.6272092868262628
-0.6813064162715093,-0.6813064162715093
-0.7205824143618939,-0.7205824143618939
-0.7746795438071405,-0.7746795438071405
-0.8139555418975251,-0.8139555418975251
-0.8487852005814509,-0.8487852005814509
-0.8606421056653406,-0.8606421056653406
-0.8754632370202027,-0.8754632370202027
-0.8606421056653406,-0.8606421056653406
-0.8287766732523871,-0.8287766732523871
-0.7672689781297094,-0.7672689781297094
-0.7102076224134904,-0.7102076224134904
-0.6272092868262628,-0.6272092868262628
-0.5271666501809438,-0.5271666501809438
-0.39303541141944187,-0.39303541141944187
-0.26186839892891245,-0.26186839892891245
-0.11291602881254854,-0.11291602881254854
0.03974162414253089,0.03974162414253089
0.21388991756216036,0.21388991756216036
0.3524674957301208,0.3524674957301208
0.44732273640123815,0.44732273640123815
0.4895629607625951,0.4895629607625951
0.5406958639368693,0.5406958639368693
0.5918287671111434,0.5918287671111434
0.6340689914725004,0.6340689914725004
0.6318458217692711,0.6318458217692711
0.6340689914725004,0.6340689914725004
0.6488901228273625,0.6488901228273625
0.680755555240316,0.680755555240316
0.6822376683758021,0.6822376683758021
0.680755555240316,0.680755555240316
0.6755681592661142,0.6755681592661142
0.680755555240316,0.680755555240316
0.6570417450725365,0.6570417450725365
0.6340689914725004,0.6340689914725004
0.617765746982152,0.617765746982152
0.6340689914725004,0.6340689914725004
0.638515330878959,0.638515330878959
0.6340689914725004,0.6340689914725004
0.6036856721950331,0.6036856721950331
0.5873824277046849,0.5873824277046849
0.574784466053052,0.574784466053052
0.5873824277046849,0.5873824277046849
0.5866413711369417,0.5866413711369417
0.5873824277046849,0.5873824277046849
0.574043409485309,0.574043409485309
0.5873824277046849,0.5873824277046849
0.6051677853305193,0.6051677853305193
0.6340689914725004,0.6340689914725004
0.6340689914725004,0.6340689914725004
0.6340689914725004,0.6340689914725004
0.62443525609184,0.62443525609184
0.6340689914725004,0.6340689914725004
0.6303637086337849,0.6303637086337849
0.6340689914725004,0.6340689914725004
0.6259173692273262,0.6259173692273262
0.6340689914725004,0.6340689914725004
0.6303637086337849,0.6303637086337849
0.6340689914725004,0.6340689914725004
0.62443525609184,0.62443525609184
0.6340689914725004,0.6340689914725004
0.6466669531241331,0.6466669531241331
0.680755555240316,0.680755555240316
0.7022461957048659,0.7022461957048659
0.7274421190081315,0.7274421190081315
0.7415221937952504,0.7415221937952504
0.774128682775947,0.774128682775947
0.7963603798082401,0.7963603798082401
0.8208152465437626,0.8208152465437626
0.8326721516276523,0.8326721516276523
0.8675018103115781,0.8675018103115781
0.8867692810728989,0.8867692810728989
0.8675018103115781,0.8675018103115781
0.7756107959114332,0.7756107959114332
0.680755555240316,0.680755555240316
0.609614124736978,0.609614124736978
0.5873824277046849,0.5873824277046849
0.5584812215627037,0.5584812215627037
0.5406958639368693,0.5406958639368693
0.510312544659402,0.510312544659402
0.4940093001690537,0.4940093001690537
0.4584385849173847,0.4584385849173847
0.44732273640123815,0.44732273640123815
0.4421353404270364,0.4421353404270364
0.44732273640123815,0.44732273640123815
0.4095288514463398,0.4095288514463398
0.353949608865607,0.353949608865607
0.27613866925258107,0.27613866925258107
0.21388991756216036,0.21388991756216036
0.15979278811691375,0.15979278811691375
0.16720335379434478,0.16720335379434478
0.22796999234927934,0.22796999234927934
0.353949608865607,0.353949608865607
0.5192052234723192,0.5192052234723192
0.774128682775947,0.774128682775947
1.1276126655894076,1.1276126655894076
1.6152278871643702,1.6152278871643702
2.2095552544943398,2.2095552544943398
2.8765061654631334,2.8765061654631334
3.430075421567232,3.430075421567232
3.670918806083741,3.670918806083741
3.473056702496332,3.473056702496332
2.9698792929987645,2.9698792929987645
2.3451686063913275,2.3451686063913275
1.7552875784678168,1.7552875784678168
1.2180215668540664,1.2180215668540664
0.774128682775947,0.774128682775947
0.4325016050463761,0.4325016050463761
0.21388991756216036,0.21388991756216036
0.06641966058128264,0.06641966058128264
-0.019542901276917435,-0.019542901276917435
-0.08030953983185198,-0.08030953983185198
-0.11291602881254854,-0.11291602881254854
-0.16108470571585032,-0.16108470571585032
-0.20628915634817965,-0.20628915634817965
-0.2507525504127659,-0.2507525504127659
-0.25297572011599523,-0.25297572011599523
-0.251493606980509,-0.251493606980509
-0.25297572011599523,-0.25297572011599523
-0.28780537879992113,-0.28780537879992113
-0.2996622838838108,-0.2996622838838108
-0.3033675667225263,-0.3033675667225263
-0.2996622838838108,-0.2996622838838108
-0.34412567794839705,-0.34412567794839705
-0.39303541141944187,-0.39303541141944187
-0.4345345792130557,-0.4345345792130557
-0.4397219751872575,-0.4397219751872575
-0.46047155908406434,-0.46047155908406434
-0.4871495955228161,-0.4871495955228161
-0.5234613673422283,-0.5234613673422283
-0.5338361592906317,-0.5338361592906317
-0.5516215169164662,-0.5516215169164662
-0.5805227230584472,-0.5805227230584472
-0.6375840787746663,-0.6375840787746663
-0.6738958505940783,-0.6738958505940783
-0.7005738870328301,-0.7005738870328301
-0.7205824143618939,-0.7205824143618939
-0.770974260968425,-0.770974260968425
-0.8139555418975251,-0.8139555418975251
-0.8487852005814509,-0.8487852005814509
-0.8606421056653406,-0.8606421056653406
-0.8895433118073216,-0.8895433118073216
-0.9073286694331562,-0.9073286694331562
-0.9080697260008992,-0.9080697260008992
-0.8606421056653406,-0.8606421056653406
-0.8006165236781492,-0.8006165236781492
-0.7205824143618939,-0.7205824143618939
-0.6405483050456386,-0.6405483050456386
-0.5338361592906317,-0.5338361592906317
-0.42490084383239535,-0.42490084383239535
-0.2996622838838108,-0.2996622838838108
-0.17368266736748308,-0.17368266736748308
-0.019542901276917435,-0.019542901276917435
0.1153293940523275,0.1153293940523275
0.21388991756216036,0.21388991756216036
0.25464802878803106,0.25464802878803106
0.30726304509779145,0.30726304509779145
0.37618130589790016,0.37618130589790016
0.44732273640123815,0.44732273640123815
0.4584385849173847,0.4584385849173847
0.44732273640123815,0.44732273640123815
0.43472477474960536,0.43472477474960536
0.44732273640123815,0.44732273640123815
0.4458406232657519,0.4458406232657519
0.44732273640123815,0.44732273640123815
0.4421353404270364,0.4421353404270364
0.44732273640123815,0.44732273640123815
0.4399121707238071,0.4399121707238071
0.44732273640123815,0.44732273640123815
0.44954590610446743,0.44954590610446743
0.44732273640123815,0.44732273640123815
0.41397519085279844,0.41397519085279844
0.4006361726334226,0.4006361726334226
0.41101096458182607,0.41101096458182607
0.44732273640123815,0.44732273640123815
0.4539922455109261,0.4539922455109261
0.44732273640123815,0.44732273640123815
0.4199036433947433,0.4199036433947433
0.4006361726334226,0.4006361726334226
0.3672886270849829,0.3672886270849829
0.353949608865607,0.353949608865607
0.3443158734849467,0.3443158734849467
0.353949608865607,0.353949608865607
0.3480211563236622,0.3480211563236622
0.353949608865607,0.353949608865607
0.3517264391623777,0.3517264391623777
0.353949608865607,0.353949608865607
0.3280126289945984,0.3280126289945984
0.30726304509779145,0.30726304509779145
0.2917008571751863,0.2917008571751863
0.30726304509779145,0.30726304509779145
0.3102272713687639,0.3102272713687639
0.30726304509779145,0.30726304509779145
0.28947768747195696,0.28947768747195696
0.30726304509779145,0.30726304509779145
0.3317179118333139,0.3317179118333139
0.353949608865607,0.353949608865607
0.34283376034946045,0.34283376034946045
0.353949608865607,0.353949608865607
0.389520324117276,0.389520324117276
0.44732273640123815,0.44732273640123815
0.4732597162722468,0.4732597162722468
0.4940093001690537,0.4940093001690537
0.510312544659402,0.510312544659402
0.5406958639368693,0.5406958639368693
0.545883259911071,0.545883259911071
0.5406958639368693,0.5406958639368693
0.5043840921174572,0.5043840921174572
0.44732273640123815,0.44732273640123815
0.3472800997559191,0.3472800997559191
0.2605764813299759,0.2605764813299759
0.20647935188472932,0.20647935188472932
0.21388991756216036,0.21388991756216036
0.21981837010410518,0.21981837010410518
0.21388991756216036,0.21388991756216036
0.16275701438788617,0.16275701438788617
0.12051679002652924,0.12051679002652924
0.08124079193614472,0.08124079193614472
0.07383022625871367,0.07383022625871367
0.053080642361906766,0.053080642361906766
0.027143662490898123,0.027143662490898123
-0.02547135381886227,-0.02547135381886227
-0.066229465044733,-0.066229465044733
-0.11662131165126408,-0.11662131165126408
-0.1596025925803641,-0.1596025925803641
-0.20851232605140899,-0.20851232605140899
-0.20628915634817965,-0.20628915634817965
-0.14996885719970376,-0.14996885719970376
-0.019542901276917435,-0.019542901276917435
0.16127490125239996,0.16127490125239996
0.44732273640123815,0.44732273640123815
0.8719481497180368,0.8719481497180368
1.4751681958609235,1.4751681958609235
2.1732434826749274,2.1732434826749274
2.8298196016953177,2.8298196016953177
3.215910073489475,3.215910073489475
3.203312111837842,3.203312111837842
2.791284660172676,2.791284660172676
2.175466652378157,2.175466652378157
1.5270421556029408,1.5270421556029408
0.9616159944149524,0.9616159944149524
0.4799292253819347,0.4799292253819347
0.12051679002652924,0.12051679002652924
-0.1225497641932089,-0.1225497641932089
-0.25297572011599523,-0.25297572011599523
-0.3396793385419384,-0.3396793385419384
-0.39303541141944187,-0.39303541141944187
-0.4471325408646885,-0.4471325408646885
-0.4871495955228161,-0.4871495955228161
-0.5271666501809438,-0.5271666501809438
-0.5338361592906317,-0.5338361592906317
-0.5308719330196593,-0.5308719330196593
-0.5338361592906317,-0.5338361592906317
-0.5820048361939334,-0.5820048361939334
-0.6272092868262628,-0.6272092868262628
-0.650182040426299,-0.650182040426299
-0.6272092868262628,-0.6272092868262628
-0.6197987211488317,-0.6197987211488317
-0.6272092868262628,-0.6272092868262628
-0.6605568323747024,-0.6605568323747024
-0.6738958505940783,-0.6738958505940783
-0.6939043779231422,-0.6939043779231422
-0.7205824143618939,-0.7205824143618939
-0.7754206003748836,-0.7754206003748836
-0.8139555418975251,-0.8139555418975251
-0.842115691471763,-0.842115691471763
-0.8606421056653406,-0.8606421056653406
-0.9080697260008992,-0.9080697260008992
-0.9540152332009717,-0.9540152332009717
-1.005148136375246,-1.005148136375246
-1.0473883607366028,-1.0473883607366028
-1.105190773020565,-1.105190773020565
-1.140761488272234,-1.140761488272234
-1.168921637846472,-1.168921637846472
-1.1874480520400494,-1.1874480520400494
-1.2252419369949479,-1.2252419369949479
-1.234134615807865,-1.234134615807865
-1.2185724278852599,-1.2185724278852599
-1.1874480520400494,-1.1874480520400494
-1.191894391446508,-1.191894391446508
-1.1874480520400494,-1.1874480520400494
-1.148172053949665,-1.148172053949665
-1.0473883607366028,-1.0473883607366028
-0.9362298755751371,-0.9362298755751371
-0.8139555418975251,-0.8139555418975251
-0.6887169819489404,-0.6887169819489404
-0.5338361592906317,-0.5338361592906317
-0.386365902309754,-0.386365902309754
-0.25297572011599523,-0.25297572011599523
-0.1603436491481072,-0.1603436491481072
-0.066229465044733,-0.066229465044733
0.023438379652182602,0.023438379652182602
0.12051679002652924,0.12051679002652924
0.18054237201372067,0.18054237201372067
0.21388991756216036,0.21388991756216036
0.21240780442667415,0.21240780442667415
0.21388991756216036,0.21388991756216036
0.20722040845247242,0.20722040845247242
0.21388991756216036,0.21388991756216036
0.21092569129118793,0.21092569129118793
0.21388991756216036,0.21388991756216036
0.20647935188472932,0.20647935188472932
0.21388991756216036,0.21388991756216036
0.21240780442667415,0.21240780442667415
0.21388991756216036,0.21388991756216036
0.20203301247827068,0.20203301247827068
0.21388991756216036,0.21388991756216036
0.23315738832348107,0.23315738832348107
0.2605764813299759,0.2605764813299759
0.2598354247622328,0.2598354247622328
0.2605764813299759,0.2605764813299759
0.25390697222028796,0.25390697222028796
0.2605764813299759,0.2605764813299759
0.25316591565254487,0.25316591565254487
0.2605764813299759,0.2605764813299759
0.2605764813299759,0.2605764813299759
0.2605764813299759,0.2605764813299759
0.23093421862025174,0.23093421862025174
0.21388991756216036,0.21388991756216036
0.2035151256137569,0.2035151256137569
0.21388991756216036,0.21388991756216036
0.2079614650202155,0.2079614650202155
0.21388991756216036,0.21388991756216036
0.21314886099441724,0.21314886099441724
0.21388991756216036,0.21388991756216036
0.18498871142017928,0.18498871142017928
0.16720335379434478,0.16720335379434478
0.15608750527819823,0.15608750527819823
0.16720335379434478,0.16720335379434478
0.16201595782014305,0.16201595782014305
0.16720335379434478,0.16720335379434478
0.17757814574274824,0.17757814574274824
0.21388991756216036,0.21388991756216036
0.2368626711621966,0.2368626711621966
0.2605764813299759,0.2605764813299759
0.2739154995493518,0.2739154995493518
0.30726304509779145,0.30726304509779145
0.3309768552655708,0.3309768552655708
0.353949608865607,0.353949608865607
0.35098538259463463,0.35098538259463463
0.353949608865607,0.353949608865607
0.35098538259463463,0.35098538259463463
0.353949608865607,0.353949608865607
0.31986100674942425,0.31986100674942425
0.2605764813299759,0.2605764813299759
0.17535497603951894,0.17535497603951894
0.12051679002652924,0.12051679002652924
0.08420501820711714,0.08420501820711714
0.07383022625871367,0.07383022625871367
0.044929020116732624,0.044929020116732624
0.027143662490898123,0.027143662490898123
0.010099361432806729,0.010099361432806729
0.027143662490898123,0.027143662490898123
0.030107888761870538,0.030107888761870538
0.027143662490898123,0.027143662490898123
-0.003980713354312248,-0.003980713354312248
-0.019542901276917435,-0.019542901276917435
-0.04103354174146745,-0.04103354174146745
-0.066229465044733,-0.066229465044733
-0.13366561270935545,-0.13366561270935545
-0.20628915634817965,-0.20628915634817965
-0.27817164341926076,-0.27817164341926076
-0.2996622838838108,-0.2996622838838108
-0.2707610777418297,-0.2707610777418297
-0.1596025925803641,-0.1596025925803641
-0.0032396567865691445,-0.0032396567865691445
0.21388991756216036,0.21388991756216036
0.5288389588529796,0.5288389588529796
1.0549891219505836,1.0549891219505836
1.7649213138484772,1.7649213138484772
2.503013655320609,2.503013655320609
2.995816272869773,2.995816272869773
3.109938984302211,3.109938984302211
2.836489110805006,2.836489110805006
2.316267400249347,2.316267400249347
1.685628261099965,1.685628261099965
1.1016756857183991,1.1016756857183991
0.617024690414409,0.617024690414409
0.2605764813299759,0.2605764813299759
-0.0024986002188260403,-0.0024986002188260403
-0.1596025925803641,-0.1596025925803641
-0.2507525504127659,-0.2507525504127659
-0.2996622838838108,-0.2996622838838108
-0.3693216012516626,-0.3693216012516626
-0.4397219751872575,-0.4397219751872575
-0.5064170662841369,-0.5064170662841369
-0.5338361592906317,-0.5338361592906317
-0.5449520078067782,-0.5449520078067782
-0.5338361592906317,-0.5338361592906317
-0.5323540461551455,-0.5323540461551455
-0.5338361592906317,-0.5338361592906317
-0.5612552522971265,-0.5612552522971265
-0.5805227230584472,-0.5805227230584472
-0.6086828726326852,-0.6086828726326852
-0.6272092868262628,-0.6272092868262628
-0.6598157758069594,-0.6598157758069594
-0.6738958505940783,-0.6738958505940783
-0.6946454344908852,-0.6946454344908852
-0.7205824143618939,-0.7205824143618939
-0.7746795438071405,-0.7746795438071405
-0.8139555418975251,-0.8139555418975251
-0.842115691471763,-0.842115691471763
-0.8606421056653406,-0.8606421056653406
-0.9080697260008992,-0.9080697260008992
-0.9540152332009717,-0.9540152332009717
-1.005148136375246,-1.005148136375246
-1.0473883607366028,-1.0473883607366028
-1.105931829588308,-1.105931829588308
-1.140761488272234,-1.140761488272234
-1.1666984681432426,-1.1666984681432426
-1.1874480520400494,-1.1874480520400494
-1.241545181485296,-1.241545181485296
-1.2808211795756805,-1.2808211795756805
-1.2963833674982859,-1.2963833674982859
-1.2808211795756805,-1.2808211795756805
-1.283785405846653,-1.283785405846653
-1.2808211795756805,-1.2808211795756805
-1.2615537088143598,-1.2615537088143598
-1.1874480520400494,-1.1874480520400494
-1.0874054153947303,-1.0874054153947303
-0.9540152332009717,-0.9540152332009717
-0.8191429378717268,-0.8191429378717268
-0.6738958505940783,-0.6738958505940783
-0.5412467249680627,-0.5412467249680627
-0.39303541141944187,-0.39303541141944187
-0.2500114938450228,-0.2500114938450228
-0.11291602881254854,-0.11291602881254854
-0.02769452352209158,-0.02769452352209158
0.027143662490898123,0.027143662490898123
0.06123226460708091,0.06123226460708091
0.12051679002652924,0.12051679002652924
0.17461391947177585,0.17461391947177585
0.21388991756216036,0.21388991756216036
0.21092569129118793,0.21092569129118793
0.21388991756216036,0.21388991756216036
0.22722893578153622,0.22722893578153622
0.2605764813299759,0.2605764813299759
0.26650493387192076,0.26650493387192076
0.2605764813299759,0.2605764813299759
0.24723746311060005,0.24723746311060005
0.2605764813299759,0.2605764813299759
0.2650228207364345,0.2650228207364345
0.2605764813299759,0.2605764813299759
0.22871104891702243,0.22871104891702243
0.21388991756216036,0.21388991756216036
0.2057382953169862,0.2057382953169862
0.21388991756216036,0.21388991756216036
0.20647935188472932,0.20647935188472932
0.21388991756216036,0.21388991756216036
0.22722893578153622,0.22722893578153622
0.2605764813299759,0.2605764813299759
0.26872810357515003,0.26872810357515003
0.2605764813299759,0.2605764813299759
0.22796999234927934,0.22796999234927934
0.21388991756216036,0.21388991756216036
0.2042561821815,0.2042561821815
0.21388991756216036,0.21388991756216036
0.21018463472344484,0.21018463472344484
0.21388991756216036,0.21388991756216036
0.20647935188472932,0.20647935188472932
0.21388991756216036,0.21388991756216036
0.20944357815570172,0.20944357815570172
0.21388991756216036,0.21388991756216036
0.20722040845247242,0.20722040845247242
0.21388991756216036,0.21388991756216036
0.20944357815570172,0.20944357815570172
0.21388991756216036,0.21388991756216036
0.2049972387492431,0.2049972387492431
0.21388991756216036,0.21388991756216036
0.2250057660783069,0.2250057660783069
0.2605764813299759,0.2605764813299759
0.28429029149775525,0.28429029149775525
0.30726304509779145,0.30726304509779145
0.3168967804784518,0.3168967804784518
0.353949608865607,0.353949608865607
0.39841300293019327,0.39841300293019327
0.44732273640123815,0.44732273640123815
0.45695647178189847,0.45695647178189847
0.44732273640123815,0.44732273640123815
0.4058235686076243,0.4058235686076243
0.353949608865607,0.353949608865607
0.27613866925258107,0.27613866925258107
0.21388991756216036,0.21388991756216036
0.15608750527819823,0.15608750527819823
0.12051679002652924,0.12051679002652924
0.08049973536840162,0.08049973536840162
0.07383022625871367,0.07383022625871367
0.08420501820711714,0.08420501820711714
0.12051679002652924,0.12051679002652924
0.12496312943298786,0.12496312943298786
0.12051679002652924,0.12051679002652924
0.10495460210392406,0.10495460210392406
0.12051679002652924,0.12051679002652924
0.1145883374845844,0.1145883374845844
0.07383022625871367,0.07383022625871367
-0.01139127903174329,-0.01139127903174329
-0.066229465044733,-0.066229465044733
-0.10921074597383303,-0.10921074597383303
-0.1596025925803641,-0.1596025925803641
-0.22629768367724348,-0.22629768367724348
-0.20628915634817965,-0.20628915634817965
-0.10328229343188819,-0.10328229343188819
0.027143662490898123,0.027143662490898123
0.15534644871045514,0.15534644871045514
0.44732273640123815,0.44732273640123815
0.9994098793698507,0.9994098793698507
1.7552875784678168,1.7552875784678168
2.504495768456095,2.504495768456095
3.109938984302211,3.109938984302211
3.400433158857508,3.400433158857508
3.249998675605658,3.249998675605658
2.6549302517079454,2.6549302517079454
1.8953472697712634,1.8953472697712634
1.237289037615387,1.237289037615387
0.774128682775947,0.774128682775947
0.4065646251753674,0.4065646251753674
0.12051679002652924,0.12051679002652924
-0.07141686101893473,-0.07141686101893473
-0.1596025925803641,-0.1596025925803641
-0.2307440230837021,-0.2307440230837021
-0.2996622838838108,-0.2996622838838108
-0.36635737498069015,-0.36635737498069015
-0.39303541141944187,-0.39303541141944187
-0.4182313347227074,-0.4182313347227074
-0.4397219751872575,-0.4397219751872575
-0.47529269043892647,-0.47529269043892647
-0.4871495955228161,-0.4871495955228161
-0.4923369914970178,-0.4923369914970178
-0.4871495955228161,-0.4871495955228161
-0.5101223491228524,-0.5101223491228524
-0.5338361592906317,-0.5338361592906317
-0.5671837048390713,-0.5671837048390713
-0.5805227230584472,-0.5805227230584472
-0.6049775897939697,-0.6049775897939697
-0.6272092868262628,-0.6272092868262628
-0.6724137374585921,-0.6724137374585921
-0.7205824143618939,-0.7205824143618939
-0.7798669397813422,-0.7798669397813422
-0.8139555418975251,-0.8139555418975251
-0.8406335783362767,-0.8406335783362767
-0.8606421056653406,-0.8606421056653406
-0.9088107825686423,-0.9088107825686423
-0.9540152332009717,-0.9540152332009717
-1.0044070798075027,-1.0044070798075027
-1.0473883607366028,-1.0473883607366028
-1.1177887346721977,-1.1177887346721977
-1.1874480520400494,-1.1874480520400494
-1.2541431431369288,-1.2541431431369288
-1.2808211795756805,-1.2808211795756805
-1.2919370280918272,-1.2919370280918272
-1.2808211795756805,-1.2808211795756805
-1.2830443492789099,-1.2830443492789099
-1.2808211795756805,-1.2808211795756805
-1.2800801230079375,-1.2800801230079375
-1.234134615807865,-1.234134615807865
-1.1570647327625823,-1.1570647327625823
-1.0473883607366028,-1.0473883607366028
-0.9428993846848251,-0.9428993846848251
-0.8139555418975251,-0.8139555418975251
-0.6664852849166473,-0.6664852849166473
-0.4871495955228161,-0.4871495955228161
-0.31818869807738837,-0.31818869807738837
-0.1596025925803641,-0.1596025925803641
-0.035846145767265726,-0.035846145767265726
0.07383022625871367,0.07383022625871367
0.1501590527362534,0.1501590527362534
0.21388991756216036,0.21388991756216036
0.24353218027188453,0.24353218027188453
0.2605764813299759,0.2605764813299759
0.25390697222028796,0.25390697222028796
0.2605764813299759,0.2605764813299759
0.2731744429816087,0.2731744429816087
0.30726304509779145,0.30726304509779145
0.3309768552655708,0.3309768552655708
0.353949608865607,0.353949608865607
0.35469066543335015,0.35469066543335015
0.353949608865607,0.353949608865607
0.3309768552655708,0.3309768552655708
0.30726304509779145,0.30726304509779145
0.2731744429816087,0.2731744429816087
0.2605764813299759,0.2605764813299759
0.2516838025170587,0.2516838025170587
0.2605764813299759,0.2605764813299759
0.2568711984912604,0.2568711984912604
0.2605764813299759,0.2605764813299759
0.25316591565254487,0.25316591565254487
0.2605764813299759,0.2605764813299759
0.2568711984912604,0.2568711984912604
0.2605764813299759,0.2605764813299759
0.2524248590848018,0.2524248590848018
0.2605764813299759,0.2605764813299759
0.2583533116267466,0.2583533116267466
0.2605764813299759,0.2605764813299759
0.25020168938157245,0.25020168938157245
