ECG,PPG
-0.021722730671404712,-0.021722730671404712
0.06740751665957553,0.06740751665957553
-0.42193501770659053,-0.42193501770659053
-0.6875781077910806,-0.6875781077910806
-0.5818451673298197,-0.5818451673298197
-0.529415610076302,-0.529415610076302
-0.6622371551185471,-0.6622371551185471
-0.7365123612276973,-0.7365123612276973
-0.6622371551185471,-0.6622371551185471
-0.6141767276361557,-0.6141767276361557
-0.6622371551185471,-0.6622371551185471
-0.6971901932875589,-0.6971901932875589
-0.6622371551185471,-0.6622371551185471
-0.6211673352699582,-0.6211673352699582
-0.608933771910804,-0.608933771910804
-0.6045646421396774,-0.6045646421396774
-0.5818451673298197,-0.5818451673298197
-0.5390276955727802,-0.5390276955727802
-0.4752384009143336,-0.4752384009143336
-0.43154710320306877,-0.43154710320306877
-0.4481497963333494,-0.4481497963333494
-0.5171820467171478,-0.5171820467171478
-0.5556303887030609,-0.5556303887030609
-0.5320370879389779,-0.5320370879389779
-0.4752384009143336,-0.4752384009143336
-0.4420330146537723,-0.4420330146537723
-0.42193501770659053,-0.42193501770659053
-0.39222493526293045,-0.39222493526293045
-0.34154302991786323,-0.34154302991786323
-0.2987255581608237,-0.2987255581608237
-0.26202486808336123,-0.26202486808336123
-0.22707182991434938,-0.22707182991434938
-0.18163288029463398,-0.18163288029463398
-0.14143688640027033,-0.14143688640027033
-0.10124089250590669,-0.10124089250590669
-0.06454020242844424,-0.06454020242844424
-0.021722730671404712,-0.021722730671404712
0.016725611314508334,0.016725611314508334
0.058669257117322564,0.058669257117322564
0.10498203269126327,0.10498203269126327
0.16527602353280874,0.16527602353280874
0.2290653181912554,0.2290653181912554
0.2989713945292791,0.2989713945292791
0.3662559930046269,0.3662559930046269
0.43179293957152415,0.43179293957152415
0.4676198036947613,0.4676198036947613
0.45888154415250837,0.45888154415250837
0.40732581285321584,0.40732581285321584
0.3522747777370222,0.3522747777370222
0.30770965407153206,0.30770965407153206
0.2718827899482949,0.2718827899482949
0.22731766628280478,0.22731766628280478
0.19149080215956762,0.19149080215956762
0.16702367544125932,0.16702367544125932
0.13818741895182454,0.13818741895182454
0.06653369070535023,0.06653369070535023
-0.04793750929816361,-0.04793750929816361
-0.18163288029463398,-0.18163288029463398
-0.28823964671012015,-0.28823964671012015
-0.36164102686504507,-0.36164102686504507
-0.3948464131256063,-0.3948464131256063
-0.40620615053053516,-0.40620615053053516
-0.3948464131256063,-0.3948464131256063
-0.38086519785800155,-0.38086519785800155
-0.36863163449884745,-0.36863163449884745
-0.370379286407298,-0.370379286407298
-0.36863163449884745,-0.36863163449884745
-0.3625148528192704,-0.3625148528192704
-0.34154302991786323,-0.34154302991786323
-0.31882355510800553,-0.31882355510800553
-0.28823964671012015,-0.28823964671012015
-0.2681416497629383,-0.2681416497629383
-0.26202486808336123,-0.26202486808336123
-0.2786275612136419,-0.2786275612136419
-0.28823964671012015,-0.28823964671012015
-0.2768799093051913,-0.2768799093051913
-0.23493626350237706,-0.23493626350237706
-0.19037113983688694,-0.19037113983688694
-0.1545442757136498,-0.1545442757136498
-0.1466798421256221,-0.1466798421256221
-0.1545442757136498,-0.1545442757136498
-0.18250670624885926,-0.18250670624885926
-0.20872148487561817,-0.20872148487561817
-0.23056713373125057,-0.23056713373125057
-0.23493626350237706,-0.23493626350237706
-0.2296933077770253,-0.2296933077770253
-0.20872148487561817,-0.20872148487561817
-0.18512818411153517,-0.18512818411153517
-0.1545442757136498,-0.1545442757136498
-0.13007714899534148,-0.13007714899534148
-0.10124089250590669,-0.10124089250590669
-0.07764759174182369,-0.07764759174182369
-0.04793750929816361,-0.04793750929816361
-0.015605948991827637,-0.015605948991827637
0.03158065253633837,0.03158065253633837
0.09187464337788383,0.09187464337788383
0.16527602353280874,0.16527602353280874
0.2212008846032277,0.2212008846032277
0.245668011321536,0.245668011321536
0.2229485365116783,0.2229485365116783
0.19149080215956762,0.19149080215956762
0.15915924185323166,0.15915924185323166
0.13818741895182454,0.13818741895182454
0.12158472582154391,0.12158472582154391
0.13818741895182454,0.13818741895182454
0.16265454567013285,0.16265454567013285
0.16527602353280874,0.16527602353280874
0.13207063727224747,0.13207063727224747
0.11197264032506565,0.11197264032506565
0.0997390769659115,0.0997390769659115
0.058669257117322564,0.058669257117322564
-0.02958716425943238,-0.02958716425943238
-0.1283294970868909,-0.1283294970868909
-0.2602772161749107,-0.2602772161749107
-0.42193501770659053,-0.42193501770659053
-0.43504240701996993,-0.43504240701996993
0.03158065253633837,0.03158065253633837
1.0434711075292318,1.0434711075292318
2.193426063289722,2.193426063289722
2.900351260257987,2.900351260257987
3.0200654159868523,3.0200654159868523
2.924818386976295,2.924818386976295
3.0200654159868523,3.0200654159868523
3.200947388511489,3.200947388511489
3.0200654159868523,3.0200654159868523
2.2694489213073226,2.2694489213073226
1.2855208968496388,1.2855208968496388
0.5305352723989827,0.5305352723989827
0.13818741895182454,0.13818741895182454
-0.08201672151295017,-0.08201672151295017
-0.26202486808336123,-0.26202486808336123
-0.3869819795375786,-0.3869819795375786
-0.42193501770659053,-0.42193501770659053
-0.4201873657981399,-0.4201873657981399
-0.42193501770659053,-0.42193501770659053
-0.44028536274532176,-0.44028536274532176
-0.4752384009143336,-0.4752384009143336
-0.5425229993896814,-0.5425229993896814
-0.608933771910804,-0.608933771910804
-0.6447606360340411,-0.6447606360340411
-0.6351485505375628,-0.6351485505375628
-0.6141767276361557,-0.6141767276361557
-0.5818451673298197,-0.5818451673298197
-0.5565042146572862,-0.5565042146572862
-0.5285417841220766,-0.5285417841220766
-0.5101914390833454,-0.5101914390833454
-0.4752384009143336,-0.4752384009143336
-0.4210611917523652,-0.4210611917523652
-0.34154302991786323,-0.34154302991786323
-0.28561816884744423,-0.28561816884744423
-0.28823964671012015,-0.28823964671012015
-0.3625148528192704,-0.3625148528192704
-0.4481497963333494,-0.4481497963333494
-0.4953363978615154,-0.4953363978615154
-0.4752384009143336,-0.4752384009143336
-0.4166920619812387,-0.4166920619812387
-0.34154302991786323,-0.34154302991786323
-0.28037521312209246,-0.28037521312209246
-0.23493626350237706,-0.23493626350237706
-0.20959531082984345,-0.20959531082984345
-0.18163288029463398,-0.18163288029463398
-0.1466798421256221,-0.1466798421256221
-0.10124089250590669,-0.10124089250590669
-0.06279255051999365,-0.06279255051999365
-0.021722730671404712,-0.021722730671404712
0.025463870856761297,0.025463870856761297
0.08488403574408146,0.08488403574408146
0.14168272276872573,0.14168272276872573
0.19149080215956762,0.19149080215956762
0.2229485365116783,0.2229485365116783
0.245668011321536,0.245668011321536
0.2640183563602672,0.2640183563602672
0.2989713945292791,0.2989713945292791
0.34091504033209336,0.34091504033209336
0.37848955636378107,0.37848955636378107
0.38810164186025936,0.38810164186025936
0.37848955636378107,0.37848955636378107
0.36101303727927514,0.36101303727927514
0.3522747777370222,0.3522747777370222
0.32955530292716445,0.32955530292716445
0.2718827899482949,0.2718827899482949
0.1547901120821052,0.1547901120821052
0.005365873909579478,0.005365873909579478
-0.14056306044604502,-0.14056306044604502
-0.23493626350237706,-0.23493626350237706
-0.28649199480166954,-0.28649199480166954
-0.3153282512911043,-0.3153282512911043
-0.346785985643215,-0.346785985643215
-0.36863163449884745,-0.36863163449884745
-0.38348667572067746,-0.38348667572067746
-0.3948464131256063,-0.3948464131256063
-0.41494441007278815,-0.41494441007278815
-0.42193501770659053,-0.42193501770659053
-0.41407058411856285,-0.41407058411856285
-0.3948464131256063,-0.3948464131256063
-0.38523432762912807,-0.38523432762912807
-0.36863163449884745,-0.36863163449884745
-0.3502812894601162,-0.3502812894601162
-0.34154302991786323,-0.34154302991786323
-0.36601015663617154,-0.36601015663617154
-0.3948464131256063,-0.3948464131256063
-0.40795380243898577,-0.40795380243898577
-0.3948464131256063,-0.3948464131256063
-0.38436050167490277,-0.38436050167490277
-0.36863163449884745,-0.36863163449884745
-0.3397953780094126,-0.3397953780094126
-0.28823964671012015,-0.28823964671012015
-0.24716982686153122,-0.24716982686153122
-0.23493626350237706,-0.23493626350237706
-0.267267823808713,-0.267267823808713
-0.3153282512911043,-0.3153282512911043
-0.3502812894601162,-0.3502812894601162
-0.34154302991786323,-0.34154302991786323
-0.30571616579462607,-0.30571616579462607
-0.26202486808336123,-0.26202486808336123
-0.23231478563970118,-0.23231478563970118
-0.20872148487561817,-0.20872148487561817
-0.19299261769956283,-0.19299261769956283
-0.18163288029463398,-0.18163288029463398
-0.17726375052350749,-0.17726375052350749
-0.1545442757136498,-0.1545442757136498
-0.10910532609393436,-0.10910532609393436
-0.04793750929816361,-0.04793750929816361
-0.009489167312250562,-0.009489167312250562
0.005365873909579478,0.005365873909579478
0.016725611314508334,0.016725611314508334
0.058669257117322564,0.058669257117322564
0.10935116246238977,0.10935116246238977
0.13818741895182454,0.13818741895182454
0.11546794414196683,0.11546794414196683
0.08488403574408146,0.08488403574408146
0.06391221284267434,0.06391221284267434
0.058669257117322564,0.058669257117322564
0.04643569375816841,0.04643569375816841
0.058669257117322564,0.058669257117322564
0.07352429833915261,0.07352429833915261
0.058669257117322564,0.058669257117322564
0.0001229181842276991,0.0001229181842276991
-0.04793750929816361,-0.04793750929816361
-0.08813350319252725,-0.08813350319252725
-0.1545442757136498,-0.1545442757136498
-0.23581008945660237,-0.23581008945660237
-0.26202486808336123,-0.26202486808336123
-0.2777537352594166,-0.2777537352594166
-0.34154302991786323,-0.34154302991786323
-0.276006083350966,-0.276006083350966
0.2989713945292791,0.2989713945292791
1.4218377457087852,1.4218377457087852
2.5665497457439237,2.5665497457439237
3.1039527075924807,3.1039527075924807
3.0200654159868523,3.0200654159868523
2.860155266363623,2.860155266363623
3.0200654159868523,3.0200654159868523
3.2158024297333188,3.2158024297333188
2.8872438709446073,2.8872438709446073
1.9330259289305836,1.9330259289305836
0.885308609814453,0.885308609814453
0.24654183727576132,0.24654183727576132
0.005365873909579478,0.005365873909579478
-0.16240870930167745,-0.16240870930167745
-0.36863163449884745,-0.36863163449884745
-0.5154343948086972,-0.5154343948086972
-0.5556303887030609,-0.5556303887030609
-0.5704854299248909,-0.5704854299248909
-0.5818451673298197,-0.5818451673298197
-0.561747170382638,-0.561747170382638
-0.5285417841220766,-0.5285417841220766
-0.553008910840385,-0.553008910840385
-0.608933771910804,-0.608933771910804
-0.6351485505375628,-0.6351485505375628
-0.608933771910804,-0.608933771910804
-0.5888357749636222,-0.5888357749636222
-0.5818451673298197,-0.5818451673298197
-0.5800975154213692,-0.5800975154213692
-0.5556303887030609,-0.5556303887030609
-0.5311632619847526,-0.5311632619847526
-0.5014531795410925,-0.5014531795410925
-0.4726169230516577,-0.4726169230516577
-0.42193501770659053,-0.42193501770659053
-0.3712531123615233,-0.3712531123615233
-0.34154302991786323,-0.34154302991786323
-0.3502812894601162,-0.3502812894601162
-0.36863163449884745,-0.36863163449884745
-0.38436050167490277,-0.38436050167490277
-0.3948464131256063,-0.3948464131256063
-0.4088276283932111,-0.4088276283932111
-0.3948464131256063,-0.3948464131256063
-0.3502812894601162,-0.3502812894601162
-0.28823964671012015,-0.28823964671012015
-0.24716982686153122,-0.24716982686153122
-0.20872148487561817,-0.20872148487561817
-0.1466798421256221,-0.1466798421256221
-0.04793750929816361,-0.04793750929816361
0.04119273803281664,0.04119273803281664
0.08488403574408146,0.08488403574408146
0.06041690902577316,0.06041690902577316
0.005365873909579478,0.005365873909579478
-0.03046099021365768,-0.03046099021365768
0.005365873909579478,0.005365873909579478
0.09449612124055973,0.09449612124055973
0.19149080215956762,0.19149080215956762
0.254406270863789,0.254406270863789
0.2989713945292791,0.2989713945292791
0.33829356246941744,0.33829356246941744
0.37848955636378107,0.37848955636378107
0.3994613792651882,0.3994613792651882
0.4055781609447653,0.4055781609447653
0.3915969456771605,0.3915969456771605
0.3522747777370222,0.3522747777370222
0.26227070445181666,0.26227070445181666
0.13818741895182454,0.13818741895182454
0.013230307497607147,0.013230307497607147
-0.0750261138791478,-0.0750261138791478
-0.13444627876646797,-0.13444627876646797
-0.18163288029463398,-0.18163288029463398
-0.23843156731927825,-0.23843156731927825
-0.28823964671012015,-0.28823964671012015
-0.3249403367875826,-0.3249403367875826
-0.34154302991786323,-0.34154302991786323
-0.35727189709391854,-0.35727189709391854
-0.36863163449884745,-0.36863163449884745
-0.3764960680868751,-0.3764960680868751
-0.36863163449884745,-0.36863163449884745
-0.3563980711396933,-0.3563980711396933
-0.34154302991786323,-0.34154302991786323
-0.3397953780094126,-0.3397953780094126
-0.34154302991786323,-0.34154302991786323
-0.3494074635058909,-0.3494074635058909
-0.34154302991786323,-0.34154302991786323
-0.32843564060448377,-0.32843564060448377
-0.3153282512911043,-0.3153282512911043
-0.323192684879132,-0.323192684879132
-0.34154302991786323,-0.34154302991786323
-0.36513633068194623,-0.36513633068194623
-0.36863163449884745,-0.36863163449884745
-0.3529027673227921,-0.3529027673227921
-0.3153282512911043,-0.3153282512911043
-0.28212286503054307,-0.28212286503054307
-0.26202486808336123,-0.26202486808336123
-0.2550342604495589,-0.2550342604495589
-0.23493626350237706,-0.23493626350237706
-0.20610000701294226,-0.20610000701294226
-0.18163288029463398,-0.18163288029463398
-0.18774966197421106,-0.18774966197421106
-0.20872148487561817,-0.20872148487561817
-0.2296933077770253,-0.2296933077770253
-0.23493626350237706,-0.23493626350237706
-0.23318861159392645,-0.23318861159392645
-0.20872148487561817,-0.20872148487561817
-0.16328253525590275,-0.16328253525590275
-0.10124089250590669,-0.10124089250590669
-0.05318046502351539,-0.05318046502351539
-0.021722730671404712,-0.021722730671404712
-0.007741515403799969,-0.007741515403799969
0.005365873909579478,0.005365873909579478
0.022842392994085407,0.022842392994085407
0.058669257117322564,0.058669257117322564
0.0979914250574609,0.0979914250574609
0.13818741895182454,0.13818741895182454
0.15566393803633047,0.15566393803633047
0.16527602353280874,0.16527602353280874
0.1547901120821052,0.1547901120821052
0.13818741895182454,0.13818741895182454
0.11896324795886802,0.11896324795886802
0.13818741895182454,0.13818741895182454
0.17925723880041347,0.17925723880041347
0.19149080215956762,0.19149080215956762
0.1233323777299945,0.1233323777299945
0.005365873909579478,0.005365873909579478
-0.1239603673157644,-0.1239603673157644
-0.23493626350237706,-0.23493626350237706
-0.31969738106223083,-0.31969738106223083
-0.36863163449884745,-0.36863163449884745
-0.41581823602701345,-0.41581823602701345
-0.3948464131256063,-0.3948464131256063
-0.040946901664361234,-0.040946901664361234
0.885308609814453,0.885308609814453
2.123519986951698,2.123519986951698
3.0200654159868523,3.0200654159868523
3.207064170191066,3.207064170191066
3.0200654159868523,3.0200654159868523
2.954528469419955,2.954528469419955
3.0200654159868523,3.0200654159868523
2.8085995350643307,2.8085995350643307
2.140122680081979,2.140122680081979
1.2601799441771053,1.2601799441771053
0.5383997059870104,0.5383997059870104
0.10061290292013679,0.10061290292013679
-0.1283294970868909,-0.1283294970868909
-0.2716369535798395,-0.2716369535798395
-0.36863163449884745,-0.36863163449884745
-0.4271779734319423,-0.4271779734319423
-0.4481497963333494,-0.4481497963333494
-0.46824779328053123,-0.46824779328053123
-0.5014531795410925,-0.5014531795410925
-0.5486397810692585,-0.5486397810692585
-0.5818451673298197,-0.5818451673298197
-0.5975740345058751,-0.5975740345058751
-0.5818451673298197,-0.5818451673298197
-0.5556303887030609,-0.5556303887030609
-0.5285417841220766,-0.5285417841220766
-0.5302894360305273,-0.5302894360305273
-0.5285417841220766,-0.5285417841220766
-0.5136867429002466,-0.5136867429002466
-0.4752384009143336,-0.4752384009143336
-0.4464021444248988,-0.4464021444248988
-0.42193501770659053,-0.42193501770659053
-0.4088276283932111,-0.4088276283932111
-0.3948464131256063,-0.3948464131256063
-0.3948464131256063,-0.3948464131256063
-0.3948464131256063,-0.3948464131256063
-0.3930987612171557,-0.3930987612171557
-0.36863163449884745,-0.36863163449884745
-0.3240665108333573,-0.3240665108333573
-0.26202486808336123,-0.26202486808336123
-0.21046913678406876,-0.21046913678406876
-0.18163288029463398,-0.18163288029463398
-0.18075905434040868,-0.18075905434040868
-0.18163288029463398,-0.18163288029463398
-0.1755160986150569,-0.1755160986150569
-0.1545442757136498,-0.1545442757136498
-0.13444627876646797,-0.13444627876646797
-0.10124089250590669,-0.10124089250590669
-0.05667576884041657,-0.05667576884041657
0.005365873909579478,0.005365873909579478
0.06129073497999846,0.06129073497999846
0.11197264032506565,0.11197264032506565
0.15828541589900635,0.15828541589900635
0.21857940674055182,0.21857940674055182
0.277999571627872,0.277999571627872
0.325186173156038,0.325186173156038
0.3514009517827969,0.3514009517827969
0.37848955636378107,0.37848955636378107
0.40907346476166645,0.40907346476166645
0.43179293957152415,0.43179293957152415
0.41868555025814475,0.41868555025814475
0.37848955636378107,0.37848955636378107
0.32343852124758743,0.32343852124758743
0.2718827899482949,0.2718827899482949
0.20984114719829886,0.20984114719829886
0.13818741895182454,0.13818741895182454
0.04730951971239371,0.04730951971239371
-0.04793750929816361,-0.04793750929816361
-0.13532010472069325,-0.13532010472069325
-0.18163288029463398,-0.18163288029463398
-0.19124496579111222,-0.19124496579111222
-0.18163288029463398,-0.18163288029463398
-0.19561409556223872,-0.19561409556223872
-0.23493626350237706,-0.23493626350237706
-0.2926087764812466,-0.2926087764812466
-0.34154302991786323,-0.34154302991786323
-0.38086519785800155,-0.38086519785800155
-0.3948464131256063,-0.3948464131256063
-0.3861081535833534,-0.3861081535833534
-0.34154302991786323,-0.34154302991786323
-0.284744342893219,-0.284744342893219
-0.23493626350237706,-0.23493626350237706
-0.2218288741889976,-0.2218288741889976
-0.23493626350237706,-0.23493626350237706
-0.26552017190026245,-0.26552017190026245
-0.28823964671012015,-0.28823964671012015
-0.308337643657302,-0.308337643657302
-0.3153282512911043,-0.3153282512911043
-0.31270677342842845,-0.31270677342842845
-0.28823964671012015,-0.28823964671012015
-0.2602772161749107,-0.2602772161749107
-0.23493626350237706,-0.23493626350237706
-0.2244503520516735,-0.2244503520516735
-0.20872148487561817,-0.20872148487561817
-0.18600201006576045,-0.18600201006576045
-0.1545442757136498,-0.1545442757136498
-0.13706775662914386,-0.13706775662914386
-0.1283294970868909,-0.1283294970868909
-0.12920332304111617,-0.12920332304111617
-0.1283294970868909,-0.1283294970868909
-0.13881540853759444,-0.13881540853759444
-0.1545442757136498,-0.1545442757136498
-0.17726375052350749,-0.17726375052350749
-0.18163288029463398,-0.18163288029463398
-0.15978723143900156,-0.15978723143900156
-0.10124089250590669,-0.10124089250590669
-0.03046099021365768,-0.03046099021365768
0.03158065253633837,0.03158065253633837
0.05692160520887197,0.05692160520887197
0.058669257117322564,0.058669257117322564
0.057795431163097266,0.057795431163097266
0.08488403574408146,0.08488403574408146
0.11634177009619213,0.11634177009619213
0.13818741895182454,0.13818741895182454
0.12071089986731862,0.12071089986731862
0.08488403574408146,0.08488403574408146
0.05167864948352019,0.05167864948352019
0.058669257117322564,0.058669257117322564
0.06216456093422375,0.06216456093422375
0.03158065253633837,0.03158065253633837
-0.03220864212210827,-0.03220864212210827
-0.0750261138791478,-0.0750261138791478
-0.11172680395661025,-0.11172680395661025
-0.18163288029463398,-0.18163288029463398
-0.27950138716786715,-0.27950138716786715
-0.34154302991786323,-0.34154302991786323
-0.3930987612171557,-0.3930987612171557
-0.4752384009143336,-0.4752384009143336
-0.46038335969250355,-0.46038335969250355
-0.021722730671404712,-0.021722730671404712
0.9639529456947298,0.9639529456947298
2.140122680081979,2.140122680081979
2.8959821304868605,2.8959821304868605
3.0200654159868523,3.0200654159868523
2.9020989121664376,2.9020989121664376
3.0200654159868523,3.0200654159868523
3.24900781599388,3.24900781599388
3.0200654159868523,3.0200654159868523
2.0973052083249395,2.0973052083249395
0.9657005976031803,0.9657005976031803
0.21945323269477712,0.21945323269477712
-0.0750261138791478,-0.0750261138791478
-0.2550342604495589,-0.2550342604495589
-0.4752384009143336,-0.4752384009143336
-0.6334008986291123,-0.6334008986291123
-0.6622371551185471,-0.6622371551185471
-0.6604895032100965,-0.6604895032100965
-0.6884519337453059,-0.6884519337453059
-0.7172881902347408,-0.7172881902347408
-0.7155405383262902,-0.7155405383262902
-0.7277741016854443,-0.7277741016854443
-0.7688439215340332,-0.7688439215340332
-0.8151566971079739,-0.8151566971079739
-0.8221473047417763,-0.8221473047417763
-0.8029231337488197,-0.8029231337488197
-0.7688439215340332,-0.7688439215340332
-0.7548627062664285,-0.7548627062664285
-0.741755316953049,-0.741755316953049
-0.7199096680974166,-0.7199096680974166
-0.6622371551185471,-0.6622371551185471
-0.5949525566431992,-0.5949525566431992
-0.5285417841220766,-0.5285417841220766
-0.4944625719072901,-0.4944625719072901
-0.5014531795410925,-0.5014531795410925
-0.5468921291608079,-0.5468921291608079
-0.5818451673298197,-0.5818451673298197
-0.5783498635129186,-0.5783498635129186
-0.5285417841220766,-0.5285417841220766
-0.46387866350940477,-0.46387866350940477
-0.3948464131256063,-0.3948464131256063
-0.33717390014673676,-0.33717390014673676
-0.28823964671012015,-0.28823964671012015
-0.25940339022068537,-0.25940339022068537
-0.23493626350237706,-0.23493626350237706
-0.21134296273829406,-0.21134296273829406
-0.18163288029463398,-0.18163288029463398
-0.1711469688439304,-0.1711469688439304
-0.18163288029463398,-0.18163288029463398
-0.19211879174533752,-0.19211879174533752
-0.1545442757136498,-0.1545442757136498
-0.06978315815379602,-0.06978315815379602
0.03158065253633837,0.03158065253633837
0.10672968459971387,0.10672968459971387
0.16527602353280874,0.16527602353280874
0.22731766628280478,0.22731766628280478
0.2989713945292791,0.2989713945292791
0.33654591056096683,0.33654591056096683
0.325186173156038,0.325186173156038
0.2797472235363226,0.2797472235363226
0.245668011321536,0.245668011321536
0.2238223624659036,0.2238223624659036
0.19149080215956762,0.19149080215956762
0.12071089986731862,0.12071089986731862
0.03158065253633837,0.03158065253633837
-0.05667576884041657,-0.05667576884041657
-0.1283294970868909,-0.1283294970868909
-0.18512818411153517,-0.18512818411153517
-0.20872148487561817,-0.20872148487561817
-0.21309061464674464,-0.21309061464674464
-0.23493626350237706,-0.23493626350237706
-0.31358059938265376,-0.31358059938265376
-0.42193501770659053,-0.42193501770659053
-0.5224250024424996,-0.5224250024424996
-0.5818451673298197,-0.5818451673298197
-0.6115552497734799,-0.6115552497734799
-0.608933771910804,-0.608933771910804
-0.5870881230551716,-0.5870881230551716
-0.5556303887030609,-0.5556303887030609
-0.5320370879389779,-0.5320370879389779
-0.5014531795410925,-0.5014531795410925
-0.4656263154178553,-0.4656263154178553
-0.42193501770659053,-0.42193501770659053
-0.39047728335447984,-0.39047728335447984
-0.36863163449884745,-0.36863163449884745
-0.3695054604530727,-0.3695054604530727
-0.3948464131256063,-0.3948464131256063
-0.44465449251644823,-0.44465449251644823
-0.4752384009143336,-0.4752384009143336
-0.4665001413720806,-0.4665001413720806
-0.42193501770659053,-0.42193501770659053
-0.379117545949551,-0.379117545949551
-0.34154302991786323,-0.34154302991786323
-0.3065899917488514,-0.3065899917488514
-0.26202486808336123,-0.26202486808336123
-0.23406243754815176,-0.23406243754815176
-0.23493626350237706,-0.23493626350237706
-0.27251077953406483,-0.27251077953406483
-0.3153282512911043,-0.3153282512911043
-0.34416450778053914,-0.34416450778053914
-0.34154302991786323,-0.34154302991786323
-0.3214450329706814,-0.3214450329706814
-0.28823964671012015,-0.28823964671012015
-0.2532866085411083,-0.2532866085411083
-0.20872148487561817,-0.20872148487561817
-0.15803957953055098,-0.15803957953055098
-0.10124089250590669,-0.10124089250590669
-0.05580194288619127,-0.05580194288619127
-0.021722730671404712,-0.021722730671404712
0.0001229181842276991,0.0001229181842276991
0.03158065253633837,0.03158065253633837
0.06653369070535023,0.06653369070535023
0.11197264032506565,0.11197264032506565
0.14343037467717631,0.14343037467717631
0.16527602353280874,0.16527602353280874
0.15915924185323166,0.15915924185323166
0.13818741895182454,0.13818741895182454
0.08138873192718027,0.08138873192718027
0.005365873909579478,0.005365873909579478
-0.06803550624534543,-0.06803550624534543
-0.10124089250590669,-0.10124089250590669
-0.12308654136153911,-0.12308654136153911
-0.1545442757136498,-0.1545442757136498
-0.19299261769956283,-0.19299261769956283
-0.20872148487561817,-0.20872148487561817
-0.24280069709040472,-0.24280069709040472
-0.3153282512911043,-0.3153282512911043
-0.299599384115049,-0.299599384115049
0.08488403574408146,0.08488403574408146
0.9622052937862792,0.9622052937862792
2.0597306922932517,2.0597306922932517
2.833066661782639,2.833066661782639
3.0200654159868523,3.0200654159868523
2.924818386976295,2.924818386976295
3.0200654159868523,3.0200654159868523
3.2350266007262753,3.2350266007262753
3.0200654159868523,3.0200654159868523
2.1147817274094454,2.1147817274094454
0.9927892021841646,0.9927892021841646
0.2500371410926625,0.2500371410926625
-0.04793750929816361,-0.04793750929816361
-0.23581008945660237,-0.23581008945660237
-0.4481497963333494,-0.4481497963333494
-0.5844666451924957,-0.5844666451924957
-0.608933771910804,-0.608933771910804
-0.6360223764917882,-0.6360223764917882
-0.6884519337453059,-0.6884519337453059
-0.70068549710446,-0.70068549710446
-0.6622371551185471,-0.6622371551185471
-0.6587418513016459,-0.6587418513016459
-0.7155405383262902,-0.7155405383262902
-0.7880680925269897,-0.7880680925269897
-0.8221473047417763,-0.8221473047417763
-0.8326332161924799,-0.8326332161924799
-0.8221473047417763,-0.8221473047417763
-0.8072922635199463,-0.8072922635199463
-0.7688439215340332,-0.7688439215340332
-0.7207834940516419,-0.7207834940516419
-0.6622371551185471,-0.6622371551185471
-0.6264102909953099,-0.6264102909953099
-0.608933771910804,-0.608933771910804
-0.6019431642770016,-0.6019431642770016
-0.5818451673298197,-0.5818451673298197
-0.5573780406115114,-0.5573780406115114
-0.5285417841220766,-0.5285417841220766
-0.5058223093122189,-0.5058223093122189
-0.4752384009143336,-0.4752384009143336
-0.4464021444248988,-0.4464021444248988
-0.42193501770659053,-0.42193501770659053
-0.40620615053053516,-0.40620615053053516
-0.36863163449884745,-0.36863163449884745
-0.3004732100692743,-0.3004732100692743
-0.20872148487561817,-0.20872148487561817
-0.13619393067491856,-0.13619393067491856
-0.10124089250590669,-0.10124089250590669
-0.102114718460132,-0.102114718460132
-0.10124089250590669,-0.10124089250590669
-0.07852141769604899,-0.07852141769604899
-0.021722730671404712,-0.021722730671404712
0.04031891207859134,0.04031891207859134
0.08488403574408146,0.08488403574408146
0.10585585864548858,0.10585585864548858
0.13818741895182454,0.13818741895182454
0.1967337578849194,0.1967337578849194
0.2718827899482949,0.2718827899482949
0.3260599991102633,0.3260599991102633
0.3522747777370222,0.3522747777370222
0.34703182201167043,0.34703182201167043
0.325186173156038,0.325186173156038
0.2788733975820973,0.2788733975820973
0.21857940674055182,0.21857940674055182
0.14867333040252811,0.14867333040252811
0.08488403574408146,0.08488403574408146
0.020220915131409518,0.020220915131409518
-0.04793750929816361,-0.04793750929816361
-0.13007714899534148,-0.13007714899534148
-0.20872148487561817,-0.20872148487561817
-0.276006083350966,-0.276006083350966
-0.3153282512911043,-0.3153282512911043
-0.33542624823828615,-0.33542624823828615
-0.34154302991786323,-0.34154302991786323
-0.36076720091081976,-0.36076720091081976
-0.3948464131256063,-0.3948464131256063
-0.4437806665622229,-0.4437806665622229
-0.4752384009143336,-0.4752384009143336
-0.48572431236503716,-0.48572431236503716
-0.4752384009143336,-0.4752384009143336
-0.4577618818298277,-0.4577618818298277
-0.42193501770659053,-0.42193501770659053
-0.3799913719037763,-0.3799913719037763
-0.34154302991786323,-0.34154302991786323
-0.31882355510800553,-0.31882355510800553
-0.28823964671012015,-0.28823964671012015
-0.26289869403758653,-0.26289869403758653
-0.26202486808336123,-0.26202486808336123
-0.28911347266434545,-0.28911347266434545
-0.28823964671012015,-0.28823964671012015
-0.24105304518195414,-0.24105304518195414
-0.18163288029463398,-0.18163288029463398
-0.16765166502702922,-0.16765166502702922
-0.18163288029463398,-0.18163288029463398
-0.19211879174533752,-0.19211879174533752
-0.18163288029463398,-0.18163288029463398
-0.17289462075238102,-0.17289462075238102
-0.1545442757136498,-0.1545442757136498
-0.12920332304111617,-0.12920332304111617
-0.10124089250590669,-0.10124089250590669
-0.09075498105520313,-0.09075498105520313
-0.0750261138791478,-0.0750261138791478
-0.0496851612066142,-0.0496851612066142
-0.021722730671404712,-0.021722730671404712
-0.011236819220701156,-0.011236819220701156
0.005365873909579478,0.005365873909579478
0.038571260170140745,0.038571260170140745
0.08488403574408146,0.08488403574408146
0.11546794414196683,0.11546794414196683
0.13818741895182454,0.13818741895182454
0.15915924185323166,0.15915924185323166
0.19149080215956762,0.19149080215956762
0.21508410292365063,0.21508410292365063
0.245668011321536,0.245668011321536
0.26751366017716843,0.26751366017716843
0.2718827899482949,0.2718827899482949
0.23343444796238186,0.23343444796238186
0.19149080215956762,0.19149080215956762
0.1504209823109787,0.1504209823109787
0.11197264032506565,0.11197264032506565
0.07964108001872967,0.07964108001872967
0.08488403574408146,0.08488403574408146
0.07876725406450438,0.07876725406450438
0.005365873909579478,0.005365873909579478
-0.10386237036858259,-0.10386237036858259
-0.1545442757136498,-0.1545442757136498
-0.21309061464674464,-0.21309061464674464
-0.34154302991786323,-0.34154302991786323
-0.2978517322065984,-0.2978517322065984
0.37848955636378107,0.37848955636378107
1.675247272434121,1.675247272434121
2.8872438709446073,2.8872438709446073
3.296194417522046,3.296194417522046
3.0200654159868523,3.0200654159868523
2.7885015381171487,2.7885015381171487
3.0200654159868523,3.0200654159868523
3.3119232846981013,3.3119232846981013
3.0200654159868523,3.0200654159868523
2.050118606796773,2.050118606796773
0.9657005976031803,0.9657005976031803
0.2893593090328008,0.2893593090328008
0.03158065253633837,0.03158065253633837
-0.11871741159041263,-0.11871741159041263
-0.28823964671012015,-0.28823964671012015
-0.3974678909882822,-0.3974678909882822
-0.3948464131256063,-0.3948464131256063
-0.3764960680868751,-0.3764960680868751
-0.3948464131256063,-0.3948464131256063
-0.43679005892842054,-0.43679005892842054
-0.4752384009143336,-0.4752384009143336
-0.5320370879389779,-0.5320370879389779
-0.5818451673298197,-0.5818451673298197
-0.5949525566431992,-0.5949525566431992
-0.5556303887030609,-0.5556303887030609
-0.5136867429002466,-0.5136867429002466
-0.4752384009143336,-0.4752384009143336
-0.4507712741960253,-0.4507712741960253
-0.42193501770659053,-0.42193501770659053
-0.4009631948051834,-0.4009631948051834
-0.36863163449884745,-0.36863163449884745
-0.33455242228406085,-0.33455242228406085
-0.28823964671012015,-0.28823964671012015
-0.24716982686153122,-0.24716982686153122
-0.20872148487561817,-0.20872148487561817
-0.18163288029463398,-0.18163288029463398
-0.1545442757136498,-0.1545442757136498
-0.1466798421256221,-0.1466798421256221
-0.1545442757136498,-0.1545442757136498
-0.17289462075238102,-0.17289462075238102
-0.1545442757136498,-0.1545442757136498
-0.09687176273478021,-0.09687176273478021
-0.021722730671404712,-0.021722730671404712
0.02721152276521189,0.02721152276521189
0.058669257117322564,0.058669257117322564
0.08925316551520794,0.08925316551520794
0.13818741895182454,0.13818741895182454
0.18974315025111704,0.18974315025111704
0.245668011321536,0.245668011321536
0.2980975685750538,0.2980975685750538
0.3522747777370222,0.3522747777370222
0.4003352052194135,0.4003352052194135
0.45888154415250837,0.45888154415250837
0.522670838810955,0.522670838810955
0.5925769151489787,0.5925769151489787
0.6563662098074253,0.6563662098074253
0.7253984601912238,0.7253984601912238
0.7690897579024886,0.7690897579024886
0.752487064772208,0.752487064772208
0.664230643395453,0.664230643395453
0.5654883105679945,0.5654883105679945
0.48946545255039375,0.48946545255039375
0.43179293957152415,0.43179293957152415
0.36276068918772575,0.36276068918772575
0.2989713945292791,0.2989713945292791
0.245668011321536,0.245668011321536
0.19149080215956762,0.19149080215956762
0.11022498841661506,0.11022498841661506
0.03158065253633837,0.03158065253633837
-0.020848904717179418,-0.020848904717179418
-0.04793750929816361,-0.04793750929816361
-0.08813350319252725,-0.08813350319252725
-0.1283294970868909,-0.1283294970868909
-0.1545442757136498,-0.1545442757136498
-0.1545442757136498,-0.1545442757136498
-0.1545442757136498,-0.1545442757136498
-0.1545442757136498,-0.1545442757136498
-0.1746422726608316,-0.1746422726608316
-0.20872148487561817,-0.20872148487561817
-0.25940339022068537,-0.25940339022068537
-0.28823964671012015,-0.28823964671012015
-0.28736582075589484,-0.28736582075589484
-0.26202486808336123,-0.26202486808336123
-0.2454221749530806,-0.2454221749530806
-0.23493626350237706,-0.23493626350237706
-0.22881948182279999,-0.22881948182279999
-0.20872148487561817,-0.20872148487561817
-0.18600201006576045,-0.18600201006576045
-0.1545442757136498,-0.1545442757136498
-0.1274556711326656,-0.1274556711326656
-0.10124089250590669,-0.10124089250590669
-0.09687176273478021,-0.09687176273478021
-0.10124089250590669,-0.10124089250590669
-0.11260062991083555,-0.11260062991083555
-0.10124089250590669,-0.10124089250590669
-0.07065698410802132,-0.07065698410802132
-0.021722730671404712,-0.021722730671404712
0.009735003680705961,0.009735003680705961
0.005365873909579478,0.005365873909579478
-0.044442205481262424,-0.044442205481262424
-0.10124089250590669,-0.10124089250590669
-0.13881540853759444,-0.13881540853759444
-0.1283294970868909,-0.1283294970868909
-0.08463819937562606,-0.08463819937562606
-0.021722730671404712,-0.021722730671404712
0.03507595635323956,0.03507595635323956
0.08488403574408146,0.08488403574408146
0.1233323777299945,0.1233323777299945
0.16527602353280874,0.16527602353280874
0.21158879910674946,0.21158879910674946
0.2718827899482949,0.2718827899482949
0.3199432174306862,0.3199432174306862
0.3522747777370222,0.3522747777370222
0.34004121437786805,0.34004121437786805
0.2989713945292791,0.2989713945292791
0.23518209987083247,0.23518209987083247
0.19149080215956762,0.19149080215956762
0.15915924185323166,0.15915924185323166
0.13818741895182454,0.13818741895182454
0.11808942200464273,0.11808942200464273
0.11197264032506565,0.11197264032506565
0.08663168765253206,0.08663168765253206
0.03158065253633837,0.03158065253633837
-0.020848904717179418,-0.020848904717179418
-0.021722730671404712,-0.021722730671404712
-0.05143281311506479,-0.05143281311506479
-0.20872148487561817,-0.20872148487561817
-0.39222493526293045,-0.39222493526293045
-0.23493626350237706,-0.23493626350237706
0.507815797589125,0.507815797589125
1.6324298006770817,1.6324298006770817
2.5875215686453306,2.5875215686453306
3.0200654159868523,3.0200654159868523
3.041911064842485,3.041911064842485
3.0200654159868523,3.0200654159868523
3.0821070587368484,3.0821070587368484
3.0200654159868523,3.0200654159868523
2.5726665274235008,2.5726665274235008
1.7932137762545362,1.7932137762545362
0.973565031191208,0.973565031191208
0.37848955636378107,0.37848955636378107
0.03507595635323956,0.03507595635323956
-0.1545442757136498,-0.1545442757136498
-0.28561816884744423,-0.28561816884744423
-0.36863163449884745,-0.36863163449884745
-0.402710846713634,-0.402710846713634
-0.3948464131256063,-0.3948464131256063
-0.3992155428967328,-0.3992155428967328
-0.4481497963333494,-0.4481497963333494
-0.5390276955727802,-0.5390276955727802
-0.608933771910804,-0.608933771910804
-0.6290317688579857,-0.6290317688579857
-0.608933771910804,-0.608933771910804
-0.5949525566431992,-0.5949525566431992
-0.5818451673298197,-0.5818451673298197
-0.5739807337417921,-0.5739807337417921
-0.5556303887030609,-0.5556303887030609
-0.5460183032065826,-0.5460183032065826
-0.5285417841220766,-0.5285417841220766
-0.5093176131291202,-0.5093176131291202
-0.4752384009143336,-0.4752384009143336
-0.43941153679109646,-0.43941153679109646
-0.3948464131256063,-0.3948464131256063
-0.35901954900236915,-0.35901954900236915
-0.34154302991786323,-0.34154302991786323
-0.3625148528192704,-0.3625148528192704
-0.3948464131256063,-0.3948464131256063
-0.4228088436608158,-0.4228088436608158
-0.42193501770659053,-0.42193501770659053
-0.3965940650340569,-0.3965940650340569
-0.34154302991786323,-0.34154302991786323
-0.2829966909847684,-0.2829966909847684
-0.23493626350237706,-0.23493626350237706
-0.20435235510449168,-0.20435235510449168
-0.1545442757136498,-0.1545442757136498
-0.07852141769604899,-0.07852141769604899
0.005365873909579478,0.005365873909579478
0.0490571716208443,0.0490571716208443
0.058669257117322564,0.058669257117322564
0.058669257117322564,0.058669257117322564
0.08488403574408146,0.08488403574408146
0.13119681131802216,0.13119681131802216
0.19149080215956762,0.19149080215956762
0.2552800968180143,0.2552800968180143
0.325186173156038,0.325186173156038
0.38722781590603406,0.38722781590603406
0.43179293957152415,0.43179293957152415
0.4449003288849036,0.4449003288849036
0.43179293957152415,0.43179293957152415
0.38897546781448467,0.38897546781448467
0.325186173156038,0.325186173156038
0.2500371410926625,0.2500371410926625
0.19149080215956762,0.19149080215956762
0.14343037467717631,0.14343037467717631
0.08488403574408146,0.08488403574408146
-0.012984471129151747,-0.012984471129151747
-0.1283294970868909,-0.1283294970868909
-0.2296933077770253,-0.2296933077770253
-0.28823964671012015,-0.28823964671012015
-0.32057120701645614,-0.32057120701645614
-0.34154302991786323,-0.34154302991786323
-0.36863163449884745,-0.36863163449884745
-0.3948464131256063,-0.3948464131256063
-0.4324209291572941,-0.4324209291572941
-0.4752384009143336,-0.4752384009143336
-0.5189296986255985,-0.5189296986255985
-0.5285417841220766,-0.5285417841220766
-0.5084437871748949,-0.5084437871748949
-0.4752384009143336,-0.4752384009143336
-0.46038335969250355,-0.46038335969250355
-0.4481497963333494,-0.4481497963333494
-0.43766388488264585,-0.43766388488264585
-0.42193501770659053,-0.42193501770659053
-0.40533232457630985,-0.40533232457630985
-0.36863163449884745,-0.36863163449884745
-0.33542624823828615,-0.33542624823828615
-0.34154302991786323,-0.34154302991786323
-0.4088276283932111,-0.4088276283932111
-0.4752384009143336,-0.4752384009143336
-0.4892196161819383,-0.4892196161819383
-0.4481497963333494,-0.4481497963333494
-0.402710846713634,-0.402710846713634
-0.36863163449884745,-0.36863163449884745
-0.3494074635058909,-0.3494074635058909
-0.34154302991786323,-0.34154302991786323
-0.3563980711396933,-0.3563980711396933
-0.36863163449884745,-0.36863163449884745
-0.3642625047277209,-0.3642625047277209
-0.34154302991786323,-0.34154302991786323
-0.3328047703756103,-0.3328047703756103
-0.34154302991786323,-0.34154302991786323
-0.3563980711396933,-0.3563980711396933
-0.34154302991786323,-0.34154302991786323
-0.29697790625237314,-0.29697790625237314
-0.23493626350237706,-0.23493626350237706
-0.18774966197421106,-0.18774966197421106
-0.1545442757136498,-0.1545442757136498
-0.1248341932699897,-0.1248341932699897
-0.0750261138791478,-0.0750261138791478
-0.02696568639675649,-0.02696568639675649
0.005365873909579478,0.005365873909579478
-0.011236819220701156,-0.011236819220701156
-0.04793750929816361,-0.04793750929816361
-0.08201672151295017,-0.08201672151295017
-0.0750261138791478,-0.0750261138791478
-0.05667576884041657,-0.05667576884041657
-0.04793750929816361,-0.04793750929816361
-0.08289054746717547,-0.08289054746717547
-0.1545442757136498,-0.1545442757136498
-0.2541604344953336,-0.2541604344953336
-0.34154302991786323,-0.34154302991786323
-0.41407058411856285,-0.41407058411856285
-0.4752384009143336,-0.4752384009143336
-0.5320370879389779,-0.5320370879389779
-0.5818451673298197,-0.5818451673298197
-0.6447606360340411,-0.6447606360340411
-0.608933771910804,-0.608933771910804
-0.17638992456928218,-0.17638992456928218
0.8590938311876941,0.8590938311876941
2.153230069395358,2.153230069395358
3.0200654159868523,3.0200654159868523
3.168615828205153,3.168615828205153
3.0200654159868523,3.0200654159868523
3.0183177640784016,3.0183177640784016
3.0200654159868523,3.0200654159868523
2.597133654141809,2.597133654141809
1.739910393046793,1.739910393046793
0.8433649640116389,0.8433649640116389
0.21857940674055182,0.21857940674055182
-0.15716575357632567,-0.15716575357632567
-0.3948464131256063,-0.3948464131256063
-0.5556303887030609,-0.5556303887030609
-0.6622371551185471,-0.6622371551185471
-0.7461244467241755,-0.7461244467241755
-0.7950587001607922,-0.7950587001607922
-0.8055446116114957,-0.8055446116114957
-0.7950587001607922,-0.7950587001607922
-0.7898157444354403,-0.7898157444354403
-0.7688439215340332,-0.7688439215340332
-0.7338908833650214,-0.7338908833650214
-0.7155405383262902,-0.7155405383262902
-0.7496197505410767,-0.7496197505410767
-0.7950587001607922,-0.7950587001607922
-0.8265164345129028,-0.8265164345129028
-0.8221473047417763,-0.8221473047417763
-0.8134090451995233,-0.8134090451995233
-0.7950587001607922,-0.7950587001607922
-0.7819513108474127,-0.7819513108474127
-0.7688439215340332,-0.7688439215340332
-0.7644747917629068,-0.7644747917629068
-0.741755316953049,-0.741755316953049
-0.7041808009213613,-0.7041808009213613
-0.6622371551185471,-0.6622371551185471
-0.6377700284002388,-0.6377700284002388
-0.608933771910804,-0.608933771910804
-0.5687377780164403,-0.5687377780164403
-0.5285417841220766,-0.5285417841220766
-0.511939090991796,-0.511939090991796
-0.5014531795410925,-0.5014531795410925
-0.48310283450236124,-0.48310283450236124
-0.4481497963333494,-0.4481497963333494
-0.41494441007278815,-0.41494441007278815
-0.36863163449884745,-0.36863163449884745
-0.30571616579462607,-0.30571616579462607
-0.23493626350237706,-0.23493626350237706
-0.19211879174533752,-0.19211879174533752
-0.18163288029463398,-0.18163288029463398
-0.18949731388266164,-0.18949731388266164
-0.18163288029463398,-0.18163288029463398
-0.1519227978509739,-0.1519227978509739
-0.10124089250590669,-0.10124089250590669
-0.048811335252388906,-0.048811335252388906
0.005365873909579478,0.005365873909579478
0.05604777925464668,0.05604777925464668
0.11197264032506565,0.11197264032506565
0.16090689376168227,0.16090689376168227
0.19149080215956762,0.19149080215956762
0.17663576093773758,0.17663576093773758
0.11197264032506565,0.11197264032506565
0.006239699863804775,0.006239699863804775
-0.10124089250590669,-0.10124089250590669
-0.2008570512875905,-0.2008570512875905
-0.28823964671012015,-0.28823964671012015
-0.3695054604530727,-0.3695054604530727
-0.42193501770659053,-0.42193501770659053
-0.4429068406079976,-0.4429068406079976
-0.4481497963333494,-0.4481497963333494
-0.47698605282278417,-0.47698605282278417
-0.5285417841220766,-0.5285417841220766
-0.5967002085516498,-0.5967002085516498
-0.6622371551185471,-0.6622371551185471
-0.7260264497769937,-0.7260264497769937
-0.7688439215340332,-0.7688439215340332
-0.7854466146643139,-0.7854466146643139
-0.7688439215340332,-0.7688439215340332
-0.7426291429072743,-0.7426291429072743
-0.7155405383262902,-0.7155405383262902
-0.7024331490129107,-0.7024331490129107
-0.6884519337453059,-0.6884519337453059
-0.6631109810727723,-0.6631109810727723
-0.608933771910804,-0.608933771910804
-0.553008910840385,-0.553008910840385
-0.5285417841220766,-0.5285417841220766
-0.5652424741995391,-0.5652424741995391
-0.6351485505375628,-0.6351485505375628
-0.6980640192417842,-0.6980640192417842
-0.7155405383262902,-0.7155405383262902
-0.6971901932875589,-0.6971901932875589
-0.6622371551185471,-0.6622371551185471
-0.6342747245833376,-0.6342747245833376
-0.608933771910804,-0.608933771910804
-0.5853404711467209,-0.5853404711467209
-0.5556303887030609,-0.5556303887030609
-0.5302894360305273,-0.5302894360305273
-0.5014531795410925,-0.5014531795410925
-0.46824779328053123,-0.46824779328053123
-0.42193501770659053,-0.42193501770659053
-0.38960345740025454,-0.38960345740025454
-0.3948464131256063,-0.3948464131256063
-0.45426657801292647,-0.45426657801292647
-0.5285417841220766,-0.5285417841220766
-0.5731069077875668,-0.5731069077875668
-0.5556303887030609,-0.5556303887030609
-0.4944625719072901,-0.4944625719072901
-0.42193501770659053,-0.42193501770659053
-0.36513633068194623,-0.36513633068194623
-0.3153282512911043,-0.3153282512911043
-0.26639399785448775,-0.26639399785448775
-0.20872148487561817,-0.20872148487561817
-0.1545442757136498,-0.1545442757136498
-0.10124089250590669,-0.10124089250590669
-0.08201672151295017,-0.08201672151295017
-0.10124089250590669,-0.10124089250590669
-0.16765166502702922,-0.16765166502702922
-0.23493626350237706,-0.23493626350237706
-0.28212286503054307,-0.28212286503054307
-0.28823964671012015,-0.28823964671012015
-0.28998729861857075,-0.28998729861857075
-0.3153282512911043,-0.3153282512911043
-0.3642625047277209,-0.3642625047277209
-0.3948464131256063,-0.3948464131256063
-0.4184397138896893,-0.4184397138896893
-0.4752384009143336,-0.4752384009143336
-0.5634948222910885,-0.5634948222910885
-0.608933771910804,-0.608933771910804
-0.5809713413755945,-0.5809713413755945
-0.42193501770659053,-0.42193501770659053
0.07352429833915261,0.07352429833915261
1.0723073640186664,1.0723073640186664
2.2633321396277455,2.2633321396277455
3.0200654159868523,3.0200654159868523
3.1231768785854372,3.1231768785854372
3.0200654159868523,3.0200654159868523
3.0742426251488206,3.0742426251488206
3.0200654159868523,3.0200654159868523
2.435475852610129,2.435475852610129
1.4725196510538523,1.4725196510538523
0.634520560951793,0.634520560951793
0.13818741895182454,0.13818741895182454
-0.18949731388266164,-0.18949731388266164
-0.4752384009143336,-0.4752384009143336
-0.68583045588263,-0.68583045588263
-0.7950587001607922,-0.7950587001607922
-0.8640909505445905,-0.8640909505445905
-0.9016654665762783,-0.9016654665762783
-0.8911795551255747,-0.8911795551255747
-0.8483620833685352,-0.8483620833685352
-0.8282640864213534,-0.8282640864213534
-0.8221473047417763,-0.8221473047417763
-0.8116613932910728,-0.8116613932910728
-0.7950587001607922,-0.7950587001607922
-0.8055446116114957,-0.8055446116114957
-0.8221473047417763,-0.8221473047417763
-0.8352546940551557,-0.8352546940551557
-0.8221473047417763,-0.8221473047417763
-0.8020493077945945,-0.8020493077945945
-0.7688439215340332,-0.7688439215340332
-0.7347647093192466,-0.7347647093192466
-0.6884519337453059,-0.6884519337453059
-0.6456344619882665,-0.6456344619882665
-0.608933771910804,-0.608933771910804
-0.5905834268720728,-0.5905834268720728
-0.5818451673298197,-0.5818451673298197
-0.5844666451924957,-0.5844666451924957
-0.5818451673298197,-0.5818451673298197
-0.5687377780164403,-0.5687377780164403
-0.5285417841220766,-0.5285417841220766
-0.4743645749601083,-0.4743645749601083
-0.42193501770659053,-0.42193501770659053
-0.39834171694250753,-0.39834171694250753
-0.3948464131256063,-0.3948464131256063
-0.4018370207594087,-0.4018370207594087
-0.3948464131256063,-0.3948464131256063
-0.3695054604530727,-0.3695054604530727
-0.3153282512911043,-0.3153282512911043
-0.24716982686153122,-0.24716982686153122
-0.18163288029463398,-0.18163288029463398
-0.13794158258336914,-0.13794158258336914
-0.10124089250590669,-0.10124089250590669
-0.058423420748867166,-0.058423420748867166
0.005365873909579478,0.005365873909579478
0.06565986475112494,0.06565986475112494
0.11197264032506565,0.11197264032506565
0.1460518525398522,0.1460518525398522
0.19149080215956762,0.19149080215956762
0.23518209987083247,0.23518209987083247
0.245668011321536,0.245668011321536
0.2002290617018206,0.2002290617018206
0.13818741895182454,0.13818741895182454
0.09012699146943323,0.09012699146943323
0.058669257117322564,0.058669257117322564
0.01235648154338185,0.01235648154338185
-0.04793750929816361,-0.04793750929816361
-0.11696975968196203,-0.11696975968196203
-0.18163288029463398,-0.18163288029463398
-0.25765573831223476,-0.25765573831223476
-0.34154302991786323,-0.34154302991786323
-0.42979945129461816,-0.42979945129461816
-0.5014531795410925,-0.5014531795410925
-0.5556303887030609,-0.5556303887030609
-0.5818451673298197,-0.5818451673298197
-0.5897096009178474,-0.5897096009178474
-0.5818451673298197,-0.5818451673298197
-0.5800975154213692,-0.5800975154213692
-0.5818451673298197,-0.5818451673298197
-0.5897096009178474,-0.5897096009178474
-0.5818451673298197,-0.5818451673298197
-0.5608733444284126,-0.5608733444284126
-0.5285417841220766,-0.5285417841220766
-0.5101914390833454,-0.5101914390833454
-0.5014531795410925,-0.5014531795410925
-0.5049484833579937,-0.5049484833579937
-0.5014531795410925,-0.5014531795410925
-0.4944625719072901,-0.4944625719072901
-0.4752384009143336,-0.4752384009143336
-0.45339275205870117,-0.45339275205870117
-0.42193501770659053,-0.42193501770659053
-0.38523432762912807,-0.38523432762912807
-0.34154302991786323,-0.34154302991786323
-0.31445442533687906,-0.31445442533687906
-0.3153282512911043,-0.3153282512911043
-0.3529027673227921,-0.3529027673227921
-0.3948464131256063,-0.3948464131256063
-0.41581823602701345,-0.41581823602701345
-0.3948464131256063,-0.3948464131256063
-0.3625148528192704,-0.3625148528192704
-0.34154302991786323,-0.34154302991786323
-0.33717390014673676,-0.33717390014673676
-0.3153282512911043,-0.3153282512911043
-0.2742584314425154,-0.2742584314425154
-0.23493626350237706,-0.23493626350237706
-0.2218288741889976,-0.2218288741889976
-0.20872148487561817,-0.20872148487561817
-0.17638992456928218,-0.17638992456928218
-0.1283294970868909,-0.1283294970868909
-0.08813350319252725,-0.08813350319252725
-0.04793750929816361,-0.04793750929816361
-0.008615341358025266,-0.008615341358025266
0.03158065253633837,0.03158065253633837
0.05430012734619608,0.05430012734619608
0.08488403574408146,0.08488403574408146
0.10847733650816446,0.10847733650816446
0.11197264032506565,0.11197264032506565
0.0761457762018285,0.0761457762018285
0.058669257117322564,0.058669257117322564
0.06828134261380082,0.06828134261380082
0.08488403574408146,0.08488403574408146
0.06041690902577316,0.06041690902577316
0.005365873909579478,0.005365873909579478
-0.07153081006224661,-0.07153081006224661
-0.1545442757136498,-0.1545442757136498
-0.23493626350237706,-0.23493626350237706
-0.28823964671012015,-0.28823964671012015
-0.355524245185468,-0.355524245185468
-0.4481497963333494,-0.4481497963333494
-0.44552831847067353,-0.44552831847067353
-0.0750261138791478,-0.0750261138791478
0.7891877548496704,0.7891877548496704
1.8998205426700223,1.8998205426700223
2.7369458068178565,2.7369458068178565
3.0200654159868523,3.0200654159868523
2.9728788144586864,2.9728788144586864
3.0200654159868523,3.0200654159868523
3.17473260988473,3.17473260988473
3.0200654159868523,3.0200654159868523
2.288673092300279,2.288673092300279
1.2855208968496388,1.2855208968496388
0.5008251899553225,0.5008251899553225
0.08488403574408146,0.08488403574408146
-0.16066105739322686,-0.16066105739322686
-0.36863163449884745,-0.36863163449884745
-0.5101914390833454,-0.5101914390833454
-0.5556303887030609,-0.5556303887030609
-0.576602211604468,-0.576602211604468
-0.608933771910804,-0.608933771910804
-0.6290317688579857,-0.6290317688579857
-0.608933771910804,-0.608933771910804
-0.5818451673298197,-0.5818451673298197
-0.5818451673298197,-0.5818451673298197
-0.6342747245833376,-0.6342747245833376
-0.7155405383262902,-0.7155405383262902
-0.7968063520692427,-0.7968063520692427
-0.8221473047417763,-0.8221473047417763
-0.7985540039776933,-0.7985540039776933
-0.741755316953049,-0.741755316953049
-0.6980640192417842,-0.6980640192417842
-0.6622371551185471,-0.6622371551185471
-0.6395176803086894,-0.6395176803086894
-0.608933771910804,-0.608933771910804
-0.5748545596960174,-0.5748545596960174
-0.5285417841220766,-0.5285417841220766
-0.4787337047312348,-0.4787337047312348
-0.42193501770659053,-0.42193501770659053
-0.38173902381222685,-0.38173902381222685
-0.36863163449884745,-0.36863163449884745
-0.39222493526293045,-0.39222493526293045
-0.42193501770659053,-0.42193501770659053
-0.43853771083687115,-0.43853771083687115
-0.42193501770659053,-0.42193501770659053
-0.38785580549180393,-0.38785580549180393
-0.34154302991786323,-0.34154302991786323
-0.2934826024354719,-0.2934826024354719
-0.23493626350237706,-0.23493626350237706
-0.1711469688439304,-0.1711469688439304
-0.10124089250590669,-0.10124089250590669
-0.04269455357281183,-0.04269455357281183
0.005365873909579478,0.005365873909579478
0.042940389941267226,0.042940389941267226
0.08488403574408146,0.08488403574408146
0.11983707391309333,0.11983707391309333
0.13818741895182454,0.13818741895182454
0.14255654872295104,0.14255654872295104
0.16527602353280874,0.16527602353280874
0.21421027696942535,0.21421027696942535
0.2718827899482949,0.2718827899482949
0.29984522048350437,0.29984522048350437
0.2989713945292791,0.2989713945292791
0.27625191971942137,0.27625191971942137
0.245668011321536,0.245668011321536
0.18886932429689174,0.18886932429689174
0.11197264032506565,0.11197264032506565
0.023716218948310705,0.023716218948310705
-0.04793750929816361,-0.04793750929816361
-0.11347445586506084,-0.11347445586506084
-0.18163288029463398,-0.18163288029463398
-0.25940339022068537,-0.25940339022068537
-0.3153282512911043,-0.3153282512911043
-0.3397953780094126,-0.3397953780094126
-0.34154302991786323,-0.34154302991786323
-0.35901954900236915,-0.35901954900236915
-0.3948464131256063,-0.3948464131256063
-0.4507712741960253,-0.4507712741960253
-0.5014531795410925,-0.5014531795410925
-0.5364062177101043,-0.5364062177101043
-0.5285417841220766,-0.5285417841220766
-0.4997055276326419,-0.4997055276326419
-0.4752384009143336,-0.4752384009143336
-0.4787337047312348,-0.4787337047312348
-0.4752384009143336,-0.4752384009143336
-0.44465449251644823,-0.44465449251644823
-0.3948464131256063,-0.3948464131256063
-0.3773698940411004,-0.3773698940411004
-0.3948464131256063,-0.3948464131256063
-0.4254303215234917,-0.4254303215234917
-0.42193501770659053,-0.42193501770659053
-0.38872963144602923,-0.38872963144602923
-0.34154302991786323,-0.34154302991786323
-0.31008529556575254,-0.31008529556575254
-0.28823964671012015,-0.28823964671012015
-0.2768799093051913,-0.2768799093051913
-0.26202486808336123,-0.26202486808336123
-0.2506651306784324,-0.2506651306784324
-0.23493626350237706,-0.23493626350237706
-0.2227027001432229,-0.2227027001432229
-0.20872148487561817,-0.20872148487561817
-0.1991093993791399,-0.1991093993791399
-0.18163288029463398,-0.18163288029463398
-0.15716575357632567,-0.15716575357632567
-0.1283294970868909,-0.1283294970868909
-0.1283294970868909,-0.1283294970868909
-0.1545442757136498,-0.1545442757136498
-0.18163288029463398,-0.18163288029463398
-0.1545442757136498,-0.1545442757136498
-0.07939524365027428,-0.07939524365027428
0.005365873909579478,0.005365873909579478
0.053426301391970785,0.053426301391970785
0.08488403574408146,0.08488403574408146
0.11197264032506565,0.11197264032506565
0.13818741895182454,0.13818741895182454
0.13731359299759924,0.13731359299759924
0.13818741895182454,0.13818741895182454
0.1469256784940775,0.1469256784940775
0.16527602353280874,0.16527602353280874
0.16178071971590754,0.16178071971590754
0.16527602353280874,0.16527602353280874
0.16440219757858343,0.16440219757858343
0.13818741895182454,0.13818741895182454
0.07789342811027909,0.07789342811027909
0.03158065253633837,0.03158065253633837
-0.005993863495349376,-0.005993863495349376
-0.0750261138791478,-0.0750261138791478
-0.16677783907280394,-0.16677783907280394
-0.20872148487561817,-0.20872148487561817
-0.22707182991434938,-0.22707182991434938
-0.23493626350237706,-0.23493626350237706
-0.011236819220701156,-0.011236819220701156
0.7787018433989669,0.7787018433989669
2.010796438856635,2.010796438856635
3.0200654159868523,3.0200654159868523
3.277844072483315,3.277844072483315
3.0200654159868523,3.0200654159868523
2.865398222088975,2.865398222088975
3.0200654159868523,3.0200654159868523
3.0620090617896665,3.0620090617896665
2.5665497457439237,2.5665497457439237
1.6114579777756743,1.6114579777756743
0.6720950769834807,0.6720950769834807
0.08226255788140557,0.08226255788140557
-0.18163288029463398,-0.18163288029463398
-0.3301832925129344,-0.3301832925129344
-0.4481497963333494,-0.4481497963333494
-0.5171820467171478,-0.5171820467171478
-0.5285417841220766,-0.5285417841220766
-0.5477659551150332,-0.5477659551150332
-0.5818451673298197,-0.5818451673298197
-0.5993216864143257,-0.5993216864143257
-0.5818451673298197,-0.5818451673298197
-0.5739807337417921,-0.5739807337417921
-0.5818451673298197,-0.5818451673298197
-0.5940787306889739,-0.5940787306889739
-0.5818451673298197,-0.5818451673298197
-0.5634948222910885,-0.5634948222910885
-0.5285417841220766,-0.5285417841220766
-0.4988317016784166,-0.4988317016784166
-0.4752384009143336,-0.4752384009143336
-0.4708692711432071,-0.4708692711432071
-0.4481497963333494,-0.4481497963333494
-0.40533232457630985,-0.40533232457630985
-0.34154302991786323,-0.34154302991786323
-0.2838705169389937,-0.2838705169389937
-0.23493626350237706,-0.23493626350237706
-0.21745974441787114,-0.21745974441787114
-0.23493626350237706,-0.23493626350237706
-0.2777537352594166,-0.2777537352594166
-0.28823964671012015,-0.28823964671012015
-0.2506651306784324,-0.2506651306784324
-0.18163288029463398,-0.18163288029463398
-0.13269862685801737,-0.13269862685801737
-0.10124089250590669,-0.10124089250590669
-0.07939524365027428,-0.07939524365027428
-0.04793750929816361,-0.04793750929816361
-0.015605948991827637,-0.015605948991827637
0.03158065253633837,0.03158065253633837
0.08575786169830675,0.08575786169830675
0.13818741895182454,0.13818741895182454
0.16789750139548462,0.16789750139548462
0.19149080215956762,0.19149080215956762
0.22993914414548067,0.22993914414548067
0.2989713945292791,0.2989713945292791
0.3714989487299787,0.3714989487299787
0.43179293957152415,0.43179293957152415
0.4728627594201131,0.4728627594201131
0.5121849273602515,0.5121849273602515
0.546264139575038,0.546264139575038
0.5654883105679945,0.5654883105679945
0.5488856174377139,0.5488856174377139
0.5121849273602515,0.5121849273602515
0.4676198036947613,0.4676198036947613
0.43179293957152415,0.43179293957152415
0.3802372082722317,0.3802372082722317
0.2989713945292791,0.2989713945292791
0.1731404571208364,0.1731404571208364
0.03158065253633837,0.03158065253633837
-0.10561002227703317,-0.10561002227703317
-0.20872148487561817,-0.20872148487561817
-0.2777537352594166,-0.2777537352594166
-0.3153282512911043,-0.3153282512911043
-0.3520289413685668,-0.3520289413685668
-0.3948464131256063,-0.3948464131256063
-0.4472759703791241,-0.4472759703791241
-0.4752384009143336,-0.4752384009143336
-0.4743645749601083,-0.4743645749601083
-0.4481497963333494,-0.4481497963333494
-0.43154710320306877,-0.43154710320306877
-0.42193501770659053,-0.42193501770659053
-0.4166920619812387,-0.4166920619812387
-0.3948464131256063,-0.3948464131256063
-0.3695054604530727,-0.3695054604530727
-0.34154302991786323,-0.34154302991786323
-0.31969738106223083,-0.31969738106223083
-0.28823964671012015,-0.28823964671012015
-0.26464634594603714,-0.26464634594603714
-0.26202486808336123,-0.26202486808336123
-0.29086112457279606,-0.29086112457279606
-0.3153282512911043,-0.3153282512911043
-0.30921146961152723,-0.30921146961152723
-0.26202486808336123,-0.26202486808336123
-0.20435235510449168,-0.20435235510449168
-0.1545442757136498,-0.1545442757136498
-0.13881540853759444,-0.13881540853759444
-0.1545442757136498,-0.1545442757136498
-0.1999832253333652,-0.1999832253333652
-0.23493626350237706,-0.23493626350237706
-0.24716982686153122,-0.24716982686153122
-0.23493626350237706,-0.23493626350237706
-0.2227027001432229,-0.2227027001432229
-0.20872148487561817,-0.20872148487561817
-0.1982355734249146,-0.1982355734249146
-0.18163288029463398,-0.18163288029463398
-0.15541810166787506,-0.15541810166787506
-0.10124089250590669,-0.10124089250590669
-0.04007307571013594,-0.04007307571013594
0.005365873909579478,0.005365873909579478
0.023716218948310705,0.023716218948310705
0.058669257117322564,0.058669257117322564
0.11983707391309333,0.11983707391309333
0.19149080215956762,0.19149080215956762
0.23430827391660716,0.23430827391660716
0.2718827899482949,0.2718827899482949
0.2980975685750538,0.2980975685750538
0.2989713945292791,0.2989713945292791
0.24392035941308543,0.24392035941308543
0.19149080215956762,0.19149080215956762
0.16178071971590754,0.16178071971590754
0.13818741895182454,0.13818741895182454
0.08575786169830675,0.08575786169830675
0.03158065253633837,0.03158065253633837
-0.012110645174926452,-0.012110645174926452
-0.04793750929816361,-0.04793750929816361
-0.08026906960449957,-0.08026906960449957
-0.10124089250590669,-0.10124089250590669
-0.18512818411153517,-0.18512818411153517
-0.34154302991786323,-0.34154302991786323
-0.34241685587208853,-0.34241685587208853
0.19149080215956762,0.19149080215956762
1.295132982346117,1.295132982346117
2.4599429793284373,2.4599429793284373
3.0567661060643148,3.0567661060643148
3.0200654159868523,3.0200654159868523
2.8610290923178483,2.8610290923178483
3.0200654159868523,3.0200654159868523
3.268231986986837,3.268231986986837
3.0200654159868523,3.0200654159868523
2.093809904508038,2.093809904508038
0.9927892021841646,0.9927892021841646
0.2771257456736467,0.2771257456736467
0.005365873909579478,0.005365873909579478
-0.1484274940340727,-0.1484274940340727
-0.34154302991786323,-0.34154302991786323
-0.49358874595306484,-0.49358874595306484
-0.5285417841220766,-0.5285417841220766
-0.5215511764882743,-0.5215511764882743
-0.5285417841220766,-0.5285417841220766
-0.5599995184741874,-0.5599995184741874
-0.608933771910804,-0.608933771910804
-0.6788398482488277,-0.6788398482488277
-0.7155405383262902,-0.7155405383262902
-0.68583045588263,-0.68583045588263
-0.608933771910804,-0.608933771910804
-0.5573780406115114,-0.5573780406115114
-0.5285417841220766,-0.5285417841220766
-0.5241726543509502,-0.5241726543509502
-0.5285417841220766,-0.5285417841220766
-0.5460183032065826,-0.5460183032065826
-0.5285417841220766,-0.5285417841220766
-0.4804813566396854,-0.4804813566396854
-0.42193501770659053,-0.42193501770659053
-0.39222493526293045,-0.39222493526293045
-0.36863163449884745,-0.36863163449884745
-0.33455242228406085,-0.33455242228406085
-0.28823964671012015,-0.28823964671012015
-0.25940339022068537,-0.25940339022068537
-0.23493626350237706,-0.23493626350237706
-0.20347852915026637,-0.20347852915026637
-0.1545442757136498,-0.1545442757136498
-0.11434828181928613,-0.11434828181928613
-0.0750261138791478,-0.0750261138791478
-0.0252180344883059,-0.0252180344883059
0.058669257117322564,0.058669257117322564
0.15741158994478108,0.15741158994478108
0.245668011321536,0.245668011321536
0.2753780937651961,0.2753780937651961
0.245668011321536,0.245668011321536
0.19149080215956762,0.19149080215956762
0.19149080215956762,0.19149080215956762
0.2640183563602672,0.2640183563602672
0.37848955636378107,0.37848955636378107
0.47985336705391546,0.47985336705391546
0.5654883105679945,0.5654883105679945
0.6371420388144688,0.6371420388144688
0.6991836815644649,0.6991836815644649
0.7323890678250261,0.7323890678250261
0.752487064772208,0.752487064772208
0.7594776724060104,0.7594776724060104
0.752487064772208,0.752487064772208
0.7096695930151684,0.7096695930151684
0.6458802983567218,0.6458802983567218
0.5672359624764451,0.5672359624764451
0.48509632277926723,0.48509632277926723
0.3828586861349076,0.3828586861349076
0.2718827899482949,0.2718827899482949
0.16440219757858343,0.16440219757858343
0.08488403574408146,0.08488403574408146
0.023716218948310705,0.023716218948310705
-0.021722730671404712,-0.021722730671404712
-0.06803550624534543,-0.06803550624534543
-0.10124089250590669,-0.10124089250590669
-0.12570801922421498,-0.12570801922421498
-0.1283294970868909,-0.1283294970868909
-0.12221271540731381,-0.12221271540731381
-0.10124089250590669,-0.10124089250590669
-0.08463819937562606,-0.08463819937562606
-0.0750261138791478,-0.0750261138791478
-0.09512411082632961,-0.09512411082632961
-0.1283294970868909,-0.1283294970868909
-0.15978723143900156,-0.15978723143900156
-0.1545442757136498,-0.1545442757136498
-0.12221271540731381,-0.12221271540731381
-0.0750261138791478,-0.0750261138791478
-0.050558987160839494,-0.050558987160839494
-0.04793750929816361,-0.04793750929816361
-0.058423420748867166,-0.058423420748867166
-0.04793750929816361,-0.04793750929816361
-0.023470382579855308,-0.023470382579855308
0.005365873909579478,0.005365873909579478
0.009735003680705961,0.009735003680705961
0.005365873909579478,0.005365873909579478
-0.0024985596784481904,-0.0024985596784481904
0.005365873909579478,0.005365873909579478
0.01497795940605774,0.01497795940605774
0.03158065253633837,0.03158065253633837
0.043814215895492524,0.043814215895492524
0.058669257117322564,0.058669257117322564
0.06740751665957553,0.06740751665957553
0.08488403574408146,0.08488403574408146
0.10585585864548858,0.10585585864548858
0.13818741895182454,0.13818741895182454
0.1740142830750617,0.1740142830750617
0.21857940674055182,0.21857940674055182
0.26052305254336605,0.26052305254336605
0.2989713945292791,0.2989713945292791
0.31644791361378505,0.31644791361378505
0.325186173156038,0.325186173156038
0.33042912888138976,0.33042912888138976
0.3522747777370222,0.3522747777370222
0.3749942525468799,0.3749942525468799
0.4055781609447653,0.4055781609447653
0.4213070281208206,0.4213070281208206
0.43179293957152415,0.43179293957152415
0.4274238098003977,0.4274238098003977
0.43179293957152415,0.43179293957152415
0.4248023319377218,0.4248023319377218
0.4055781609447653,0.4055781609447653
0.37848955636378107,0.37848955636378107
0.37848955636378107,0.37848955636378107
0.36013921132504984,0.36013921132504984
0.2718827899482949,0.2718827899482949
0.14080889681450043,0.14080889681450043
0.058669257117322564,0.058669257117322564
-0.01822742685450353,-0.01822742685450353
-0.1545442757136498,-0.1545442757136498
-0.19386644365378813,-0.19386644365378813
0.245668011321536,0.245668011321536
1.2374604693672475,1.2374604693672475
2.326247608331967,2.326247608331967
2.939673428198125,2.939673428198125
3.0200654159868523,3.0200654159868523
2.945790209877702,2.945790209877702
3.0200654159868523,3.0200654159868523
3.137158093853042,3.137158093853042
3.0200654159868523,3.0200654159868523
2.527227577803785,2.527227577803785
1.7932137762545362,1.7932137762545362
1.056578496842611,1.056578496842611
0.5121849273602515,0.5121849273602515
0.18187871666308936,0.18187871666308936
0.005365873909579478,0.005365873909579478
-0.0986194146432308,-0.0986194146432308
-0.1545442757136498,-0.1545442757136498
-0.1947402696080134,-0.1947402696080134
-0.23493626350237706,-0.23493626350237706
-0.284744342893219,-0.284744342893219
-0.3153282512911043,-0.3153282512911043
-0.323192684879132,-0.323192684879132
-0.3153282512911043,-0.3153282512911043
-0.3170759031995549,-0.3170759031995549
-0.3153282512911043,-0.3153282512911043
-0.31095912151997784,-0.31095912151997784
-0.28823964671012015,-0.28823964671012015
-0.276006083350966,-0.276006083350966
-0.26202486808336123,-0.26202486808336123
-0.24716982686153122,-0.24716982686153122
-0.20872148487561817,-0.20872148487561817
-0.1746422726608316,-0.1746422726608316
-0.1545442757136498,-0.1545442757136498
-0.16677783907280394,-0.16677783907280394
-0.18163288029463398,-0.18163288029463398
-0.19124496579111222,-0.19124496579111222
-0.18163288029463398,-0.18163288029463398
-0.15716575357632567,-0.15716575357632567
-0.10124089250590669,-0.10124089250590669
-0.03832542380168535,-0.03832542380168535
0.005365873909579478,0.005365873909579478
0.006239699863804775,0.006239699863804775
0.005365873909579478,0.005365873909579478
0.021968567039860113,0.021968567039860113
0.058669257117322564,0.058669257117322564
0.09187464337788383,0.09187464337788383
0.13818741895182454,0.13818741895182454
0.2011028876560459,0.2011028876560459
0.2718827899482949,0.2718827899482949
0.325186173156038,0.325186173156038
0.37848955636378107,0.37848955636378107
0.44227885102222775,0.44227885102222775
0.5121849273602515,0.5121849273602515
0.5584977029341922,0.5584977029341922
0.5925769151489787,0.5925769151489787
0.6249084754553147,0.6249084754553147
0.6720950769834807,0.6720950769834807
0.7149125487405202,0.7149125487405202
0.752487064772208,0.752487064772208
0.7725850617193898,0.7725850617193898
0.7787018433989669,0.7787018433989669
0.7533608907264333,0.7533608907264333
0.6991836815644649,0.6991836815644649
0.6118010861419353,0.6118010861419353
0.5121849273602515,0.5121849273602515
0.40907346476166645,0.40907346476166645
0.325186173156038,0.325186173156038
0.25353244490956367,0.25353244490956367
0.19149080215956762,0.19149080215956762
0.12245855177576921,0.12245855177576921
0.058669257117322564,0.058669257117322564
-0.0024985596784481904,-0.0024985596784481904
-0.04793750929816361,-0.04793750929816361
-0.08551202532985136,-0.08551202532985136
-0.10124089250590669,-0.10124089250590669
-0.10735767418548377,-0.10735767418548377
-0.10124089250590669,-0.10124089250590669
-0.09599793678055492,-0.09599793678055492
-0.0750261138791478,-0.0750261138791478
-0.05492811693196598,-0.05492811693196598
-0.04793750929816361,-0.04793750929816361
-0.0741522879249225,-0.0741522879249225
-0.10124089250590669,-0.10124089250590669
-0.11522210777351144,-0.11522210777351144
-0.10124089250590669,-0.10124089250590669
-0.08813350319252725,-0.08813350319252725
-0.0750261138791478,-0.0750261138791478
-0.06628785433689484,-0.06628785433689484
-0.04793750929816361,-0.04793750929816361
-0.033956294030558866,-0.033956294030558866
-0.021722730671404712,-0.021722730671404712
-0.021722730671404712,-0.021722730671404712
-0.021722730671404712,-0.021722730671404712
-0.0252180344883059,-0.0252180344883059
-0.021722730671404712,-0.021722730671404712
-0.014732123037602341,-0.014732123037602341
0.005365873909579478,0.005365873909579478
0.021094741085634815,0.021094741085634815
0.03158065253633837,0.03158065253633837
0.028085348719437186,0.028085348719437186
0.03158065253633837,0.03158065253633837
0.042940389941267226,0.042940389941267226
0.058669257117322564,0.058669257117322564
0.05167864948352019,0.05167864948352019
0.03158065253633837,0.03158065253633837
0.014104133451832443,0.014104133451832443
0.03158065253633837,0.03158065253633837
0.07876725406450438,0.07876725406450438
0.13818741895182454,0.13818741895182454
0.18275254261731466,0.18275254261731466
0.21857940674055182,0.21857940674055182
0.2509109670468878,0.2509109670468878
0.2989713945292791,0.2989713945292791
0.34004121437786805,0.34004121437786805
0.37848955636378107,0.37848955636378107
0.38897546781448467,0.38897546781448467
0.37848955636378107,0.37848955636378107
0.3452841701032198,0.3452841701032198
0.325186173156038,0.325186173156038
0.301592872391955,0.301592872391955
0.2718827899482949,0.2718827899482949
0.23955122964195893,0.23955122964195893
0.245668011321536,0.245668011321536
0.2482894891842119,0.2482894891842119
0.19149080215956762,0.19149080215956762
0.08401020978985617,0.08401020978985617
0.005365873909579478,0.005365873909579478
-0.0750261138791478,-0.0750261138791478
-0.20872148487561817,-0.20872148487561817
-0.24716982686153122,-0.24716982686153122
0.16527602353280874,0.16527602353280874
1.1229892693637338,1.1229892693637338
2.2196408419164806,2.2196408419164806
2.8898653488072834,2.8898653488072834
3.0200654159868523,3.0200654159868523
2.951906991557279,2.951906991557279
3.0200654159868523,3.0200654159868523
3.1458963533952953,3.1458963533952953
3.0200654159868523,3.0200654159868523
2.4747980205502675,2.4747980205502675
1.6857331838848246,1.6857331838848246
0.9456026006559985,0.9456026006559985
0.43179293957152415,0.43179293957152415
0.1233323777299945,0.1233323777299945
-0.04793750929816361,-0.04793750929816361
-0.1484274940340727,-0.1484274940340727
-0.20872148487561817,-0.20872148487561817
-0.25940339022068537,-0.25940339022068537
-0.28823964671012015,-0.28823964671012015
-0.2934826024354719,-0.2934826024354719
-0.28823964671012015,-0.28823964671012015
-0.30309468793195016,-0.30309468793195016
-0.3153282512911043,-0.3153282512911043
-0.31270677342842845,-0.31270677342842845
-0.28823964671012015,-0.28823964671012015
-0.2768799093051913,-0.2768799093051913
-0.26202486808336123,-0.26202486808336123
-0.2497913047242071,-0.2497913047242071
-0.23493626350237706,-0.23493626350237706
-0.23930539327350353,-0.23930539327350353
-0.23493626350237706,-0.23493626350237706
-0.2183335703720964,-0.2183335703720964
-0.18163288029463398,-0.18163288029463398
-0.15978723143900156,-0.15978723143900156
-0.1545442757136498,-0.1545442757136498
-0.16240870930167745,-0.16240870930167745
-0.1545442757136498,-0.1545442757136498
-0.14231071235449563,-0.14231071235449563
-0.1283294970868909,-0.1283294970868909
-0.1239603673157644,-0.1239603673157644
-0.10124089250590669,-0.10124089250590669
-0.05754959479464187,-0.05754959479464187
0.005365873909579478,0.005365873909579478
0.05430012734619608,0.05430012734619608
0.08488403574408146,0.08488403574408146
0.09012699146943323,0.09012699146943323
0.08488403574408146,0.08488403574408146
0.07352429833915261,0.07352429833915261
0.08488403574408146,0.08488403574408146
0.12420620368421981,0.12420620368421981
0.19149080215956762,0.19149080215956762
0.25964922658914075,0.25964922658914075
0.325186173156038,0.325186173156038
0.37936338231800637,0.37936338231800637
0.43179293957152415,0.43179293957152415
0.4728627594201131,0.4728627594201131
0.5121849273602515,0.5121849273602515
0.5488856174377139,0.5488856174377139
0.5925769151489787,0.5925769151489787
0.6187916937757376,0.6187916937757376
0.6187916937757376,0.6187916937757376
0.5759742220186981,0.5759742220186981
0.5121849273602515,0.5121849273602515
0.44053119911377714,0.44053119911377714
0.37848955636378107,0.37848955636378107
0.31295260979688383,0.31295260979688383
0.245668011321536,0.245668011321536
0.18013106475463878,0.18013106475463878
0.13818741895182454,0.13818741895182454
0.09711759910323561,0.09711759910323561
0.03158065253633837,0.03158065253633837
-0.06890933219957072,-0.06890933219957072
-0.1545442757136498,-0.1545442757136498
-0.19386644365378813,-0.19386644365378813
-0.18163288029463398,-0.18163288029463398
-0.16503018716435333,-0.16503018716435333
-0.1545442757136498,-0.1545442757136498
-0.1501751459425233,-0.1501751459425233
-0.1283294970868909,-0.1283294970868909
-0.10910532609393436,-0.10910532609393436
-0.10124089250590669,-0.10124089250590669
-0.11609593372773673,-0.11609593372773673
-0.1283294970868909,-0.1283294970868909
-0.13444627876646797,-0.13444627876646797
-0.1283294970868909,-0.1283294970868909
-0.12221271540731381,-0.12221271540731381
-0.10124089250590669,-0.10124089250590669
-0.07589993983337309,-0.07589993983337309
-0.04793750929816361,-0.04793750929816361
-0.04269455357281183,-0.04269455357281183
-0.04793750929816361,-0.04793750929816361
-0.06454020242844424,-0.06454020242844424
-0.0750261138791478,-0.0750261138791478
-0.0767737657875984,-0.0767737657875984
-0.04793750929816361,-0.04793750929816361
-0.012110645174926452,-0.012110645174926452
0.005365873909579478,0.005365873909579478
-0.019101252808728823,-0.019101252808728823
-0.04793750929816361,-0.04793750929816361
-0.059297246703092464,-0.059297246703092464
-0.04793750929816361,-0.04793750929816361
-0.04706368334393831,-0.04706368334393831
-0.04793750929816361,-0.04793750929816361
-0.044442205481262424,-0.044442205481262424
-0.021722730671404712,-0.021722730671404712
0.0027443960469035887,0.0027443960469035887
0.03158065253633837,0.03158065253633837
0.06478603879689963,0.06478603879689963
0.11197264032506565,0.11197264032506565
0.1547901120821052,0.1547901120821052
0.19149080215956762,0.19149080215956762
0.21683175483210124,0.21683175483210124
0.245668011321536,0.245668011321536
0.26227070445181666,0.26227070445181666
0.2718827899482949,0.2718827899482949
0.25790157468069014,0.25790157468069014
0.245668011321536,0.245668011321536
0.23605592582505774,0.23605592582505774
0.245668011321536,0.245668011321536
0.24042505559618424,0.24042505559618424
0.21857940674055182,0.21857940674055182
0.1775095868919629,0.1775095868919629
0.13818741895182454,0.13818741895182454
0.08226255788140557,0.08226255788140557
0.005365873909579478,0.005365873909579478
-0.08463819937562606,-0.08463819937562606
-0.1545442757136498,-0.1545442757136498
-0.23056713373125057,-0.23056713373125057
-0.3153282512911043,-0.3153282512911043
-0.31270677342842845,-0.31270677342842845
0.005365873909579478,0.005365873909579478
0.7638468021771369,0.7638468021771369
1.7932137762545362,1.7932137762545362
2.6460679075784257,2.6460679075784257
3.0200654159868523,3.0200654159868523
3.0235607198037537,3.0235607198037537
3.0200654159868523,3.0200654159868523
3.1100694892720577,3.1100694892720577
3.0200654159868523,3.0200654159868523
2.4861577579551963,2.4861577579551963
1.6595184052580658,1.6595184052580658
0.9071542586700855,0.9071542586700855
0.43179293957152415,0.43179293957152415
0.14430420063140162,0.14430420063140162
-0.0750261138791478,-0.0750261138791478
-0.2506651306784324,-0.2506651306784324
-0.34154302991786323,-0.34154302991786323
-0.3633886787734956,-0.3633886787734956
-0.34154302991786323,-0.34154302991786323
-0.31969738106223083,-0.31969738106223083
-0.3153282512911043,-0.3153282512911043
-0.3406692039636379,-0.3406692039636379
-0.36863163449884745,-0.36863163449884745
-0.38348667572067746,-0.38348667572067746
-0.36863163449884745,-0.36863163449884745
-0.346785985643215,-0.346785985643215
-0.3153282512911043,-0.3153282512911043
-0.3004732100692743,-0.3004732100692743
-0.28823964671012015,-0.28823964671012015
-0.284744342893219,-0.284744342893219
-0.26202486808336123,-0.26202486808336123
-0.23755774136505295,-0.23755774136505295
-0.20872148487561817,-0.20872148487561817
-0.18687583601998575,-0.18687583601998575
-0.1545442757136498,-0.1545442757136498
-0.13182480090379206,-0.13182480090379206
-0.1283294970868909,-0.1283294970868909
-0.1501751459425233,-0.1501751459425233
-0.1545442757136498,-0.1545442757136498
-0.1274556711326656,-0.1274556711326656
-0.0750261138791478,-0.0750261138791478
-0.03308246807633357,-0.03308246807633357
0.005365873909579478,0.005365873909579478
0.03507595635323956,0.03507595635323956
0.058669257117322564,0.058669257117322564
0.06478603879689963,0.06478603879689963
0.08488403574408146,0.08488403574408146
0.12944915940957158,0.12944915940957158
0.19149080215956762,0.19149080215956762
0.23692975177928305,0.23692975177928305
0.2718827899482949,0.2718827899482949
0.31470026170533444,0.31470026170533444
0.37848955636378107,0.37848955636378107
0.43266676552574945,0.43266676552574945
0.45888154415250837,0.45888154415250837
0.45538624033560715,0.45538624033560715
0.45888154415250837,0.45888154415250837
0.47897954109969015,0.47897954109969015
0.5121849273602515,0.5121849273602515
0.5314090983532079,0.5314090983532079
0.5383997059870104,0.5383997059870104
0.5314090983532079,0.5314090983532079
0.5121849273602515,0.5121849273602515
0.4597553701067337,0.4597553701067337
0.37848955636378107,0.37848955636378107
0.2788733975820973,0.2788733975820973
0.19149080215956762,0.19149080215956762
0.11197264032506565,0.11197264032506565
0.03158065253633837,0.03158065253633837
-0.06541402838266953,-0.06541402838266953
-0.1545442757136498,-0.1545442757136498
-0.2244503520516735,-0.2244503520516735
-0.26202486808336123,-0.26202486808336123
-0.2838705169389937,-0.2838705169389937
-0.28823964671012015,-0.28823964671012015
-0.29086112457279606,-0.29086112457279606
-0.28823964671012015,-0.28823964671012015
-0.28561816884744423,-0.28561816884744423
-0.26202486808336123,-0.26202486808336123
-0.23668391541082764,-0.23668391541082764
-0.23493626350237706,-0.23493626350237706
-0.2768799093051913,-0.2768799093051913
-0.3153282512911043,-0.3153282512911043
-0.32057120701645614,-0.32057120701645614
-0.28823964671012015,-0.28823964671012015
-0.25852956426646007,-0.25852956426646007
-0.23493626350237706,-0.23493626350237706
-0.22095504823477233,-0.22095504823477233
-0.20872148487561817,-0.20872148487561817
-0.21046913678406876,-0.21046913678406876
-0.20872148487561817,-0.20872148487561817
-0.19386644365378813,-0.19386644365378813
-0.1545442757136498,-0.1545442757136498
-0.11172680395661025,-0.11172680395661025
-0.0750261138791478,-0.0750261138791478
-0.07153081006224661,-0.07153081006224661
-0.10124089250590669,-0.10124089250590669
-0.15279662380519918,-0.15279662380519918
-0.18163288029463398,-0.18163288029463398
-0.17988522838618337,-0.17988522838618337
-0.1545442757136498,-0.1545442757136498
-0.13269862685801737,-0.13269862685801737
-0.10124089250590669,-0.10124089250590669
-0.06978315815379602,-0.06978315815379602
-0.04793750929816361,-0.04793750929816361
-0.05230663906929009,-0.05230663906929009
-0.04793750929816361,-0.04793750929816361
-0.01997507876295412,-0.01997507876295412
0.03158065253633837,0.03158065253633837
0.08138873192718027,0.08138873192718027
0.13818741895182454,0.13818741895182454
0.1976075838391447,0.1976075838391447
0.245668011321536,0.245668011321536
0.2517847930011131,0.2517847930011131
0.245668011321536,0.245668011321536
0.23692975177928305,0.23692975177928305
0.245668011321536,0.245668011321536
0.24392035941308543,0.24392035941308543
0.245668011321536,0.245668011321536
0.24042505559618424,0.24042505559618424
0.245668011321536,0.245668011321536
0.23780357773350835,0.23780357773350835
0.21857940674055182,0.21857940674055182
0.18624784643421585,0.18624784643421585
0.16527602353280874,0.16527602353280874
0.13993507086027515,0.13993507086027515
0.08488403574408146,0.08488403574408146
-0.028713338305207087,-0.028713338305207087
-0.18163288029463398,-0.18163288029463398
-0.3223188589249067,-0.3223188589249067
-0.28823964671012015,-0.28823964671012015
0.151294808265204,0.151294808265204
1.0993959685996506,1.0993959685996506
2.237117361000987,2.237117361000987
3.0200654159868523,3.0200654159868523
3.1817232175185324,3.1817232175185324
3.0200654159868523,3.0200654159868523
2.95365464346573,2.95365464346573
3.0200654159868523,3.0200654159868523
2.874136481631228,2.874136481631228
2.300032829705208,2.300032829705208
1.4532954800608957,1.4532954800608957
0.6991836815644649,0.6991836815644649
0.23605592582505774,0.23605592582505774
0.03158065253633837,0.03158065253633837
-0.07852141769604899,-0.07852141769604899
-0.18163288029463398,-0.18163288029463398
-0.28212286503054307,-0.28212286503054307
-0.34154302991786323,-0.34154302991786323
-0.3730007642699739,-0.3730007642699739
-0.3948464131256063,-0.3948464131256063
-0.4184397138896893,-0.4184397138896893
-0.42193501770659053,-0.42193501770659053
-0.41144910625588693,-0.41144910625588693
-0.3948464131256063,-0.3948464131256063
-0.3957202390798316,-0.3957202390798316
-0.3948464131256063,-0.3948464131256063
-0.4000893688509581,-0.4000893688509581
-0.3948464131256063,-0.3948464131256063
-0.39834171694250753,-0.39834171694250753
-0.3948464131256063,-0.3948464131256063
-0.39135110930870515,-0.39135110930870515
-0.36863163449884745,-0.36863163449884745
-0.34416450778053914,-0.34416450778053914
-0.3153282512911043,-0.3153282512911043
-0.2917349505270213,-0.2917349505270213
-0.26202486808336123,-0.26202486808336123
-0.23581008945660237,-0.23581008945660237
-0.20872148487561817,-0.20872148487561817
-0.19386644365378813,-0.19386644365378813
-0.18163288029463398,-0.18163288029463398
-0.1746422726608316,-0.1746422726608316
-0.1545442757136498,-0.1545442757136498
-0.1248341932699897,-0.1248341932699897
-0.0750261138791478,-0.0750261138791478
-0.020848904717179418,-0.020848904717179418
0.03158065253633837,0.03158065253633837
0.06391221284267434,0.06391221284267434
0.08488403574408146,0.08488403574408146
0.10323438078281269,0.10323438078281269
0.13818741895182454,0.13818741895182454
0.18013106475463878,0.18013106475463878
0.21857940674055182,0.21857940674055182
0.24217270750463482,0.24217270750463482
0.2718827899482949,0.2718827899482949
0.31557408765955974,0.31557408765955974
0.37848955636378107,0.37848955636378107
0.43616206934265067,0.43616206934265067
0.48509632277926723,0.48509632277926723
0.5174278830856033,0.5174278830856033
0.5383997059870104,0.5383997059870104
0.5357782281243344,0.5357782281243344
0.5121849273602515,0.5121849273602515
0.4702412815574372,0.4702412815574372
0.43179293957152415,0.43179293957152415
0.38635398995180875,0.38635398995180875
0.325186173156038,0.325186173156038
0.23430827391660716,0.23430827391660716
0.13818741895182454,0.13818741895182454
0.048183345666619005,0.048183345666619005
-0.021722730671404712,-0.021722730671404712
-0.0767737657875984,-0.0767737657875984
-0.10124089250590669,-0.10124089250590669
-0.11347445586506084,-0.11347445586506084
-0.1283294970868909,-0.1283294970868909
-0.16939931693547983,-0.16939931693547983
-0.20872148487561817,-0.20872148487561817
-0.2244503520516735,-0.2244503520516735
-0.20872148487561817,-0.20872148487561817
-0.19124496579111222,-0.19124496579111222
-0.18163288029463398,-0.18163288029463398
-0.18425435815730987,-0.18425435815730987
-0.18163288029463398,-0.18163288029463398
-0.18250670624885926,-0.18250670624885926
-0.18163288029463398,-0.18163288029463398
-0.18687583601998575,-0.18687583601998575
-0.18163288029463398,-0.18163288029463398
-0.1720207947981557,-0.1720207947981557
-0.1545442757136498,-0.1545442757136498
-0.14405836426294621,-0.14405836426294621
-0.1283294970868909,-0.1283294970868909
-0.11522210777351144,-0.11522210777351144
-0.10124089250590669,-0.10124089250590669
-0.10124089250590669,-0.10124089250590669
-0.10124089250590669,-0.10124089250590669
-0.10648384823125848,-0.10648384823125848
-0.10124089250590669,-0.10124089250590669
-0.08725967723830196,-0.08725967723830196
-0.04793750929816361,-0.04793750929816361
-0.009489167312250562,-0.009489167312250562
0.005365873909579478,0.005365873909579478
-0.02783951235098179,-0.02783951235098179
-0.0750261138791478,-0.0750261138791478
-0.10648384823125848,-0.10648384823125848
-0.10124089250590669,-0.10124089250590669
-0.08026906960449957,-0.08026906960449957
-0.04793750929816361,-0.04793750929816361
-0.014732123037602341,-0.014732123037602341
0.03158065253633837,0.03158065253633837
0.08226255788140557,0.08226255788140557
0.13818741895182454,0.13818741895182454
0.18450019452576527,0.18450019452576527
0.21857940674055182,0.21857940674055182
0.23168679605393128,0.23168679605393128
0.245668011321536,0.245668011321536
0.25353244490956367,0.25353244490956367
0.2718827899482949,0.2718827899482949
0.27625191971942137,0.27625191971942137
0.2718827899482949,0.2718827899482949
0.2509109670468878,0.2509109670468878
0.245668011321536,0.245668011321536
0.2246961884201289,0.2246961884201289
0.16527602353280874,0.16527602353280874
0.07701960215605379,0.07701960215605379
0.03158065253633837,0.03158065253633837
0.019347089177184223,0.019347089177184223
-0.021722730671404712,-0.021722730671404712
-0.11696975968196203,-0.11696975968196203
-0.20872148487561817,-0.20872148487561817
-0.29610408029814783,-0.29610408029814783
-0.34154302991786323,-0.34154302991786323
-0.10386237036858259,-0.10386237036858259
0.7253984601912238,0.7253984601912238
1.9898246159552277,1.9898246159552277
3.0200654159868523,3.0200654159868523
3.287456157979793,3.287456157979793
3.0200654159868523,3.0200654159868523
2.8496693549129195,2.8496693549129195
3.0200654159868523,3.0200654159868523
3.116186270951635,3.116186270951635
2.6731565121594096,2.6731565121594096
1.7364150892298917,1.7364150892298917
0.805790447979951,0.805790447979951
0.24392035941308543,0.24392035941308543
0.005365873909579478,0.005365873909579478
-0.16415636121012805,-0.16415636121012805
-0.34154302991786323,-0.34154302991786323
-0.4498974482418,-0.4498974482418
-0.4481497963333494,-0.4481497963333494
-0.4280517993861676,-0.4280517993861676
-0.4481497963333494,-0.4481497963333494
-0.4962102238157407,-0.4962102238157407
-0.5285417841220766,-0.5285417841220766
-0.5573780406115114,-0.5573780406115114
-0.5818451673298197,-0.5818451673298197
-0.5984478604601005,-0.5984478604601005
-0.5818451673298197,-0.5818451673298197
-0.5582518665657368,-0.5582518665657368
-0.5285417841220766,-0.5285417841220766
-0.5163082207629225,-0.5163082207629225
-0.5014531795410925,-0.5014531795410925
-0.48572431236503716,-0.48572431236503716
-0.4481497963333494,-0.4481497963333494
-0.41581823602701345,-0.41581823602701345
-0.3948464131256063,-0.3948464131256063
-0.4018370207594087,-0.4018370207594087
-0.42193501770659053,-0.42193501770659053
-0.4464021444248988,-0.4464021444248988
-0.4481497963333494,-0.4481497963333494
-0.43067327724884347,-0.43067327724884347
-0.3948464131256063,-0.3948464131256063
-0.36513633068194623,-0.36513633068194623
-0.34154302991786323,-0.34154302991786323
-0.3301832925129344,-0.3301832925129344
-0.3153282512911043,-0.3153282512911043
-0.2952302543439225,-0.2952302543439225
-0.26202486808336123,-0.26202486808336123
-0.2253241780058988,-0.2253241780058988
-0.18163288029463398,-0.18163288029463398
-0.13532010472069325,-0.13532010472069325
-0.0750261138791478,-0.0750261138791478
-0.015605948991827637,-0.015605948991827637
0.03158065253633837,0.03158065253633837
0.05692160520887197,0.05692160520887197
0.08488403574408146,0.08488403574408146
0.127701507501121,0.127701507501121
0.19149080215956762,0.19149080215956762
0.25877540063491544,0.25877540063491544
0.325186173156038,0.325186173156038
0.37062512277575344,0.37062512277575344
0.37848955636378107,0.37848955636378107
0.3356720846067415,0.3356720846067415
0.2718827899482949,0.2718827899482949
0.21683175483210124,0.21683175483210124
0.19149080215956762,0.19149080215956762
0.1731404571208364,0.1731404571208364
0.13818741895182454,0.13818741895182454
0.06129073497999846,0.06129073497999846
-0.04793750929816361,-0.04793750929816361
-0.16939931693547983,-0.16939931693547983
-0.26202486808336123,-0.26202486808336123
-0.3179497291537802,-0.3179497291537802
-0.34154302991786323,-0.34154302991786323
-0.35989337495659446,-0.35989337495659446
-0.36863163449884745,-0.36863163449884745
-0.3730007642699739,-0.3730007642699739
-0.36863163449884745,-0.36863163449884745
-0.3695054604530727,-0.3695054604530727
-0.36863163449884745,-0.36863163449884745
-0.3642625047277209,-0.3642625047277209
-0.34154302991786323,-0.34154302991786323
-0.31445442533687906,-0.31445442533687906
-0.28823964671012015,-0.28823964671012015
-0.2829966909847684,-0.2829966909847684
-0.28823964671012015,-0.28823964671012015
-0.2978517322065984,-0.2978517322065984
-0.28823964671012015,-0.28823964671012015
-0.26639399785448775,-0.26639399785448775
-0.23493626350237706,-0.23493626350237706
-0.21745974441787114,-0.21745974441787114
-0.20872148487561817,-0.20872148487561817
-0.21046913678406876,-0.21046913678406876
-0.20872148487561817,-0.20872148487561817
-0.20959531082984345,-0.20959531082984345
-0.20872148487561817,-0.20872148487561817
-0.20610000701294226,-0.20610000701294226
-0.18163288029463398,-0.18163288029463398
-0.14318453830872094,-0.14318453830872094
-0.10124089250590669,-0.10124089250590669
-0.08900732914675254,-0.08900732914675254
-0.10124089250590669,-0.10124089250590669
-0.13269862685801737,-0.13269862685801737
-0.1545442757136498,-0.1545442757136498
-0.16415636121012805,-0.16415636121012805
-0.1545442757136498,-0.1545442757136498
-0.14318453830872094,-0.14318453830872094
-0.1283294970868909,-0.1283294970868909
-0.11871741159041263,-0.11871741159041263
-0.10124089250590669,-0.10124089250590669
-0.08026906960449957,-0.08026906960449957
-0.04793750929816361,-0.04793750929816361
-0.012984471129151747,-0.012984471129151747
0.03158065253633837,0.03158065253633837
0.0726504723849273,0.0726504723849273
0.11197264032506565,0.11197264032506565
0.1268276815468957,0.1268276815468957
0.13818741895182454,0.13818741895182454
0.14080889681450043,0.14080889681450043
0.13818741895182454,0.13818741895182454
0.11197264032506565,0.11197264032506565
0.08488403574408146,0.08488403574408146
0.03507595635323956,0.03507595635323956
-0.04793750929816361,-0.04793750929816361
-0.13706775662914386,-0.13706775662914386
-0.1545442757136498,-0.1545442757136498
-0.13794158258336914,-0.13794158258336914
-0.18163288029463398,-0.18163288029463398
-0.28561816884744423,-0.28561816884744423
-0.34154302991786323,-0.34154302991786323
-0.3869819795375786,-0.3869819795375786
-0.4752384009143336,-0.4752384009143336
-0.33804772610096206,-0.33804772610096206
0.48509632277926723,0.48509632277926723
1.8771010678601645,1.8771010678601645
3.0200654159868523,3.0200654159868523
3.2918252877509198,3.2918252877509198
3.0200654159868523,3.0200654159868523
2.8942344785784098,2.8942344785784098
3.0200654159868523,3.0200654159868523
2.8942344785784098,2.8942344785784098
2.2196408419164806,2.2196408419164806
1.241829599138374,1.241829599138374
0.4055781609447653,0.4055781609447653
-0.10124089250590669,-0.10124089250590669
-0.34154302991786323,-0.34154302991786323
-0.473490749005883,-0.473490749005883
-0.5818451673298197,-0.5818451673298197
-0.6893257596995312,-0.6893257596995312
-0.7688439215340332,-0.7688439215340332
-0.8203996528333257,-0.8203996528333257
-0.8483620833685352,-0.8483620833685352
-0.8667124284072665,-0.8667124284072665
-0.8754506879495194,-0.8754506879495194
-0.8911795551255747,-0.8911795551255747
-0.9016654665762783,-0.9016654665762783
-0.9025392925305036,-0.9025392925305036
-0.8754506879495194,-0.8754506879495194
-0.8501097352769857,-0.8501097352769857
-0.8221473047417763,-0.8221473047417763
-0.8011754818403692,-0.8011754818403692
-0.7688439215340332,-0.7688439215340332
-0.7426291429072743,-0.7426291429072743
-0.7155405383262902,-0.7155405383262902
-0.6954425413791083,-0.6954425413791083
-0.6622371551185471,-0.6622371551185471
-0.6220411612241834,-0.6220411612241834
-0.5818451673298197,-0.5818451673298197
-0.5573780406115114,-0.5573780406115114
-0.5285417841220766,-0.5285417841220766
-0.49271491999883954,-0.49271491999883954
-0.4481497963333494,-0.4481497963333494
-0.4184397138896893,-0.4184397138896893
-0.3948464131256063,-0.3948464131256063
-0.3738745902241992,-0.3738745902241992
-0.34154302991786323,-0.34154302991786323
-0.30571616579462607,-0.30571616579462607
-0.26202486808336123,-0.26202486808336123
-0.22794565586857468,-0.22794565586857468
-0.20872148487561817,-0.20872148487561817
-0.1973617474706893,-0.1973617474706893
-0.1545442757136498,-0.1545442757136498
-0.08026906960449957,-0.08026906960449957
0.005365873909579478,0.005365873909579478
0.07177664643070202,0.07177664643070202
0.13818741895182454,0.13818741895182454
0.20984114719829886,0.20984114719829886
0.2718827899482949,0.2718827899482949
0.3024666983461803,0.3024666983461803
0.325186173156038,0.325186173156038
0.35489625559969806,0.35489625559969806
0.37848955636378107,0.37848955636378107
0.36450834109617636,0.36450834109617636
0.325186173156038,0.325186173156038
0.2745042678109708,0.2745042678109708
0.21857940674055182,0.21857940674055182
0.14168272276872573,0.14168272276872573
0.058669257117322564,0.058669257117322564
-0.023470382579855308,-0.023470382579855308
-0.10124089250590669,-0.10124089250590669
-0.18774966197421106,-0.18774966197421106
-0.26202486808336123,-0.26202486808336123
-0.31358059938265376,-0.31358059938265376
-0.34154302991786323,-0.34154302991786323
-0.37474841617842447,-0.37474841617842447
-0.42193501770659053,-0.42193501770659053
-0.4962102238157407,-0.4962102238157407
-0.5818451673298197,-0.5818451673298197
-0.6552465474847446,-0.6552465474847446
-0.6622371551185471,-0.6622371551185471
-0.5905834268720728,-0.5905834268720728
-0.4752384009143336,-0.4752384009143336
-0.3965940650340569,-0.3965940650340569
-0.3948464131256063,-0.3948464131256063
-0.46824779328053123,-0.46824779328053123
-0.5556303887030609,-0.5556303887030609
-0.6115552497734799,-0.6115552497734799
-0.608933771910804,-0.608933771910804
-0.5722330818333415,-0.5722330818333415
-0.5285417841220766,-0.5285417841220766
-0.5005793535868672,-0.5005793535868672
-0.4752384009143336,-0.4752384009143336
-0.4568880558756024,-0.4568880558756024
-0.4481497963333494,-0.4481497963333494
-0.46213101160095416,-0.46213101160095416
-0.4752384009143336,-0.4752384009143336
-0.473490749005883,-0.473490749005883
-0.4481497963333494,-0.4481497963333494
-0.4280517993861676,-0.4280517993861676
-0.42193501770659053,-0.42193501770659053
-0.43679005892842054,-0.43679005892842054
-0.4481497963333494,-0.4481497963333494
-0.4464021444248988,-0.4464021444248988
-0.42193501770659053,-0.42193501770659053
-0.4000893688509581,-0.4000893688509581
-0.3948464131256063,-0.3948464131256063
-0.4201873657981399,-0.4201873657981399
-0.4481497963333494,-0.4481497963333494
-0.4490236222875747,-0.4490236222875747
-0.3948464131256063,-0.3948464131256063
-0.31183294747420315,-0.31183294747420315
-0.23493626350237706,-0.23493626350237706
-0.18949731388266164,-0.18949731388266164
-0.1545442757136498,-0.1545442757136498
-0.12920332304111617,-0.12920332304111617
-0.10124089250590669,-0.10124089250590669
-0.08463819937562606,-0.08463819937562606
-0.04793750929816361,-0.04793750929816361
-0.009489167312250562,-0.009489167312250562
0.005365873909579478,0.005365873909579478
-0.05580194288619127,-0.05580194288619127
-0.1545442757136498,-0.1545442757136498
-0.2296933077770253,-0.2296933077770253
-0.23493626350237706,-0.23493626350237706
-0.22008122228054702,-0.22008122228054702
-0.23493626350237706,-0.23493626350237706
-0.28649199480166954,-0.28649199480166954
-0.34154302991786323,-0.34154302991786323
-0.4201873657981399,-0.4201873657981399
-0.5556303887030609,-0.5556303887030609
-0.6936948894706577,-0.6936948894706577
-0.5818451673298197,-0.5818451673298197
0.057795431163097266,0.057795431163097266
1.2060027350151368,1.2060027350151368
2.373434209860133,2.373434209860133
3.0200654159868523,3.0200654159868523
3.0899714923248762,3.0899714923248762
3.0200654159868523,3.0200654159868523
3.077737928965722,3.077737928965722
3.0200654159868523,3.0200654159868523
2.4809148022298446,2.4809148022298446
1.5529116388425797,1.5529116388425797
0.6668521212581289,0.6668521212581289
0.11197264032506565,0.11197264032506565
-0.1746422726608316,-0.1746422726608316
-0.34154302991786323,-0.34154302991786323
-0.45950953373827824,-0.45950953373827824
-0.5285417841220766,-0.5285417841220766
-0.5739807337417921,-0.5739807337417921
-0.608933771910804,-0.608933771910804
-0.6403915062629146,-0.6403915062629146
-0.6622371551185471,-0.6622371551185471
-0.6744707184777012,-0.6744707184777012
-0.6622371551185471,-0.6622371551185471
-0.6368962024460134,-0.6368962024460134
-0.608933771910804,-0.608933771910804
-0.5984478604601005,-0.5984478604601005
-0.5818451673298197,-0.5818451673298197
-0.5643686482453139,-0.5643686482453139
-0.5285417841220766,-0.5285417841220766
-0.49358874595306484,-0.49358874595306484
-0.4481497963333494,-0.4481497963333494
-0.4105752803016616,-0.4105752803016616
-0.36863163449884745,-0.36863163449884745
-0.33717390014673676,-0.33717390014673676
-0.3153282512911043,-0.3153282512911043
-0.31270677342842845,-0.31270677342842845
-0.3153282512911043,-0.3153282512911043
-0.31445442533687906,-0.31445442533687906
-0.28823964671012015,-0.28823964671012015
-0.24280069709040472,-0.24280069709040472
-0.18163288029463398,-0.18163288029463398
-0.1274556711326656,-0.1274556711326656
-0.0750261138791478,-0.0750261138791478
-0.03220864212210827,-0.03220864212210827
0.005365873909579478,0.005365873909579478
0.022842392994085407,0.022842392994085407
0.03158065253633837,0.03158065253633837
0.042940389941267226,0.042940389941267226
0.08488403574408146,0.08488403574408146
0.15653776399055577,0.15653776399055577
0.245668011321536,0.245668011321536
0.3190693914764609,0.3190693914764609
0.37848955636378107,0.37848955636378107
0.4265499838461724,0.4265499838461724
0.48509632277926723,0.48509632277926723
0.5497594433919392,0.5497594433919392
0.6187916937757376,0.6187916937757376
0.6764642067546072,0.6764642067546072
0.7253984601912238,0.7253984601912238
0.7516132388179827,0.7516132388179827
0.752487064772208,0.752487064772208
0.7131648968320696,0.7131648968320696
0.6458802983567218,0.6458802983567218
0.5541285731630656,0.5541285731630656
0.45888154415250837,0.45888154415250837
0.3531486036912475,0.3531486036912475
0.245668011321536,0.245668011321536
0.14430420063140162,0.14430420063140162
0.08488403574408146,0.08488403574408146
0.06303838688844905,0.06303838688844905
0.058669257117322564,0.058669257117322564
0.022842392994085407,0.022842392994085407
-0.04793750929816361,-0.04793750929816361
-0.1466798421256221,-0.1466798421256221
-0.23493626350237706,-0.23493626350237706
-0.2978517322065984,-0.2978517322065984
-0.3153282512911043,-0.3153282512911043
-0.299599384115049,-0.299599384115049
-0.26202486808336123,-0.26202486808336123
-0.23318861159392645,-0.23318861159392645
-0.20872148487561817,-0.20872148487561817
-0.18862348792843633,-0.18862348792843633
-0.1545442757136498,-0.1545442757136498
-0.1248341932699897,-0.1248341932699897
-0.10124089250590669,-0.10124089250590669
-0.10124089250590669,-0.10124089250590669
-0.10124089250590669,-0.10124089250590669
-0.0986194146432308,-0.0986194146432308
-0.0750261138791478,-0.0750261138791478
-0.04182072761858653,-0.04182072761858653
0.005365873909579478,0.005365873909579478
0.0508048235292949,0.0508048235292949
0.08488403574408146,0.08488403574408146
0.07701960215605379,0.07701960215605379
0.03158065253633837,0.03158065253633837
-0.02696568639675649,-0.02696568639675649
-0.04793750929816361,-0.04793750929816361
-0.03046099021365768,-0.03046099021365768
0.005365873909579478,0.005365873909579478
0.021094741085634815,0.021094741085634815
0.03158065253633837,0.03158065253633837
0.0490571716208443,0.0490571716208443
0.08488403574408146,0.08488403574408146
0.11459411818774154,0.11459411818774154
0.13818741895182454,0.13818741895182454
0.15828541589900635,0.15828541589900635
0.19149080215956762,0.19149080215956762
0.23081297009970597,0.23081297009970597
0.2718827899482949,0.2718827899482949
0.3007190464377297,0.3007190464377297
0.325186173156038,0.325186173156038
0.3426626922405439,0.3426626922405439
0.37848955636378107,0.37848955636378107
0.41256876857856767,0.41256876857856767
0.43179293957152415,0.43179293957152415
0.3985875533109629,0.3985875533109629
0.325186173156038,0.325186173156038
0.21945323269477712,0.21945323269477712
0.13818741895182454,0.13818741895182454
0.10935116246238977,0.10935116246238977
0.13818741895182454,0.13818741895182454
0.16527602353280874,0.16527602353280874
0.13818741895182454,0.13818741895182454
0.03420213039901426,0.03420213039901426
-0.10124089250590669,-0.10124089250590669
-0.23056713373125057,-0.23056713373125057
-0.34154302991786323,-0.34154302991786323
-0.4498974482418,-0.4498974482418
-0.42193501770659053,-0.42193501770659053
0.010608829634931257,0.010608829634931257
0.9927892021841646,0.9927892021841646
2.1942998892439474,2.1942998892439474
3.0200654159868523,3.0200654159868523
3.186966173243884,3.186966173243884
3.0200654159868523,3.0200654159868523
2.9606452510995322,2.9606452510995322
3.0200654159868523,3.0200654159868523
2.8138424907896824,2.8138424907896824
2.140122680081979,2.140122680081979
1.2191101243285163,1.2191101243285163
0.45888154415250837,0.45888154415250837
0.025463870856761297,0.025463870856761297
-0.18163288029463398,-0.18163288029463398
-0.33630007419251146,-0.33630007419251146
-0.4752384009143336,-0.4752384009143336
-0.561747170382638,-0.561747170382638
-0.5818451673298197,-0.5818451673298197
-0.5897096009178474,-0.5897096009178474
-0.608933771910804,-0.608933771910804
-0.6307794207664363,-0.6307794207664363
-0.6351485505375628,-0.6351485505375628
-0.6377700284002388,-0.6377700284002388
-0.6351485505375628,-0.6351485505375628
-0.6299055948122111,-0.6299055948122111
-0.608933771910804,-0.608933771910804
-0.6045646421396774,-0.6045646421396774
-0.608933771910804,-0.608933771910804
-0.6133029016819305,-0.6133029016819305
-0.5818451673298197,-0.5818451673298197
-0.5329109138932031,-0.5329109138932031
-0.4752384009143336,-0.4752384009143336
-0.4341685810657447,-0.4341685810657447
-0.3948464131256063,-0.3948464131256063
-0.370379286407298,-0.370379286407298
-0.36863163449884745,-0.36863163449884745
-0.393972587171381,-0.393972587171381
-0.3948464131256063,-0.3948464131256063
-0.346785985643215,-0.346785985643215
-0.26202486808336123,-0.26202486808336123
-0.19561409556223872,-0.19561409556223872
-0.1545442757136498,-0.1545442757136498
-0.12308654136153911,-0.12308654136153911
-0.0750261138791478,-0.0750261138791478
-0.03657777189323475,-0.03657777189323475
-0.021722730671404712,-0.021722730671404712
-0.03046099021365768,-0.03046099021365768
-0.021722730671404712,-0.021722730671404712
0.019347089177184223,0.019347089177184223
0.08488403574408146,0.08488403574408146
0.14343037467717631,0.14343037467717631
0.19149080215956762,0.19149080215956762
0.23780357773350835,0.23780357773350835
0.2989713945292791,0.2989713945292791
0.3653821670504016,0.3653821670504016
0.43179293957152415,0.43179293957152415
0.48160101896236607,0.48160101896236607
0.5121849273602515,0.5121849273602515
0.5183017090398285,0.5183017090398285
0.5121849273602515,0.5121849273602515
0.49033927850461906,0.49033927850461906
0.45888154415250837,0.45888154415250837
0.40994729071589175,0.40994729071589175
0.3522747777370222,0.3522747777370222
0.2640183563602672,0.2640183563602672
0.13818741895182454,0.13818741895182454
-0.011236819220701156,-0.011236819220701156
-0.1283294970868909,-0.1283294970868909
-0.19648792151646402,-0.19648792151646402
-0.23493626350237706,-0.23493626350237706
-0.28736582075589484,-0.28736582075589484
-0.34154302991786323,-0.34154302991786323
-0.38086519785800155,-0.38086519785800155
-0.3948464131256063,-0.3948464131256063
-0.4088276283932111,-0.4088276283932111
-0.42193501770659053,-0.42193501770659053
-0.43766388488264585,-0.43766388488264585
-0.4481497963333494,-0.4481497963333494
-0.4665001413720806,-0.4665001413720806
-0.4752384009143336,-0.4752384009143336
-0.46999544518898184,-0.46999544518898184
-0.4481497963333494,-0.4481497963333494
-0.43941153679109646,-0.43941153679109646
-0.4481497963333494,-0.4481497963333494
-0.4787337047312348,-0.4787337047312348
-0.5014531795410925,-0.5014531795410925
-0.5128129169460214,-0.5128129169460214
-0.5014531795410925,-0.5014531795410925
-0.48747196427348777,-0.48747196427348777
-0.4752384009143336,-0.4752384009143336
-0.47698605282278417,-0.47698605282278417
-0.4752384009143336,-0.4752384009143336
-0.4551404039671518,-0.4551404039671518
-0.3948464131256063,-0.3948464131256063
-0.3258141627418079,-0.3258141627418079
-0.28823964671012015,-0.28823964671012015
-0.32057120701645614,-0.32057120701645614
-0.3948464131256063,-0.3948464131256063
-0.46213101160095416,-0.46213101160095416
-0.4752384009143336,-0.4752384009143336
-0.44465449251644823,-0.44465449251644823
-0.3948464131256063,-0.3948464131256063
-0.3546504192312427,-0.3546504192312427
-0.3153282512911043,-0.3153282512911043
-0.2777537352594166,-0.2777537352594166
-0.23493626350237706,-0.23493626350237706
-0.1982355734249146,-0.1982355734249146
-0.1545442757136498,-0.1545442757136498
-0.10561002227703317,-0.10561002227703317
-0.04793750929816361,-0.04793750929816361
-0.0016247337242228938,-0.0016247337242228938
0.03158065253633837,0.03158065253633837
0.03682360826169015,0.03682360826169015
0.03158065253633837,0.03158065253633837
0.013230307497607147,0.013230307497607147
0.005365873909579478,0.005365873909579478
0.006239699863804775,0.006239699863804775
0.03158065253633837,0.03158065253633837
0.038571260170140745,0.038571260170140745
0.005365873909579478,0.005365873909579478
-0.06017107265731776,-0.06017107265731776
-0.10124089250590669,-0.10124089250590669
-0.1239603673157644,-0.1239603673157644
-0.1545442757136498,-0.1545442757136498
-0.2017308772418158,-0.2017308772418158
-0.23493626350237706,-0.23493626350237706
-0.2926087764812466,-0.2926087764812466
-0.3948464131256063,-0.3948464131256063
-0.3992155428967328,-0.3992155428967328
0.005365873909579478,0.005365873909579478
0.9307475594341684,0.9307475594341684
2.0597306922932517,2.0597306922932517
2.8313190098741883,2.8313190098741883
3.0200654159868523,3.0200654159868523
2.9379257762896747,2.9379257762896747
3.0200654159868523,3.0200654159868523
3.20444269232839,3.20444269232839
3.0200654159868523,3.0200654159868523
2.2301267533671845,2.2301267533671845
1.2060027350151368,1.2060027350151368
0.4545124143813819,0.4545124143813819
0.08488403574408146,0.08488403574408146
-0.13794158258336914,-0.13794158258336914
-0.34154302991786323,-0.34154302991786323
-0.4804813566396854,-0.4804813566396854
-0.5285417841220766,-0.5285417841220766
-0.5643686482453139,-0.5643686482453139
-0.608933771910804,-0.608933771910804
-0.6272841169495352,-0.6272841169495352
-0.608933771910804,-0.608933771910804
-0.6010693383227763,-0.6010693383227763
-0.608933771910804,-0.608933771910804
-0.6167982054988316,-0.6167982054988316
-0.608933771910804,-0.608933771910804
-0.6045646421396774,-0.6045646421396774
-0.5818451673298197,-0.5818451673298197
-0.5460183032065826,-0.5460183032065826
-0.5014531795410925,-0.5014531795410925
-0.497084049769966,-0.497084049769966
-0.5285417841220766,-0.5285417841220766
-0.5844666451924957,-0.5844666451924957
-0.608933771910804,-0.608933771910804
-0.5888357749636222,-0.5888357749636222
-0.5285417841220766,-0.5285417841220766
-0.46125718564672885,-0.46125718564672885
-0.3948464131256063,-0.3948464131256063
-0.3450383337347644,-0.3450383337347644
-0.3153282512911043,-0.3153282512911043
-0.32057120701645614,-0.32057120701645614
-0.34154302991786323,-0.34154302991786323
-0.35727189709391854,-0.35727189709391854
-0.34154302991786323,-0.34154302991786323
-0.3065899917488514,-0.3065899917488514
-0.26202486808336123,-0.26202486808336123
-0.2235765260974482,-0.2235765260974482
-0.18163288029463398,-0.18163288029463398
-0.13444627876646797,-0.13444627876646797
-0.0750261138791478,-0.0750261138791478
-0.01997507876295412,-0.01997507876295412
0.03158065253633837,0.03158065253633837
0.08051490597295498,0.08051490597295498
0.13818741895182454,0.13818741895182454
0.1941122800222435,0.1941122800222435
0.245668011321536,0.245668011321536
0.2989713945292791,0.2989713945292791
0.37848955636378107,0.37848955636378107
0.46499832583208545,0.46499832583208545
0.5121849273602515,0.5121849273602515
0.4746104113285637,0.4746104113285637
0.37848955636378107,0.37848955636378107
0.2788733975820973,0.2788733975820973
0.21857940674055182,0.21857940674055182
0.18013106475463878,0.18013106475463878
0.13818741895182454,0.13818741895182454
0.07352429833915261,0.07352429833915261
0.005365873909579478,0.005365873909579478
-0.05754959479464187,-0.05754959479464187
-0.10124089250590669,-0.10124089250590669
-0.14318453830872094,-0.14318453830872094
-0.18163288029463398,-0.18163288029463398
-0.2244503520516735,-0.2244503520516735
-0.26202486808336123,-0.26202486808336123
-0.30484233984040077,-0.30484233984040077
-0.34154302991786323,-0.34154302991786323
-0.36164102686504507,-0.36164102686504507
-0.34154302991786323,-0.34154302991786323
-0.31358059938265376,-0.31358059938265376
-0.3153282512911043,-0.3153282512911043
-0.36775780854462214,-0.36775780854462214
-0.42193501770659053,-0.42193501770659053
-0.4420330146537723,-0.4420330146537723
-0.42193501770659053,-0.42193501770659053
-0.3965940650340569,-0.3965940650340569
-0.36863163449884745,-0.36863163449884745
-0.34241685587208853,-0.34241685587208853
-0.3153282512911043,-0.3153282512911043
-0.3022208619777249,-0.3022208619777249
-0.28823964671012015,-0.28823964671012015
-0.2742584314425154,-0.2742584314425154
-0.26202486808336123,-0.26202486808336123
-0.2716369535798395,-0.2716369535798395
-0.28823964671012015,-0.28823964671012015
-0.3004732100692743,-0.3004732100692743
-0.28823964671012015,-0.28823964671012015
-0.26552017190026245,-0.26552017190026245
-0.23493626350237706,-0.23493626350237706
-0.21571209250942053,-0.21571209250942053
-0.20872148487561817,-0.20872148487561817
-0.21396444060096995,-0.21396444060096995
-0.20872148487561817,-0.20872148487561817
-0.19561409556223872,-0.19561409556223872
-0.18163288029463398,-0.18163288029463398
-0.17638992456928218,-0.17638992456928218
-0.1545442757136498,-0.1545442757136498
-0.11784358563618733,-0.11784358563618733
-0.0750261138791478,-0.0750261138791478
-0.0496851612066142,-0.0496851612066142
-0.021722730671404712,-0.021722730671404712
0.022842392994085407,0.022842392994085407
0.08488403574408146,0.08488403574408146
0.1259538555926704,0.1259538555926704
0.13818741895182454,0.13818741895182454
0.11459411818774154,0.11459411818774154
0.08488403574408146,0.08488403574408146
0.043814215895492524,0.043814215895492524
0.005365873909579478,0.005365873909579478
-0.021722730671404712,-0.021722730671404712
0.005365873909579478,0.005365873909579478
0.043814215895492524,0.043814215895492524
0.03158065253633837,0.03158065253633837
-0.04356837952703713,-0.04356837952703713
-0.10124089250590669,-0.10124089250590669
-0.14580601617139682,-0.14580601617139682
-0.23493626350237706,-0.23493626350237706
-0.3537765932770174,-0.3537765932770174
-0.3948464131256063,-0.3948464131256063
-0.402710846713634,-0.402710846713634
-0.4481497963333494,-0.4481497963333494
-0.2917349505270213,-0.2917349505270213
0.5121849273602515,0.5121849273602515
1.875353415951714,1.875353415951714
3.0200654159868523,3.0200654159868523
3.3084279808812003,3.3084279808812003
3.0200654159868523,3.0200654159868523
2.8610290923178483,2.8610290923178483
3.0200654159868523,3.0200654159868523
3.0174439381241767,3.0174439381241767
2.4599429793284373,2.4599429793284373
1.5022297334975123,1.5022297334975123
0.6187916937757376,0.6187916937757376
0.0761457762018285,0.0761457762018285
-0.18163288029463398,-0.18163288029463398
-0.34241685587208853,-0.34241685587208853
-0.4752384009143336,-0.4752384009143336
-0.5599995184741874,-0.5599995184741874
-0.5818451673298197,-0.5818451673298197
-0.5923310787805234,-0.5923310787805234
-0.608933771910804,-0.608933771910804
-0.6185458574072822,-0.6185458574072822
-0.608933771910804,-0.608933771910804
-0.6054384680939028,-0.6054384680939028
-0.608933771910804,-0.608933771910804
-0.6141767276361557,-0.6141767276361557
-0.608933771910804,-0.608933771910804
-0.6141767276361557,-0.6141767276361557
-0.608933771910804,-0.608933771910804
-0.5984478604601005,-0.5984478604601005
-0.5818451673298197,-0.5818451673298197
-0.5844666451924957,-0.5844666451924957
-0.5818451673298197,-0.5818451673298197
-0.5669901261079897,-0.5669901261079897
-0.5285417841220766,-0.5285417841220766
-0.4892196161819383,-0.4892196161819383
-0.4481497963333494,-0.4481497963333494
-0.41232293221011224,-0.41232293221011224
-0.36863163449884745,-0.36863163449884745
-0.33367859632983554,-0.33367859632983554
-0.3153282512911043,-0.3153282512911043
-0.3258141627418079,-0.3258141627418079
-0.34154302991786323,-0.34154302991786323
-0.3450383337347644,-0.3450383337347644
-0.3153282512911043,-0.3153282512911043
-0.26464634594603714,-0.26464634594603714
-0.20872148487561817,-0.20872148487561817
-0.17289462075238102,-0.17289462075238102
-0.1545442757136498,-0.1545442757136498
-0.14231071235449563,-0.14231071235449563
-0.10124089250590669,-0.10124089250590669
-0.03745159784746005,-0.03745159784746005
0.03158065253633837,0.03158065253633837
0.08488403574408146,0.08488403574408146
0.13818741895182454,0.13818741895182454
0.1941122800222435,0.1941122800222435
0.245668011321536,0.245668011321536
0.2736304418567455,0.2736304418567455
0.2989713945292791,0.2989713945292791
0.33305060674406567,0.33305060674406567
0.37848955636378107,0.37848955636378107
0.3985875533109629,0.3985875533109629
0.37848955636378107,0.37848955636378107
0.3042143502546309,0.3042143502546309
0.19149080215956762,0.19149080215956762
0.06041690902577316,0.06041690902577316
-0.04793750929816361,-0.04793750929816361
-0.11871741159041263,-0.11871741159041263
-0.1545442757136498,-0.1545442757136498
-0.19037113983688694,-0.19037113983688694
-0.23493626350237706,-0.23493626350237706
-0.2926087764812466,-0.2926087764812466
-0.34154302991786323,-0.34154302991786323
-0.3799913719037763,-0.3799913719037763
-0.3948464131256063,-0.3948464131256063
-0.4000893688509581,-0.4000893688509581
-0.3948464131256063,-0.3948464131256063
-0.39834171694250753,-0.39834171694250753
-0.3948464131256063,-0.3948464131256063
-0.3730007642699739,-0.3730007642699739
-0.3153282512911043,-0.3153282512911043
-0.2707631276256142,-0.2707631276256142
-0.28823964671012015,-0.28823964671012015
-0.37474841617842447,-0.37474841617842447
-0.4481497963333494,-0.4481497963333494
-0.46125718564672885,-0.46125718564672885
-0.42193501770659053,-0.42193501770659053
-0.38960345740025454,-0.38960345740025454
-0.36863163449884745,-0.36863163449884745
-0.346785985643215,-0.346785985643215
-0.3153282512911043,-0.3153282512911043
-0.29697790625237314,-0.29697790625237314
-0.28823964671012015,-0.28823964671012015
-0.28823964671012015,-0.28823964671012015
-0.28823964671012015,-0.28823964671012015
-0.29610408029814783,-0.29610408029814783
-0.28823964671012015,-0.28823964671012015
-0.26552017190026245,-0.26552017190026245
-0.23493626350237706,-0.23493626350237706
-0.22794565586857468,-0.22794565586857468
-0.23493626350237706,-0.23493626350237706
-0.24367452304463003,-0.24367452304463003
-0.23493626350237706,-0.23493626350237706
-0.2227027001432229,-0.2227027001432229
-0.20872148487561817,-0.20872148487561817
-0.1991093993791399,-0.1991093993791399
-0.18163288029463398,-0.18163288029463398
-0.15803957953055098,-0.15803957953055098
-0.1283294970868909,-0.1283294970868909
-0.11696975968196203,-0.11696975968196203
-0.1283294970868909,-0.1283294970868909
-0.15367044975942448,-0.15367044975942448
-0.1545442757136498,-0.1545442757136498
-0.13532010472069325,-0.13532010472069325
-0.10124089250590669,-0.10124089250590669
-0.08725967723830196,-0.08725967723830196
-0.0750261138791478,-0.0750261138791478
-0.06628785433689484,-0.06628785433689484
-0.04793750929816361,-0.04793750929816361
-0.040946901664361234,-0.040946901664361234
-0.021722730671404712,-0.021722730671404712
0.0001229181842276991,0.0001229181842276991
0.005365873909579478,0.005365873909579478
-0.04531603143548772,-0.04531603143548772
-0.1283294970868909,-0.1283294970868909
-0.21571209250942053,-0.21571209250942053
-0.28823964671012015,-0.28823964671012015
-0.3633886787734956,-0.3633886787734956
-0.42193501770659053,-0.42193501770659053
-0.4105752803016616,-0.4105752803016616
-0.18163288029463398,-0.18163288029463398
0.4370358952968759,0.4370358952968759
1.4463048724270935,1.4463048724270935
2.461690631236888,2.461690631236888
3.0200654159868523,3.0200654159868523
3.0698734953776943,3.0698734953776943
3.0200654159868523,3.0200654159868523
3.095214448050228,3.095214448050228
3.0200654159868523,3.0200654159868523
2.452952371694635,2.452952371694635
1.5529116388425797,1.5529116388425797
0.7620991502686862,0.7620991502686862
0.2989713945292791,0.2989713945292791
0.02721152276521189,0.02721152276521189
-0.18163288029463398,-0.18163288029463398
-0.3293094665587091,-0.3293094665587091
-0.3948464131256063,-0.3948464131256063
-0.43504240701996993,-0.43504240701996993
-0.4752384009143336,-0.4752384009143336
