ECG,PPG
0.5046739506943806,0.5046739506943806
0.808225828391736,0.808225828391736
0.46652262180345616,0.46652262180345616
0.2716190937737334,0.2716190937737334
0.39104934073662734,0.39104934073662734
0.43666506006273265,0.43666506006273265
0.3155760596697985,0.3155760596697985
0.2699603403436932,0.2699603403436932
0.353727388560723,0.353727388560723
0.3562155187057833,0.3562155187057833
0.24010277860296972,0.24010277860296972
0.14057757280055813,0.14057757280055813
0.12647816864521647,0.12647816864521647
0.10740250419975425,0.10740250419975425
0.05100488757838768,0.05100488757838768
-0.012857119478159774,-0.012857119478159774
-0.06179034566434548,-0.06179034566434548
-0.10823544170547089,-0.10823544170547089
-0.1372636267311743,-0.1372636267311743
-0.15136303088651593,-0.15136303088651593
-0.17541495562209874,-0.17541495562209874
-0.21356628451302317,-0.21356628451302317
-0.21356628451302317,-0.21356628451302317
-0.1555099144616164,-0.1555099144616164
-0.024468393488441126,-0.024468393488441126
0.22849150459268838,0.22849150459268838
0.6937718417189627,0.6937718417189627
1.3423444328646783,1.3423444328646783
2.0531202776369013,2.0531202776369013
2.7307210538083204,2.7307210538083204
3.337824809203031,3.337824809203031
3.6662579883509894,3.6662579883509894
3.4132980902698598,3.4132980902698598
2.5441112929287986,2.5441112929287986
1.4866559812781752,1.4866559812781752
0.6921130882889225,0.6921130882889225
0.24010277860296972,0.24010277860296972
-0.06261972237936558,-0.06261972237936558
-0.289039565579852,-0.289039565579852
-0.3869060179522234,-0.3869060179522234
-0.36451284664668077,-0.36451284664668077
-0.340460921911098,-0.340460921911098
-0.36451284664668077,-0.36451284664668077
-0.4068110591127057,-0.4068110591127057
-0.4399861277135096,-0.4399861277135096
-0.4897487306147154,-0.4897487306147154
-0.5527813609562428,-0.5527813609562428
-0.6083496008625893,-0.6083496008625893
-0.6290840187380916,-0.6290840187380916
-0.6357190324582525,-0.6357190324582525
-0.6290840187380916,-0.6290840187380916
-0.6108377310076495,-0.6108377310076495
-0.5527813609562428,-0.5527813609562428
-0.4773080798894139,-0.4773080798894139
-0.40183479882258516,-0.40183479882258516
-0.37114786036684155,-0.37114786036684155
-0.36451284664668077,-0.36451284664668077
-0.3595365863565602,-0.3595365863565602
-0.32636151775575634,-0.32636151775575634
-0.2765989148545505,-0.2765989148545505
-0.21356628451302317,-0.21356628451302317
-0.15385116103157623,-0.15385116103157623
-0.09994167455526994,-0.09994167455526994
-0.07257224295960674,-0.07257224295960674
-0.06179034566434548,-0.06179034566434548
-0.057643462089245,-0.057643462089245
-0.024468393488441126,-0.024468393488441126
0.03939361356810632,0.03939361356810632
0.12647816864521647,0.12647816864521647
0.20775708671718596,0.20775708671718596
0.2782541074938942,0.2782541074938942
0.3238698268199995,0.3238698268199995
0.353727388560723,0.353727388560723
0.3678267927160646,0.3678267927160646
0.39104934073662734,0.39104934073662734
0.4250537860524513,0.4250537860524513
0.46652262180345616,0.46652262180345616
0.4905745465390389,0.4905745465390389
0.5046739506943806,0.5046739506943806
0.516285224704662,0.516285224704662
0.541995902870285,0.541995902870285
0.5643890741758275,0.5643890741758275
0.5801472317612094,0.5801472317612094
0.5892703756264305,0.5892703756264305
0.6174691839371137,0.6174691839371137
0.6489854991078774,0.6489854991078774
0.6556205128280382,0.6556205128280382
0.6091754167869128,0.6091754167869128
0.541995902870285,0.541995902870285
0.4855982862489184,0.4855982862489184
0.46652262180345616,0.46652262180345616
0.46320511494337574,0.46320511494337574
0.46652262180345616,0.46652262180345616
0.4540819710781547,0.4540819710781547
0.42920066962755177,0.42920066962755177
0.3951962243117278,0.3951962243117278
0.39104934073662734,0.39104934073662734
0.4200775257623307,0.4200775257623307
0.46652262180345616,0.46652262180345616
0.49306267668409925,0.49306267668409925
0.5046739506943806,0.5046739506943806
0.5038445739793604,0.5038445739793604
0.5046739506943806,0.5046739506943806
0.5005270671192801,0.5005270671192801
0.5046739506943806,0.5046739506943806
0.5046739506943806,0.5046739506943806
0.5046739506943806,0.5046739506943806
0.5055033274094007,0.5055033274094007
0.541995902870285,0.541995902870285
0.5834647386212898,0.5834647386212898
0.5801472317612094,0.5801472317612094
0.48311015610385805,0.48311015610385805
0.353727388560723,0.353727388560723
0.24922592246819078,0.24922592246819078
0.2019514497120453,0.2019514497120453
0.17707014826144238,0.17707014826144238
0.16462949753614092,0.16462949753614092
0.15053009338079928,0.15053009338079928
0.12647816864521647,0.12647816864521647
0.07505681231397048,0.07505681231397048
0.013682935402483323,0.013682935402483323
-0.05017907165406413,-0.05017907165406413
-0.09994167455526994,-0.09994167455526994
-0.11487045542563167,-0.11487045542563167
-0.024468393488441126,-0.024468393488441126
0.2226858675875477,0.2226858675875477
0.6556205128280382,0.6556205128280382
1.2569186312176084,1.2569186312176084
1.9776469965700725,1.9776469965700725
2.658565279601572,2.658565279601572
3.07325363711162,3.07325363711162
3.0317848013606152,3.0317848013606152
2.5441112929287986,2.5441112929287986
1.78523159868541,1.78523159868541
0.9956649659862779,0.9956649659862779
0.33299297068522055,0.33299297068522055
-0.1372636267311743,-0.1372636267311743
-0.44330363457358996,-0.44330363457358996
-0.6290840187380916,-0.6290840187380916
-0.7385617451207445,-0.7385617451207445
-0.7800305808717493,-0.7800305808717493
-0.7725661904365684,-0.7725661904365684
-0.7418792519808248,-0.7418792519808248
-0.7410498752658047,-0.7410498752658047
-0.7800305808717493,-0.7800305808717493
-0.8256463001978546,-0.8256463001978546
-0.8173525330476537,-0.8173525330476537
-0.760954916426287,-0.760954916426287
-0.7045572998049204,-0.7045572998049204
-0.6954341559396994,-0.6954341559396994
-0.7045572998049204,-0.7045572998049204
-0.7103629368100611,-0.7103629368100611
-0.7045572998049204,-0.7045572998049204
-0.7136804436701415,-0.7136804436701415
-0.7045572998049204,-0.7045572998049204
-0.6630884640539156,-0.6630884640539156
-0.5909326898471672,-0.5909326898471672
-0.5279000595056399,-0.5279000595056399
-0.4773080798894139,-0.4773080798894139
-0.44745051814869047,-0.44745051814869047
-0.4399861277135096,-0.4399861277135096
-0.4623792990190522,-0.4623792990190522
-0.4773080798894139,-0.4773080798894139
-0.44910927157873065,-0.44910927157873065
-0.36451284664668077,-0.36451284664668077
-0.27328140799447015,-0.27328140799447015
-0.21356628451302317,-0.21356628451302317
-0.19366124335254087,-0.19366124335254087
-0.17541495562209874,-0.17541495562209874
-0.14389864045133505,-0.14389864045133505
-0.09994167455526994,-0.09994167455526994
-0.06261972237936558,-0.06261972237936558
-0.024468393488441126,-0.024468393488441126
0.0037304148222421615,0.0037304148222421615
0.013682935402483323,0.013682935402483323
-0.0070514824730190965,-0.0070514824730190965
-0.024468393488441126,-0.024468393488441126
-0.017004003053260257,-0.017004003053260257
0.013682935402483323,0.013682935402483323
0.03607610670802593,0.03607610670802593
0.05100488757838768,0.05100488757838768
0.06510429173372932,0.06510429173372932
0.08915621646931213,0.08915621646931213
0.10906125762979445,0.10906125762979445
0.12647816864521647,0.12647816864521647
0.13145442893533707,0.13145442893533707
0.12647816864521647,0.12647816864521647
0.11569627134995522,0.11569627134995522
0.12647816864521647,0.12647816864521647
0.15799448381598016,0.15799448381598016
0.2019514497120453,0.2019514497120453
0.2500552991832109,0.2500552991832109
0.3155760596697985,0.3155760596697985
0.36533866257100434,0.36533866257100434
0.353727388560723,0.353727388560723
0.2500552991832109,0.2500552991832109
0.12647816864521647,0.12647816864521647
0.05100488757838768,0.05100488757838768
0.05100488757838768,0.05100488757838768
0.061786784873648935,0.061786784873648935
0.05100488757838768,0.05100488757838768
0.012024181972443128,0.012024181972443128
-0.024468393488441126,-0.024468393488441126
-0.07091348952956654,-0.07091348952956654
-0.1372636267311743,-0.1372636267311743
-0.22600693523832463,-0.22600693523832463
-0.289039565579852,-0.289039565579852
-0.2965039560150329,-0.2965039560150329
-0.2508882366889275,-0.2508882366889275
-0.19449062006756096,-0.19449062006756096
-0.1372636267311743,-0.1372636267311743
-0.05432595522916461,-0.05432595522916461
0.12647816864521647,0.12647816864521647
0.46237573822835565,0.46237573822835565
0.9956649659862779,0.9956649659862779
1.69980579703834,1.69980579703834
2.4686380118619695,2.4686380118619695
3.0873530412669616,3.0873530412669616
3.337824809203031,3.337824809203031
3.1022818221373236,3.1022818221373236
2.4686380118619695,2.4686380118619695
1.6508725708521543,1.6508725708521543
0.8820403560285246,0.8820403560285246
0.27991286092393436,0.27991286092393436
-0.1372636267311743,-0.1372636267311743
-0.4151048262629067,-0.4151048262629067
-0.5909326898471672,-0.5909326898471672
-0.7145098203851616,-0.7145098203851616
-0.8173525330476537,-0.8173525330476537
-0.9135602319899848,-0.9135602319899848
-0.9682990951813112,-0.9682990951813112
-0.9591759513160901,-0.9591759513160901
-0.8928258141144824,-0.8928258141144824
-0.8322813139180153,-0.8322813139180153
-0.8173525330476537,-0.8173525330476537
-0.8538451085085379,-0.8538451085085379
-0.8928258141144824,-0.8928258141144824
-0.9119014785599446,-0.9119014785599446
-0.8928258141144824,-0.8928258141144824
-0.863797629088779,-0.863797629088779
-0.8173525330476537,-0.8173525330476537
-0.769248683576488,-0.769248683576488
-0.7045572998049204,-0.7045572998049204
-0.6440127996084534,-0.6440127996084534
-0.5909326898471672,-0.5909326898471672
-0.5619045048214638,-0.5619045048214638
-0.5527813609562428,-0.5527813609562428
-0.5784920391218658,-0.5784920391218658
-0.6290840187380916,-0.6290840187380916
-0.6755291147792171,-0.6755291147792171
-0.666405970913996,-0.666405970913996
-0.6025439638574486,-0.6025439638574486
-0.5154594087803384,-0.5154594087803384
-0.4416448811435498,-0.4416448811435498
-0.36451284664668077,-0.36451284664668077
-0.2832339285747113,-0.2832339285747113
-0.21356628451302317,-0.21356628451302317
-0.17375620219205853,-0.17375620219205853
-0.1372636267311743,-0.1372636267311743
-0.10408855813037042,-0.10408855813037042
-0.09994167455526994,-0.09994167455526994
-0.1339461198710939,-0.1339461198710939
-0.1372636267311743,-0.1372636267311743
-0.06593722923944596,-0.06593722923944596
0.05100488757838768,0.05100488757838768
0.13394255908039734,0.13394255908039734
0.16462949753614092,0.16462949753614092
0.15550635367091986,0.15550635367091986
0.12647816864521647,0.12647816864521647
0.08086244931911116,0.08086244931911116
0.05100488757838768,0.05100488757838768
0.045199250573246995,0.045199250573246995
0.05100488757838768,0.05100488757838768
0.04685800400328719,0.04685800400328719
0.05100488757838768,0.05100488757838768
0.05929865472858864,0.05929865472858864
0.05100488757838768,0.05100488757838768
0.008706675112362741,0.008706675112362741
-0.024468393488441126,-0.024468393488441126
-0.02861527706354161,-0.02861527706354161
-0.024468393488441126,-0.024468393488441126
-0.0568140853742249,-0.0568140853742249
-0.09994167455526994,-0.09994167455526994
-0.11984671571575226,-0.11984671571575226
-0.09994167455526994,-0.09994167455526994
-0.06759598266948616,-0.06759598266948616
-0.024468393488441126,-0.024468393488441126
0.016171065547543613,0.016171065547543613
0.05100488757838768,0.05100488757838768
0.07422743559895038,0.07422743559895038
0.12647816864521647,0.12647816864521647
0.21522147715236684,0.21522147715236684
0.3155760596697985,0.3155760596697985
0.3736324297212053,0.3736324297212053
0.39104934073662734,0.39104934073662734
0.3869024571615268,0.3869024571615268
0.39104934073662734,0.39104934073662734
0.4010018613168685,0.4010018613168685
0.42920066962755177,0.42920066962755177
0.46652262180345616,0.46652262180345616
0.5046739506943806,0.5046739506943806
0.5154558479896418,0.5154558479896418
0.5046739506943806,0.5046739506943806
0.48062202595879777,0.48062202595879777
0.46652262180345616,0.46652262180345616
0.46071698479831547,0.46071698479831547
0.46652262180345616,0.46652262180345616
0.46818137523349634,0.46818137523349634
0.46652262180345616,0.46652262180345616
0.4391531902077929,0.4391531902077929
0.39104934073662734,0.39104934073662734
0.31308792952473824,0.31308792952473824
0.24010277860296972,0.24010277860296972
0.1729232646863419,0.1729232646863419
0.12647816864521647,0.12647816864521647
0.07422743559895038,0.07422743559895038
0.013682935402483323,0.013682935402483323
-0.055155331944184705,-0.055155331944184705
-0.09994167455526994,-0.09994167455526994
-0.12399359929085274,-0.12399359929085274
-0.1372636267311743,-0.1372636267311743
-0.16131555146675708,-0.16131555146675708
-0.17541495562209874,-0.17541495562209874
-0.16877994190193796,-0.16877994190193796
-0.09994167455526994,-0.09994167455526994
0.10491437405469396,0.10491437405469396
0.541995902870285,0.541995902870285
1.1897391173009806,1.1897391173009806
1.939495667679148,1.939495667679148
2.6925697249173957,2.6925697249173957
3.3751467613789354,3.3751467613789354
3.7707594544435215,3.7707594544435215
3.6015666045794217,3.6015666045794217
2.831075636325752,2.831075636325752
1.8267004344364148,1.8267004344364148
0.9998118495613784,0.9998118495613784
0.46652262180345616,0.46652262180345616
0.08666808632425184,0.08666808632425184
-0.21356628451302317,-0.21356628451302317
-0.4051523056826655,-0.4051523056826655
-0.4773080798894139,-0.4773080798894139
-0.511312525205238,-0.511312525205238
-0.5527813609562428,-0.5527813609562428
-0.6000558337123882,-0.6000558337123882
-0.6290840187380916,-0.6290840187380916
-0.6523065667586544,-0.6523065667586544
-0.666405970913996,-0.666405970913996
-0.6639178407689357,-0.6639178407689357
-0.6290840187380916,-0.6290840187380916
-0.5884445597021069,-0.5884445597021069
-0.5527813609562428,-0.5527813609562428
-0.5279000595056399,-0.5279000595056399
-0.4773080798894139,-0.4773080798894139
-0.4383273742834694,-0.4383273742834694
-0.4399861277135096,-0.4399861277135096
-0.4847724703245948,-0.4847724703245948
-0.4773080798894139,-0.4773080798894139
-0.39105290152732386,-0.39105290152732386
-0.289039565579852,-0.289039565579852
-0.263328887414229,-0.263328887414229
-0.289039565579852,-0.289039565579852
-0.30562709988025394,-0.30562709988025394
-0.289039565579852,-0.289039565579852
-0.27245203127945006,-0.27245203127945006
-0.2508882366889275,-0.2508882366889275
-0.21771316808812366,-0.21771316808812366
-0.17541495562209874,-0.17541495562209874
-0.15385116103157623,-0.15385116103157623
-0.1372636267311743,-0.1372636267311743
-0.10077105127029003,-0.10077105127029003
-0.024468393488441126,-0.024468393488441126
0.07671556574401067,0.07671556574401067
0.2019514497120453,0.2019514497120453
0.33879860769036124,0.33879860769036124
0.46652262180345616,0.46652262180345616
0.5386783960102045,0.5386783960102045
0.541995902870285,0.541995902870285
0.4988683136892399,0.4988683136892399
0.46652262180345616,0.46652262180345616
0.4590582313682753,0.4590582313682753
0.46652262180345616,0.46652262180345616
0.46320511494337574,0.46320511494337574
0.46652262180345616,0.46652262180345616
0.48228077938883795,0.48228077938883795
0.5046739506943806,0.5046739506943806
0.4972095602591997,0.4972095602591997
0.46652262180345616,0.46652262180345616
0.4242244093374312,0.4242244093374312
0.39104934073662734,0.39104934073662734
0.3520686351306828,0.3520686351306828
0.3155760596697985,0.3155760596697985
0.294012265079276,0.294012265079276
0.3155760596697985,0.3155760596697985
0.35953302556586364,0.35953302556586364
0.39104934073662734,0.39104934073662734
0.3678267927160646,0.3678267927160646
0.3155760596697985,0.3155760596697985
0.2824009910689947,0.2824009910689947
0.3155760596697985,0.3155760596697985
0.39104934073662734,0.39104934073662734
0.46652262180345616,0.46652262180345616
0.49969769040426,0.49969769040426
0.5046739506943806,0.5046739506943806
0.4905745465390389,0.4905745465390389
0.46652262180345616,0.46652262180345616
0.41510126547221016,0.41510126547221016
0.353727388560723,0.353727388560723
0.2973297719393564,0.2973297719393564
0.2782541074938942,0.2782541074938942
0.2741072239187937,0.2741072239187937
0.2782541074938942,0.2782541074938942
0.250884675898231,0.250884675898231
0.2019514497120453,0.2019514497120453
0.12813692207525668,0.12813692207525668
0.05100488757838768,0.05100488757838768
-0.031103407208601903,-0.031103407208601903
-0.09994167455526994,-0.09994167455526994
-0.14306926373631496,-0.14306926373631496
-0.1372636267311743,-0.1372636267311743
-0.109064818420491,-0.109064818420491
-0.09994167455526994,-0.09994167455526994
-0.14804552402643553,-0.14804552402643553
-0.21356628451302317,-0.21356628451302317
-0.2052725173628222,-0.2052725173628222
-0.024468393488441126,-0.024468393488441126
0.3553861419907632,0.3553861419907632
0.920191684919449,0.920191684919449
1.6201856323964108,1.6201856323964108
2.393164730795141,2.393164730795141
3.0757417672566802,3.0757417672566802
3.450620042445764,3.450620042445764
3.3411423160631113,3.3411423160631113
2.770531136129285,2.770531136129285
1.938666290964128,1.938666290964128
1.108460199229011,1.108460199229011
0.44081194363783316,0.44081194363783316
-0.024468393488441126,-0.024468393488441126
-0.3379727917660377,-0.3379727917660377
-0.5527813609562428,-0.5527813609562428
-0.7111923135250813,-0.7111923135250813
-0.8173525330476537,-0.8173525330476537
-0.8795557866741609,-0.8795557866741609
-0.8928258141144824,-0.8928258141144824
-0.8803851633891809,-0.8803851633891809
-0.8555038619385781,-0.8555038619385781
-0.8389163276381761,-0.8389163276381761
-0.8173525330476537,-0.8173525330476537
-0.78666559459191,-0.78666559459191
-0.7418792519808248,-0.7418792519808248
-0.7236329642503827,-0.7236329642503827
-0.7418792519808248,-0.7418792519808248
-0.7941299850270909,-0.7941299850270909
-0.8173525330476537,-0.8173525330476537
-0.7999356220322316,-0.7999356220322316
-0.7418792519808248,-0.7418792519808248
-0.6771878682092572,-0.6771878682092572
-0.5909326898471672,-0.5909326898471672
-0.48228434017953453,-0.48228434017953453
-0.36451284664668077,-0.36451284664668077
-0.2848926820047515,-0.2848926820047515
-0.2508882366889275,-0.2508882366889275
-0.2409357161086864,-0.2409357161086864
-0.21356628451302317,-0.21356628451302317
-0.1629743048967973,-0.1629743048967973
-0.09994167455526994,-0.09994167455526994
-0.05432595522916461,-0.05432595522916461
-0.024468393488441126,-0.024468393488441126
0.0037304148222421615,0.0037304148222421615
0.05100488757838768,0.05100488757838768
0.09993811376457339,0.09993811376457339
0.12647816864521647,0.12647816864521647
0.12399003850015619,0.12399003850015619
0.12647816864521647,0.12647816864521647
0.1472125865207189,0.1472125865207189
0.16462949753614092,0.16462949753614092
0.12896629879027677,0.12896629879027677
0.05100488757838768,0.05100488757838768
-0.01866275648330045,-0.01866275648330045
-0.024468393488441126,-0.024468393488441126
0.01451231211750342,0.01451231211750342
0.05100488757838768,0.05100488757838768
0.05266364100842787,0.05266364100842787
0.05100488757838768,0.05100488757838768
0.05598114786850825,0.05598114786850825
0.05100488757838768,0.05100488757838768
0.0020716613922019678,0.0020716613922019678
-0.06179034566434548,-0.06179034566434548
-0.10242980470033022,-0.10242980470033022
-0.09994167455526994,-0.09994167455526994
-0.09247728412008906,-0.09247728412008906
-0.09994167455526994,-0.09994167455526994
-0.12565235272089292,-0.12565235272089292
-0.1372636267311743,-0.1372636267311743
-0.1306286130110135,-0.1306286130110135
-0.09994167455526994,-0.09994167455526994
-0.06344909909438567,-0.06344909909438567
-0.024468393488441126,-0.024468393488441126
0.008706675112362741,0.008706675112362741
0.05100488757838768,0.05100488757838768
0.11237876448987483,0.11237876448987483
0.2019514497120453,0.2019514497120453
0.2824009910689947,0.2824009910689947
0.3155760596697985,0.3155760596697985
0.28571849792907505,0.28571849792907505
0.24010277860296972,0.24010277860296972
0.21024521686224626,0.21024521686224626
0.2019514497120453,0.2019514497120453
0.17458201811638208,0.17458201811638208
0.12647816864521647,0.12647816864521647
0.06261616158866903,0.06261616158866903
0.013682935402483323,0.013682935402483323
-0.04188530450386316,-0.04188530450386316
-0.09994167455526994,-0.09994167455526994
-0.16546243504185756,-0.16546243504185756
-0.21356628451302317,-0.21356628451302317
-0.25171761340394766,-0.25171761340394766
-0.289039565579852,-0.289039565579852
-0.3346552849059573,-0.3346552849059573
-0.36451284664668077,-0.36451284664668077
-0.37280661379688174,-0.37280661379688174
-0.36451284664668077,-0.36451284664668077
-0.34958406577631906,-0.34958406577631906
-0.289039565579852,-0.289039565579852
-0.1331167431560738,-0.1331167431560738
0.16462949753614092,0.16462949753614092
0.6141516770770333,0.6141516770770333
1.2220848091867642,1.2220848091867642
1.9419837978242083,1.9419837978242083
2.657735902886552,2.657735902886552
3.15785006204367,3.15785006204367
3.261522151421182,3.261522151421182
2.9123545543977216,2.9123545543977216
2.2422181686614833,2.2422181686614833
1.4626040565425924,1.4626040565425924
0.7692451227857915,0.7692451227857915
0.24507903889309032,0.24507903889309032
-0.09994167455526994,-0.09994167455526994
-0.32304401089567597,-0.32304401089567597
-0.4773080798894139,-0.4773080798894139
-0.6066908474325491,-0.6066908474325491
-0.7045572998049204,-0.7045572998049204
-0.7642724232863675,-0.7642724232863675
-0.7800305808717493,-0.7800305808717493
-0.7717368137215482,-0.7717368137215482
-0.7418792519808248,-0.7418792519808248
-0.7062160532349606,-0.7062160532349606
-0.666405970913996,-0.666405970913996
-0.6448421763234735,-0.6448421763234735
-0.6290840187380916,-0.6290840187380916
-0.6083496008625893,-0.6083496008625893
-0.5527813609562428,-0.5527813609562428
-0.4897487306147154,-0.4897487306147154
-0.4399861277135096,-0.4399861277135096
-0.435009867423389,-0.435009867423389
-0.4399861277135096,-0.4399861277135096
-0.435009867423389,-0.435009867423389
-0.40183479882258516,-0.40183479882258516
-0.3537309493514195,-0.3537309493514195
-0.289039565579852,-0.289039565579852
-0.22600693523832463,-0.22600693523832463
-0.17541495562209874,-0.17541495562209874
-0.14306926373631496,-0.14306926373631496
-0.09994167455526994,-0.09994167455526994
-0.051008448369084226,-0.051008448369084226
-0.024468393488441126,-0.024468393488441126
-0.051008448369084226,-0.051008448369084226
-0.09994167455526994,-0.09994167455526994
-0.1331167431560738,-0.1331167431560738
-0.1372636267311743,-0.1372636267311743
-0.13975175687623456,-0.13975175687623456
-0.1372636267311743,-0.1372636267311743
-0.11735858557069197,-0.11735858557069197
-0.06179034566434548,-0.06179034566434548
-0.0004164687528583223,-0.0004164687528583223
0.05100488757838768,0.05100488757838768
0.08500933289421164,0.08500933289421164
0.12647816864521647,0.12647816864521647
0.1720938879713218,0.1720938879713218
0.2019514497120453,0.2019514497120453
0.18370516198160317,0.18370516198160317
0.12647816864521647,0.12647816864521647
0.05763990129854845,0.05763990129854845
0.013682935402483323,0.013682935402483323
-0.012027742763139677,-0.012027742763139677
-0.024468393488441126,-0.024468393488441126
-0.033591537353662194,-0.033591537353662194
-0.024468393488441126,-0.024468393488441126
-0.006222105757999,-0.006222105757999
0.013682935402483323,0.013682935402483323
0.015341688832523516,0.015341688832523516
0.013682935402483323,0.013682935402483323
0.009536051827382838,0.009536051827382838
0.013682935402483323,0.013682935402483323
0.021976702552684288,0.021976702552684288
0.05100488757838768,0.05100488757838768
0.09081496989935232,0.09081496989935232
0.12647816864521647,0.12647816864521647
0.13228380565035716,0.13228380565035716
0.12647816864521647,0.12647816864521647
0.13145442893533707,0.13145442893533707
0.16462949753614092,0.16462949753614092
0.1961458127069046,0.1961458127069046
0.2019514497120453,0.2019514497120453
0.1696057578262615,0.1696057578262615
0.12647816864521647,0.12647816864521647
0.0941324767594327,0.0941324767594327
0.08915621646931213,0.08915621646931213
0.09081496989935232,0.09081496989935232
0.08915621646931213,0.08915621646931213
0.05017551086336758,0.05017551086336758
-0.024468393488441126,-0.024468393488441126
-0.14887490074145562,-0.14887490074145562
-0.289039565579852,-0.289039565579852
-0.4117873194028263,-0.4117873194028263
-0.4773080798894139,-0.4773080798894139
-0.5021893813400169,-0.5021893813400169
-0.5154594087803384,-0.5154594087803384
-0.5486344773811422,-0.5486344773811422
-0.5909326898471672,-0.5909326898471672
-0.6440127996084534,-0.6440127996084534
-0.7045572998049204,-0.7045572998049204
-0.7592961629962468,-0.7592961629962468
-0.7418792519808248,-0.7418792519808248
-0.5859564295570466,-0.5859564295570466
-0.2508882366889275,-0.2508882366889275
0.2566903129033717,0.2566903129033717
0.920191684919449,0.920191684919449
1.6682894818675762,1.6682894818675762
2.3550134019042166,2.3550134019042166
2.763896122409124,2.763896122409124
2.7332091839533805,2.7332091839533805
2.248023805666624,2.248023805666624
1.4866559812781752,1.4866559812781752
0.6987481020090832,0.6987481020090832
0.08915621646931213,0.08915621646931213
-0.2956745793000128,-0.2956745793000128
-0.5154594087803384,-0.5154594087803384
-0.6622590873388955,-0.6622590873388955
-0.7800305808717493,-0.7800305808717493
-0.8919964373994623,-0.8919964373994623
-1.0064504240722356,-1.0064504240722356
-1.1308569313252501,-1.1308569313252501
-1.232870267272722,-1.232870267272722
-1.275168479738747,-1.275168479738747
-1.232870267272722,-1.232870267272722
-1.1391506984754511,-1.1391506984754511
-1.0437723762481401,-1.0437723762481401
-0.991521643201874,-0.991521643201874
-0.9682990951813112,-0.9682990951813112
-0.9583465746010701,-0.9583465746010701
-0.9309771430054069,-0.9309771430054069
-0.9077545949848441,-0.9077545949848441
-0.8928258141144824,-0.8928258141144824
-0.8986314511196231,-0.8986314511196231
-0.8928258141144824,-0.8928258141144824
-0.8770676565291006,-0.8770676565291006
-0.8555038619385781,-0.8555038619385781
-0.8530157317935178,-0.8530157317935178
-0.8555038619385781,-0.8555038619385781
-0.8397457043531962,-0.8397457043531962
-0.7800305808717493,-0.7800305808717493
-0.6970929093697396,-0.6970929093697396
-0.6290840187380916,-0.6290840187380916
-0.6116671077226696,-0.6116671077226696
-0.6290840187380916,-0.6290840187380916
-0.6373777858882926,-0.6373777858882926
-0.5909326898471672,-0.5909326898471672
-0.49970125119495656,-0.49970125119495656
-0.40183479882258516,-0.40183479882258516
-0.34543718220121855,-0.34543718220121855
-0.32636151775575634,-0.32636151775575634
-0.31806775060555537,-0.31806775060555537
-0.289039565579852,-0.289039565579852
-0.24922948325888733,-0.24922948325888733
-0.21356628451302317,-0.21356628451302317
-0.19449062006756096,-0.19449062006756096
-0.17541495562209874,-0.17541495562209874
-0.1555099144616164,-0.1555099144616164
-0.1372636267311743,-0.1372636267311743
-0.1364342500161542,-0.1364342500161542
-0.1372636267311743,-0.1372636267311743
-0.13975175687623456,-0.13975175687623456
-0.1372636267311743,-0.1372636267311743
-0.14141051030627477,-0.14141051030627477
-0.1372636267311743,-0.1372636267311743
-0.12233484586081254,-0.12233484586081254
-0.09994167455526994,-0.09994167455526994
-0.10242980470033022,-0.10242980470033022
-0.1372636267311743,-0.1372636267311743
-0.18951435977744038,-0.18951435977744038
-0.21356628451302317,-0.21356628451302317
-0.19449062006756096,-0.19449062006756096
-0.1372636267311743,-0.1372636267311743
-0.06676660595446605,-0.06676660595446605
0.013682935402483323,0.013682935402483323
0.08169182603413125,0.08169182603413125
0.12647816864521647,0.12647816864521647
0.1430657029456184,0.1430657029456184
0.16462949753614092,0.16462949753614092
0.2019514497120453,0.2019514497120453
0.24010277860296972,0.24010277860296972
0.23844402517292954,0.23844402517292954
0.2019514497120453,0.2019514497120453
0.15467697695589977,0.15467697695589977
0.12647816864521647,0.12647816864521647
0.11818440149501551,0.11818440149501551
0.12647816864521647,0.12647816864521647
0.11320814120489493,0.11320814120489493
0.05100488757838768,0.05100488757838768
-0.07506037310466702,-0.07506037310466702
-0.21356628451302317,-0.21356628451302317
-0.3329965314759171,-0.3329965314759171
-0.40183479882258516,-0.40183479882258516
-0.42837485370322825,-0.42837485370322825
-0.40183479882258516,-0.40183479882258516
-0.3620247165016205,-0.3620247165016205
-0.36451284664668077,-0.36451284664668077
-0.4466211414336704,-0.4466211414336704
-0.5527813609562428,-0.5527813609562428
-0.6216196283029107,-0.6216196283029107
-0.6290840187380916,-0.6290840187380916
-0.6033733405724686,-0.6033733405724686
-0.5527813609562428,-0.5527813609562428
-0.49389561418981587,-0.49389561418981587
-0.40183479882258516,-0.40183479882258516
-0.19449062006756096,-0.19449062006756096
0.24010277860296972,0.24010277860296972
0.8621353148680423,0.8621353148680423
1.5239779334540795,1.5239779334540795
2.137716702568951,2.137716702568951
2.695057855062456,2.695057855062456
3.011879760200133,3.011879760200133
2.770531136129285,2.770531136129285
1.9179318730886254,1.9179318730886254
0.8820403560285246,0.8820403560285246
0.13477193579541744,0.13477193579541744
-0.2508882366889275,-0.2508882366889275
-0.5071656416301374,-0.5071656416301374
-0.7418792519808248,-0.7418792519808248
-0.8961433209745628,-0.8961433209745628
-0.9309771430054069,-0.9309771430054069
-0.915218985420025,-0.915218985420025
-0.8928258141144824,-0.8928258141144824
-0.8803851633891809,-0.8803851633891809
-0.8928258141144824,-0.8928258141144824
-0.9508821841658892,-0.9508821841658892
-1.0064504240722356,-1.0064504240722356
-1.0230379583726377,-1.0230379583726377
-1.0064504240722356,-1.0064504240722356
-0.9956685267769744,-0.9956685267769744
-0.9682990951813112,-0.9682990951813112
-0.9085839716998643,-0.9085839716998643
-0.8173525330476537,-0.8173525330476537
-0.7493436424160057,-0.7493436424160057
-0.7045572998049204,-0.7045572998049204
-0.6738703613491769,-0.6738703613491769
-0.6290840187380916,-0.6290840187380916
-0.5834682994119863,-0.5834682994119863
-0.5527813609562428,-0.5527813609562428
-0.5494638540961624,-0.5494638540961624
-0.5527813609562428,-0.5527813609562428
-0.5577576212463633,-0.5577576212463633
-0.5527813609562428,-0.5527813609562428
-0.5328763197957604,-0.5328763197957604
-0.4773080798894139,-0.4773080798894139
-0.41012856597278613,-0.41012856597278613
-0.36451284664668077,-0.36451284664668077
-0.3628540932166406,-0.3628540932166406
-0.36451284664668077,-0.36451284664668077
-0.3379727917660377,-0.3379727917660377
-0.289039565579852,-0.289039565579852
-0.24922948325888733,-0.24922948325888733
-0.21356628451302317,-0.21356628451302317
-0.16629181175687766,-0.16629181175687766
-0.09994167455526994,-0.09994167455526994
-0.02944465377856171,-0.02944465377856171
0.05100488757838768,0.05100488757838768
0.13228380565035716,0.13228380565035716
0.2019514497120453,0.2019514497120453
0.23429714159782905,0.23429714159782905
0.24010277860296972,0.24010277860296972
0.22600337444762808,0.22600337444762808
0.2019514497120453,0.2019514497120453
0.1720938879713218,0.1720938879713218
0.16462949753614092,0.16462949753614092
0.18038765512152277,0.18038765512152277
0.2019514497120453,0.2019514497120453
0.19365768256184432,0.19365768256184432
0.16462949753614092,0.16462949753614092
0.13228380565035716,0.13228380565035716
0.12647816864521647,0.12647816864521647
0.15716510710096004,0.15716510710096004
0.24010277860296972,0.24010277860296972
0.353727388560723,0.353727388560723
0.46652262180345616,0.46652262180345616
0.5395077727252247,0.5395077727252247
0.5801472317612094,0.5801472317612094
0.5909291290564707,0.5909291290564707
0.5801472317612094,0.5801472317612094
0.5196027315647423,0.5196027315647423
0.42920066962755177,0.42920066962755177
0.3213816966749392,0.3213816966749392
0.24010277860296972,0.24010277860296972
0.17707014826144238,0.17707014826144238
0.12647816864521647,0.12647816864521647
0.0684217985938097,0.0684217985938097
0.013682935402483323,0.013682935402483323
-0.033591537353662194,-0.033591537353662194
-0.06179034566434548,-0.06179034566434548
-0.08418351696988809,-0.08418351696988809
-0.09994167455526994,-0.09994167455526994
-0.11321170199559148,-0.11321170199559148
-0.09994167455526994,-0.09994167455526994
-0.02861527706354161,-0.02861527706354161
0.16462949753614092,0.16462949753614092
0.533702135720084,0.533702135720084
1.108460199229011,1.108460199229011
1.8267004344364148,1.8267004344364148
2.5441112929287986,2.5441112929287986
3.0425666986558766,3.0425666986558766
3.148726918178449,3.148726918178449
2.8020474513000484,2.8020474513000484
2.12859355870373,2.12859355870373
1.3431738095796983,1.3431738095796983
0.6556205128280382,0.6556205128280382
0.1530182235258596,0.1530182235258596
-0.17541495562209874,-0.17541495562209874
-0.39934666867752483,-0.39934666867752483
-0.5527813609562428,-0.5527813609562428
-0.6531359434736744,-0.6531359434736744
-0.7045572998049204,-0.7045572998049204
-0.7493436424160057,-0.7493436424160057
-0.8173525330476537,-0.8173525330476537
-0.9077545949848441,-0.9077545949848441
-0.9682990951813112,-0.9682990951813112
-0.9840572527666931,-0.9840572527666931
-0.9682990951813112,-0.9682990951813112
-0.9575171978860499,-0.9575171978860499
-0.9309771430054069,-0.9309771430054069
-0.8837026702492613,-0.8837026702492613
-0.8173525330476537,-0.8173525330476537
-0.7733955671515885,-0.7733955671515885
-0.7418792519808248,-0.7418792519808248
-0.7252917176804229,-0.7252917176804229
-0.7045572998049204,-0.7045572998049204
-0.6896285189345587,-0.6896285189345587
-0.666405970913996,-0.666405970913996
-0.6448421763234735,-0.6448421763234735
-0.6290840187380916,-0.6290840187380916
-0.6324015255981721,-0.6324015255981721
-0.6290840187380916,-0.6290840187380916
-0.5934208199922275,-0.5934208199922275
-0.5154594087803384,-0.5154594087803384
-0.4308629838482885,-0.4308629838482885
-0.36451284664668077,-0.36451284664668077
-0.32470276432571615,-0.32470276432571615
-0.289039565579852,-0.289039565579852
-0.25171761340394766,-0.25171761340394766
-0.21356628451302317,-0.21356628451302317
-0.18039121591221932,-0.18039121591221932
-0.1372636267311743,-0.1372636267311743
-0.083354140254868,-0.083354140254868
-0.024468393488441126,-0.024468393488441126
0.017829818977583806,0.017829818977583806
0.05100488757838768,0.05100488757838768
0.08500933289421164,0.08500933289421164
0.12647816864521647,0.12647816864521647
0.15467697695589977,0.15467697695589977
0.16462949753614092,0.16462949753614092
0.16048261396104044,0.16048261396104044
0.16462949753614092,0.16462949753614092
0.16794700439622132,0.16794700439622132
0.16462949753614092,0.16462949753614092
0.1430657029456184,0.1430657029456184
0.12647816864521647,0.12647816864521647
0.1215019083550959,0.1215019083550959
0.12647816864521647,0.12647816864521647
0.11735502477999542,0.11735502477999542
0.08915621646931213,0.08915621646931213
0.03690548342304603,0.03690548342304603
-0.024468393488441126,-0.024468393488441126
-0.08998915397502877,-0.08998915397502877
-0.1372636267311743,-0.1372636267311743
-0.16629181175687766,-0.16629181175687766
-0.17541495562209874,-0.17541495562209874
-0.1812205926272394,-0.1812205926272394
-0.17541495562209874,-0.17541495562209874
-0.16131555146675708,-0.16131555146675708
-0.1372636267311743,-0.1372636267311743
-0.1306286130110135,-0.1306286130110135
-0.1372636267311743,-0.1372636267311743
-0.15136303088651593,-0.15136303088651593
-0.1372636267311743,-0.1372636267311743
-0.10242980470033022,-0.10242980470033022
-0.06179034566434548,-0.06179034566434548
-0.04105592778884306,-0.04105592778884306
-0.024468393488441126,-0.024468393488441126
-0.008710235903059289,-0.008710235903059289
0.013682935402483323,0.013682935402483323
0.03939361356810632,0.03939361356810632
0.08915621646931213,0.08915621646931213
0.15053009338079928,0.15053009338079928
0.2019514497120453,0.2019514497120453
0.2243446210175879,0.2243446210175879
0.24010277860296972,0.24010277860296972
0.250884675898231,0.250884675898231
0.24010277860296972,0.24010277860296972
0.18619329212666344,0.18619329212666344
0.12647816864521647,0.12647816864521647
0.08335057946417145,0.08335057946417145
0.05100488757838768,0.05100488757838768
-0.01617462633824016,-0.01617462633824016
-0.09994167455526994,-0.09994167455526994
-0.17707370905213893,-0.17707370905213893
-0.21356628451302317,-0.21356628451302317
-0.2367888325335859,-0.2367888325335859
-0.2508882366889275,-0.2508882366889275
-0.2624995106992089,-0.2624995106992089
-0.2508882366889275,-0.2508882366889275
-0.2309831955284452,-0.2309831955284452
-0.21356628451302317,-0.21356628451302317
-0.22268942837824424,-0.22268942837824424
-0.2508882366889275,-0.2508882366889275
-0.27494016142451033,-0.27494016142451033
-0.2508882366889275,-0.2508882366889275
-0.17209744876201835,-0.17209744876201835
-0.024468393488441126,-0.024468393488441126
0.23097963473774866,0.23097963473774866
0.6556205128280382,0.6556205128280382
1.2262316927618648,1.2262316927618648
1.8640223866123191,1.8640223866123191
2.498495573602693,2.498495573602693
3.07325363711162,3.07325363711162
3.3967105559694577,3.3967105559694577
3.224200199245278,3.224200199245278
2.5200593681932157,2.5200593681932157
1.6002805912359284,1.6002805912359284
0.817348972256957,0.817348972256957
0.2782541074938942,0.2782541074938942
-0.12399359929085274,-0.12399359929085274
-0.4399861277135096,-0.4399861277135096
-0.6456715530384936,-0.6456715530384936
-0.7418792519808248,-0.7418792519808248
-0.7916418548820306,-0.7916418548820306
-0.8173525330476537,-0.8173525330476537
-0.8239875467678144,-0.8239875467678144
-0.8173525330476537,-0.8173525330476537
-0.8223287933377742,-0.8223287933377742
-0.8173525330476537,-0.8173525330476537
-0.8082293891824326,-0.8082293891824326
-0.8173525330476537,-0.8173525330476537
-0.8654563825188192,-0.8654563825188192
-0.8928258141144824,-0.8928258141144824
-0.863797629088779,-0.863797629088779
-0.7800305808717493,-0.7800305808717493
-0.7111923135250813,-0.7111923135250813
-0.666405970913996,-0.666405970913996
-0.6473303064685337,-0.6473303064685337
-0.6290840187380916,-0.6290840187380916
-0.6158139912977701,-0.6158139912977701
-0.5909326898471672,-0.5909326898471672
-0.5577576212463633,-0.5577576212463633
-0.5154594087803384,-0.5154594087803384
-0.47979621003447426,-0.47979621003447426
-0.4399861277135096,-0.4399861277135096
-0.40183479882258516,-0.40183479882258516
-0.36451284664668077,-0.36451284664668077
-0.3346552849059573,-0.3346552849059573
-0.289039565579852,-0.289039565579852
-0.21273690779800308,-0.21273690779800308
-0.09994167455526994,-0.09994167455526994
0.028611716272845065,0.028611716272845065
0.16462949753614092,0.16462949753614092
0.2890360047891554,0.2890360047891554
0.39104934073662734,0.39104934073662734
0.44910571078803413,0.44910571078803413
0.46652262180345616,0.46652262180345616
0.4524232176481145,0.4524232176481145
0.42920066962755177,0.42920066962755177
0.4026606147469087,0.4026606147469087
0.39104934073662734,0.39104934073662734
0.40929562846706946,0.40929562846706946
0.46652262180345616,0.46652262180345616
0.5187733548497222,0.5187733548497222
0.5046739506943806,0.5046739506943806
0.3935374708816876,0.3935374708816876
0.24010277860296972,0.24010277860296972
0.11403751791991502,0.11403751791991502
0.05100488757838768,0.05100488757838768
0.013682935402483323,0.013682935402483323
-0.024468393488441126,-0.024468393488441126
-0.07091348952956654,-0.07091348952956654
-0.09994167455526994,-0.09994167455526994
-0.12896985958097332,-0.12896985958097332
-0.17541495562209874,-0.17541495562209874
-0.25420574354900793,-0.25420574354900793
-0.32636151775575634,-0.32636151775575634
-0.37612412065696216,-0.37612412065696216
-0.40183479882258516,-0.40183479882258516
-0.42837485370322825,-0.42837485370322825
-0.4399861277135096,-0.4399861277135096
-0.42920423041824834,-0.42920423041824834
-0.40183479882258516,-0.40183479882258516
-0.3927116549573641,-0.3927116549573641
-0.40183479882258516,-0.40183479882258516
-0.41012856597278613,-0.41012856597278613
-0.36451284664668077,-0.36451284664668077
-0.21522503794306339,-0.21522503794306339
0.08915621646931213,0.08915621646931213
0.5270671219999232,0.5270671219999232
0.9956649659862779,0.9956649659862779
1.3274156519943165,1.3274156519943165
1.4111827002113464,1.4111827002113464
1.2395017202021863,1.2395017202021863
0.920191684919449,0.920191684919449
0.5652184508908477,0.5652184508908477
0.24010277860296972,0.24010277860296972
-0.07506037310466702,-0.07506037310466702
-0.40183479882258516,-0.40183479882258516
-0.7327561081156038,-0.7327561081156038
-1.0064504240722356,-1.0064504240722356
-1.1781314040813957,-1.1781314040813957
-1.232870267272722,-1.232870267272722
-1.2046714589620389,-1.2046714589620389
-1.120075034029989,-1.120075034029989
-1.0114266843623563,-1.0114266843623563
-0.8928258141144824,-0.8928258141144824
-0.7899831014519905,-0.7899831014519905
-0.7045572998049204,-0.7045572998049204
-0.6423540461784132,-0.6423540461784132
-0.5909326898471672,-0.5909326898471672
-0.5610751281064437,-0.5610751281064437
-0.5527813609562428,-0.5527813609562428
-0.5842976761270064,-0.5842976761270064
-0.6290840187380916,-0.6290840187380916
-0.658112203763795,-0.658112203763795
-0.6290840187380916,-0.6290840187380916
-0.5569282445313433,-0.5569282445313433
-0.4773080798894139,-0.4773080798894139
-0.4408155044285297,-0.4408155044285297
-0.4399861277135096,-0.4399861277135096
-0.4515974017237909,-0.4515974017237909
-0.4399861277135096,-0.4399861277135096
-0.39934666867752483,-0.39934666867752483
-0.32636151775575634,-0.32636151775575634
-0.23595945581856578,-0.23595945581856578
-0.1372636267311743,-0.1372636267311743
-0.06593722923944596,-0.06593722923944596
-0.024468393488441126,-0.024468393488441126
0.0020716613922019678,0.0020716613922019678
0.05100488757838768,0.05100488757838768
0.10408499733967387,0.10408499733967387
0.12647816864521647,0.12647816864521647
0.11154938777485474,0.11154938777485474
0.12647816864521647,0.12647816864521647
0.20609833328714577,0.20609833328714577
0.3155760596697985,0.3155760596697985
0.3802674434413661,0.3802674434413661
0.39104934073662734,0.39104934073662734
0.3819261968714063,0.3819261968714063
0.39104934073662734,0.39104934073662734
0.4184187723322905,0.4184187723322905
0.46652262180345616,0.46652262180345616
0.516285224704662,0.516285224704662
0.541995902870285,0.541995902870285
0.5204321082797624,0.5204321082797624
0.46652262180345616,0.46652262180345616
0.3951962243117278,0.3951962243117278
0.3155760596697985,0.3155760596697985
0.22849150459268838,0.22849150459268838
0.16462949753614092,0.16462949753614092
0.13394255908039734,0.13394255908039734
0.12647816864521647,0.12647816864521647
0.10242624390963367,0.10242624390963367
0.05100488757838768,0.05100488757838768
-0.034420914068682286,-0.034420914068682286
-0.1372636267311743,-0.1372636267311743
-0.24757072982884715,-0.24757072982884715
-0.32636151775575634,-0.32636151775575634
-0.3736359905119018,-0.3736359905119018
-0.40183479882258516,-0.40183479882258516
-0.4408155044285297,-0.4408155044285297
-0.4773080798894139,-0.4773080798894139
-0.5063362649151173,-0.5063362649151173
-0.5154594087803384,-0.5154594087803384
-0.5129712786352781,-0.5129712786352781
-0.4773080798894139,-0.4773080798894139
-0.40100542210756507,-0.40100542210756507
-0.289039565579852,-0.289039565579852
-0.19117311320748057,-0.19117311320748057
-0.1372636267311743,-0.1372636267311743
-0.1331167431560738,-0.1331167431560738
-0.1372636267311743,-0.1372636267311743
-0.13975175687623456,-0.13975175687623456
-0.1372636267311743,-0.1372636267311743
-0.14389864045133505,-0.14389864045133505
-0.1372636267311743,-0.1372636267311743
-0.11984671571575226,-0.11984671571575226
-0.09994167455526994,-0.09994167455526994
-0.09994167455526994,-0.09994167455526994
-0.09994167455526994,-0.09994167455526994
-0.08750102382996848,-0.08750102382996848
-0.06179034566434548,-0.06179034566434548
-0.06261972237936558,-0.06261972237936558
-0.09994167455526994,-0.09994167455526994
-0.19449062006756096,-0.19449062006756096
-0.32636151775575634,-0.32636151775575634
-0.4789668333194541,-0.4789668333194541
-0.5909326898471672,-0.5909326898471672
-0.6398659160333529,-0.6398659160333529
-0.6290840187380916,-0.6290840187380916
-0.5959089501372877,-0.5959089501372877
-0.5527813609562428,-0.5527813609562428
-0.5138006553502982,-0.5138006553502982
-0.4773080798894139,-0.4773080798894139
-0.4466211414336704,-0.4466211414336704
-0.40183479882258516,-0.40183479882258516
-0.35041344249133916,-0.35041344249133916
-0.289039565579852,-0.289039565579852
-0.16712118847189777,-0.16712118847189777
0.12647816864521647,0.12647816864521647
0.6415211086726965,0.6415211086726965
1.3357094191445176,1.3357094191445176
2.101224127108067,2.101224127108067
2.808682465020209,2.808682465020209
3.2316645896804586,3.2316645896804586
3.148726918178449,3.148726918178449
2.5449406696438186,2.5449406696438186
1.7130758244786615,1.7130758244786615
0.9724424179657152,0.9724424179657152
0.42920066962755177,0.42920066962755177
-0.0012458454678784191,-0.0012458454678784191
-0.36451284664668077,-0.36451284664668077
-0.6398659160333529,-0.6398659160333529
-0.8173525330476537,-0.8173525330476537
-0.9459059238757686,-0.9459059238757686
-1.0437723762481401,-1.0437723762481401
-1.0985112394394665,-1.0985112394394665
-1.0819237051390644,-1.0819237051390644
-1.0072798007872557,-1.0072798007872557
-0.8928258141144824,-0.8928258141144824
-0.7825187110168096,-0.7825187110168096
-0.7045572998049204,-0.7045572998049204
-0.6755291147792171,-0.6755291147792171
-0.666405970913996,-0.666405970913996
-0.6589415804788151,-0.6589415804788151
-0.6290840187380916,-0.6290840187380916
-0.5942501967072475,-0.5942501967072475
-0.5527813609562428,-0.5527813609562428
-0.5395113335159212,-0.5395113335159212
-0.5527813609562428,-0.5527813609562428
-0.5867858062720667,-0.5867858062720667
-0.5909326898471672,-0.5909326898471672
-0.5494638540961624,-0.5494638540961624
-0.4773080798894139,-0.4773080798894139
-0.42505734684314783,-0.42505734684314783
-0.40183479882258516,-0.40183479882258516
-0.3927116549573641,-0.3927116549573641
-0.36451284664668077,-0.36451284664668077
-0.32387338761069606,-0.32387338761069606
-0.289039565579852,-0.289039565579852
-0.2824045518596912,-0.2824045518596912
-0.289039565579852,-0.289039565579852
-0.2765989148545505,-0.2765989148545505
-0.21356628451302317,-0.21356628451302317
-0.11735858557069197,-0.11735858557069197
-0.024468393488441126,-0.024468393488441126
0.03773486013806613,0.03773486013806613
0.08915621646931213,0.08915621646931213
0.14140694951557822,0.14140694951557822
0.2019514497120453,0.2019514497120453
0.2575196896183918,0.2575196896183918
0.3155760596697985,0.3155760596697985
0.3661680392860244,0.3661680392860244
0.39104934073662734,0.39104934073662734
0.36533866257100434,0.36533866257100434
0.3155760596697985,0.3155760596697985
0.2782541074938942,0.2782541074938942
0.2782541074938942,0.2782541074938942
0.2749366006338138,0.2749366006338138
0.24010277860296972,0.24010277860296972
0.17375264140136198,0.17375264140136198
0.12647816864521647,0.12647816864521647
0.11486689463493513,0.11486689463493513
0.12647816864521647,0.12647816864521647
0.12564879193019637,0.12564879193019637
0.12647816864521647,0.12647816864521647
0.1497007166657792,0.1497007166657792
0.2019514497120453,0.2019514497120453
0.23927340188794963,0.23927340188794963
0.24010277860296972,0.24010277860296972
0.2201977374424874,0.2201977374424874
0.24010277860296972,0.24010277860296972
0.3089410459496378,0.3089410459496378
0.39104934073662734,0.39104934073662734
0.4209069024773508,0.4209069024773508
0.39104934073662734,0.39104934073662734
0.3280167103951,0.3280167103951
0.2782541074938942,0.2782541074938942
0.2475671690381506,0.2475671690381506
0.24010277860296972,0.24010277860296972
0.2467377923231305,0.2467377923231305
0.2782541074938942,0.2782541074938942
0.30562353908955736,0.30562353908955736
0.3155760596697985,0.3155760596697985
0.28405974449903487,0.28405974449903487
0.24010277860296972,0.24010277860296972
0.18536391541164335,0.18536391541164335
0.12647816864521647,0.12647816864521647
0.02944109298786516,0.02944109298786516
-0.09994167455526994,-0.09994167455526994
-0.24591197639880696,-0.24591197639880696
-0.36451284664668077,-0.36451284664668077
-0.44413301128861005,-0.44413301128861005
-0.4773080798894139,-0.4773080798894139
-0.4831137168945546,-0.4831137168945546
-0.4773080798894139,-0.4773080798894139
-0.5021893813400169,-0.5021893813400169
-0.5527813609562428,-0.5527813609562428
-0.5536107376712629,-0.5536107376712629
-0.36451284664668077,-0.36451284664668077
0.07671556574401067,0.07671556574401067
0.731093793894867,0.731093793894867
1.4974378785734364,1.4974378785734364
2.2795401208373876,2.2795401208373876
2.9040607872475204,2.9040607872475204
3.148726918178449,3.148726918178449
2.8783501090818975,2.8783501090818975
2.204066839770559,2.204066839770559
1.3746901247504622,1.3746901247504622
0.6174691839371137,0.6174691839371137
0.02944109298786516,0.02944109298786516
-0.36451284664668077,-0.36451284664668077
-0.6017145871424284,-0.6017145871424284
-0.7418792519808248,-0.7418792519808248
-0.8397457043531962,-0.8397457043531962
-0.8928258141144824,-0.8928258141144824
-0.9052664648397839,-0.9052664648397839
-0.8928258141144824,-0.8928258141144824
-0.8820439168192211,-0.8820439168192211
-0.8555038619385781,-0.8555038619385781
-0.8040825056073321,-0.8040825056073321
-0.7418792519808248,-0.7418792519808248
-0.7103629368100611,-0.7103629368100611
-0.7045572998049204,-0.7045572998049204
-0.7103629368100611,-0.7103629368100611
-0.7045572998049204,-0.7045572998049204
-0.7045572998049204,-0.7045572998049204
-0.7045572998049204,-0.7045572998049204
-0.7120216902401013,-0.7120216902401013
-0.7045572998049204,-0.7045572998049204
-0.6912872723645989,-0.6912872723645989
-0.666405970913996,-0.666405970913996
-0.6365484091732725,-0.6365484091732725
-0.5909326898471672,-0.5909326898471672
-0.546975723951102,-0.546975723951102
-0.5154594087803384,-0.5154594087803384
-0.5021893813400169,-0.5021893813400169
-0.4773080798894139,-0.4773080798894139
-0.43003360713326844,-0.43003360713326844
-0.36451284664668077,-0.36451284664668077
-0.3155796204604951,-0.3155796204604951
-0.289039565579852,-0.289039565579852
-0.2757695381395304,-0.2757695381395304
-0.2508882366889275,-0.2508882366889275
-0.20693127079286242,-0.20693127079286242
-0.1372636267311743,-0.1372636267311743
-0.060960968949325386,-0.060960968949325386
0.013682935402483323,0.013682935402483323
0.0717393054538901,0.0717393054538901
0.12647816864521647,0.12647816864521647
0.1712645112563017,0.1712645112563017
0.2019514497120453,0.2019514497120453
0.20858646343220605,0.20858646343220605
0.2019514497120453,0.2019514497120453
0.1762407715464223,0.1762407715464223
0.12647816864521647,0.12647816864521647
0.04851675743332738,0.04851675743332738
-0.024468393488441126,-0.024468393488441126
-0.07506037310466702,-0.07506037310466702
-0.09994167455526994,-0.09994167455526994
-0.12233484586081254,-0.12233484586081254
-0.1372636267311743,-0.1372636267311743
-0.1364342500161542,-0.1364342500161542
-0.09994167455526994,-0.09994167455526994
-0.03607966749872248,-0.03607966749872248
0.05100488757838768,0.05100488757838768
0.13560131251043755,0.13560131251043755
0.2019514497120453,0.2019514497120453
0.23097963473774866,0.23097963473774866
0.24010277860296972,0.24010277860296972
0.23761464845790944,0.23761464845790944
0.24010277860296972,0.24010277860296972
0.22683275116264817,0.22683275116264817
0.2019514497120453,0.2019514497120453
0.15716510710096004,0.15716510710096004
0.12647816864521647,0.12647816864521647
0.11072001105983464,0.11072001105983464
0.12647816864521647,0.12647816864521647
0.13643068922545765,0.13643068922545765
0.12647816864521647,0.12647816864521647
0.08749746303927193,0.08749746303927193
0.05100488757838768,0.05100488757838768
0.025294209412764675,0.025294209412764675
0.013682935402483323,0.013682935402483323
0.01451231211750342,0.01451231211750342
0.05100488757838768,0.05100488757838768
0.11735502477999542,0.11735502477999542
0.2019514497120453,0.2019514497120453
0.3263579569650598,0.3263579569650598
0.5801472317612094,0.5801472317612094
1.0288400345870816,1.0288400345870816
1.6757538723027572,1.6757538723027572
2.4586854912817286,2.4586854912817286
3.2996734803121064,3.2996734803121064
4.033671873104892,4.033671873104892
4.4326020730295586,4.4326020730295586
4.308195565776544,4.308195565776544
3.6770398856462507,3.6770398856462507
2.738185444243501,2.738185444243501
1.751227153369586,1.751227153369586
0.8836991094585648,0.8836991094585648
0.2019514497120453,0.2019514497120453
-0.3164089971755152,-0.3164089971755152
-0.7045572998049204,-0.7045572998049204
-0.9865453829117533,-0.9865453829117533
-1.1573969862058933,-1.1573969862058933
-1.2303821371276618,-1.2303821371276618
-1.232870267272722,-1.232870267272722
-1.2154533562573,-1.2154533562573
-1.1955483150968178,-1.1955483150968178
-1.1797901575114358,-1.1797901575114358
-1.1573969862058933,-1.1573969862058933
-1.1474444656256522,-1.1474444656256522
-1.1573969862058933,-1.1573969862058933
-1.198036445241878,-1.198036445241878
-1.232870267272722,-1.232870267272722
-1.249457801573124,-1.249457801573124
-1.232870267272722,-1.232870267272722
-1.2262352535525614,-1.2262352535525614
-1.232870267272722,-1.232870267272722
-1.2502871782881442,-1.2502871782881442
-1.232870267272722,-1.232870267272722
-1.1822782876564961,-1.1822782876564961
-1.120075034029989,-1.120075034029989
-1.0852412119991448,-1.0852412119991448
-1.0819237051390644,-1.0819237051390644
-1.110951890164768,-1.110951890164768
-1.1573969862058933,-1.1573969862058933
-1.1988658219568982,-1.1988658219568982
-1.1955483150968178,-1.1955483150968178
-1.1449563354805918,-1.1449563354805918
-1.0819237051390644,-1.0819237051390644
-1.0421136228180998,-1.0421136228180998
-1.0064504240722356,-1.0064504240722356
-0.9450765471607485,-0.9450765471607485
-0.8555038619385781,-0.8555038619385781
-0.7808599575867693,-0.7808599575867693
-0.7418792519808248,-0.7418792519808248
-0.7286092245405033,-0.7286092245405033
-0.7045572998049204,-0.7045572998049204
-0.658112203763795,-0.658112203763795
-0.5909326898471672,-0.5909326898471672
-0.5279000595056399,-0.5279000595056399
-0.4773080798894139,-0.4773080798894139
-0.44247425785856986,-0.44247425785856986
-0.40183479882258516,-0.40183479882258516
-0.35041344249133916,-0.35041344249133916
-0.289039565579852,-0.289039565579852
-0.24010633939366627,-0.24010633939366627
-0.21356628451302317,-0.21356628451302317
-0.22103067494820405,-0.22103067494820405
-0.2508882366889275,-0.2508882366889275
-0.2824045518596912,-0.2824045518596912
-0.289039565579852,-0.289039565579852
-0.2824045518596912,-0.2824045518596912
-0.289039565579852,-0.289039565579852
-0.32553214104073624,-0.32553214104073624
-0.36451284664668077,-0.36451284664668077
-0.391882278242344,-0.391882278242344
-0.40183479882258516,-0.40183479882258516
-0.40183479882258516,-0.40183479882258516
-0.36451284664668077,-0.36451284664668077
-0.2906983190098922,-0.2906983190098922
-0.21356628451302317,-0.21356628451302317
-0.18951435977744038,-0.18951435977744038
-0.21356628451302317,-0.21356628451302317
-0.23844758596362609,-0.23844758596362609
-0.21356628451302317,-0.21356628451302317
-0.15385116103157623,-0.15385116103157623
-0.09994167455526994,-0.09994167455526994
-0.07754850324972731,-0.07754850324972731
-0.06179034566434548,-0.06179034566434548
-0.04188530450386316,-0.04188530450386316
-0.024468393488441126,-0.024468393488441126
-0.02861527706354161,-0.02861527706354161
-0.024468393488441126,-0.024468393488441126
0.026123586127784773,0.026123586127784773
0.12647816864521647,0.12647816864521647
0.1986339428519649,0.1986339428519649
0.16462949753614092,0.16462949753614092
0.020317949122644095,0.020317949122644095
-0.1372636267311743,-0.1372636267311743
-0.22434818180828445,-0.22434818180828445
-0.21356628451302317,-0.21356628451302317
-0.1571686678916566,-0.1571686678916566
-0.09994167455526994,-0.09994167455526994
-0.10242980470033022,-0.10242980470033022
-0.17541495562209874,-0.17541495562209874
-0.3106033601703745,-0.3106033601703745
-0.4399861277135096,-0.4399861277135096
-0.5436582170910217,-0.5436582170910217
-0.6290840187380916,-0.6290840187380916
-0.7004104162298199,-0.7004104162298199
-0.7045572998049204,-0.7045572998049204
-0.6324015255981721,-0.6324015255981721
-0.5527813609562428,-0.5527813609562428
-0.5560988678163231,-0.5560988678163231
-0.6290840187380916,-0.6290840187380916
-0.692116649079619,-0.692116649079619
-0.666405970913996,-0.666405970913996
-0.5295588129356801,-0.5295588129356801
-0.2508882366889275,-0.2508882366889275
0.20029269628200508,0.20029269628200508
0.8447184038526202,0.8447184038526202
1.61437999539127,1.61437999539127
2.3550134019042166,2.3550134019042166
2.8385400267609326,2.8385400267609326
2.884155746087038,2.884155746087038
2.456197361136668,2.456197361136668
1.7130758244786615,1.7130758244786615
0.894481006753826,0.894481006753826
0.2019514497120453,0.2019514497120453
-0.29816270944507306,-0.29816270944507306
-0.6290840187380916,-0.6290840187380916
-0.8455513413583369,-0.8455513413583369
-0.9682990951813112,-0.9682990951813112
-1.0147441912224366,-1.0147441912224366
-1.0064504240722356,-1.0064504240722356
-0.9948391500619543,-0.9948391500619543
-1.0064504240722356,-1.0064504240722356
-1.0462605063932002,-1.0462605063932002
-1.0819237051390644,-1.0819237051390644
-1.086899965429185,-1.086899965429185
-1.0437723762481401,-1.0437723762481401
-0.9840572527666931,-0.9840572527666931
-0.9309771430054069,-0.9309771430054069
-0.897802074404603,-0.897802074404603
-0.8555038619385781,-0.8555038619385781
-0.8223287933377742,-0.8223287933377742
-0.8173525330476537,-0.8173525330476537
-0.8513569783634776,-0.8513569783634776
-0.8555038619385781,-0.8555038619385781
-0.7982768686021914,-0.7982768686021914
-0.7045572998049204,-0.7045572998049204
-0.6440127996084534,-0.6440127996084534
-0.6290840187380916,-0.6290840187380916
-0.6332309023131921,-0.6332309023131921
-0.6290840187380916,-0.6290840187380916
-0.6274252653080514,-0.6274252653080514
-0.6290840187380916,-0.6290840187380916
-0.6249371351629912,-0.6249371351629912
-0.5909326898471672,-0.5909326898471672
-0.5345350732258006,-0.5345350732258006
-0.4773080798894139,-0.4773080798894139
-0.4582324154439517,-0.4582324154439517
-0.4773080798894139,-0.4773080798894139
-0.5038481347700571,-0.5038481347700571
-0.4773080798894139,-0.4773080798894139
-0.38441788780716313,-0.38441788780716313
-0.2508882366889275,-0.2508882366889275
-0.1364342500161542,-0.1364342500161542
-0.06179034566434548,-0.06179034566434548
-0.032762160638642096,-0.032762160638642096
-0.024468393488441126,-0.024468393488441126
-0.02944465377856171,-0.02944465377856171
-0.024468393488441126,-0.024468393488441126
-0.0012458454678784191,-0.0012458454678784191
0.05100488757838768,0.05100488757838768
0.10325562062465377,0.10325562062465377
0.12647816864521647,0.12647816864521647
0.08998559318433222,0.08998559318433222
0.013682935402483323,0.013682935402483323
-0.06427847580940577,-0.06427847580940577
-0.09994167455526994,-0.09994167455526994
-0.10408855813037042,-0.10408855813037042
-0.09994167455526994,-0.09994167455526994
-0.09911229784024983,-0.09911229784024983
-0.06179034566434548,-0.06179034566434548
0.03192922313292545,0.03192922313292545
0.16462949753614092,0.16462949753614092
0.2691309636286731,0.2691309636286731
0.3155760596697985,0.3155760596697985
0.3147466829547784,0.3147466829547784
0.3155760596697985,0.3155760596697985
0.33216359397020045,0.33216359397020045
0.353727388560723,0.353727388560723
0.34543362141052203,0.34543362141052203
0.3155760596697985,0.3155760596697985
0.2716190937737334,0.2716190937737334
0.24010277860296972,0.24010277860296972
0.19365768256184432,0.19365768256184432
0.12647816864521647,0.12647816864521647
0.02695296284280487,0.02695296284280487
-0.06179034566434548,-0.06179034566434548
-0.11901733900073215,-0.11901733900073215
-0.1372636267311743,-0.1372636267311743
-0.160486174751737,-0.160486174751737
-0.21356628451302317,-0.21356628451302317
-0.29484520258499264,-0.29484520258499264
-0.36451284664668077,-0.36451284664668077
-0.4001760453925449,-0.4001760453925449
-0.40183479882258516,-0.40183479882258516
-0.39602916181744446,-0.39602916181744446
-0.36451284664668077,-0.36451284664668077
-0.255035120264028,-0.255035120264028
0.013682935402483323,0.013682935402483323
0.4723282588085968,0.4723282588085968
1.108460199229011,1.108460199229011
1.845776098881877,1.845776098881877
2.5441112929287986,2.5441112929287986
2.9596290271538668,2.9596290271538668
2.884155746087038,2.884155746087038
2.307738929148071,2.307738929148071
1.4866559812781752,1.4866559812781752
0.7111887527343846,0.7111887527343846
0.12647816864521647,0.12647816864521647
-0.2840633052897314,-0.2840633052897314
-0.5527813609562428,-0.5527813609562428
-0.7161685738152018,-0.7161685738152018
-0.8173525330476537,-0.8173525330476537
-0.9052664648397839,-0.9052664648397839
-0.9682990951813112,-0.9682990951813112
-0.9989860336370547,-0.9989860336370547
-1.0064504240722356,-1.0064504240722356
-1.0072798007872557,-1.0072798007872557
-0.9682990951813112,-0.9682990951813112
-0.8911670606844422,-0.8911670606844422
-0.8173525330476537,-0.8173525330476537
-0.7933006083120708,-0.7933006083120708
-0.7800305808717493,-0.7800305808717493
-0.7485142657009856,-0.7485142657009856
-0.7045572998049204,-0.7045572998049204
-0.6979222860847597,-0.6979222860847597
-0.7045572998049204,-0.7045572998049204
-0.6995810395147999,-0.6995810395147999
-0.666405970913996,-0.666405970913996
-0.6315721488831519,-0.6315721488831519
-0.5909326898471672,-0.5909326898471672
-0.5502932308111824,-0.5502932308111824
-0.5154594087803384,-0.5154594087803384
-0.49970125119495656,-0.49970125119495656
-0.4773080798894139,-0.4773080798894139
-0.4399861277135096,-0.4399861277135096
-0.40183479882258516,-0.40183479882258516
-0.3935410316723842,-0.3935410316723842
-0.40183479882258516,-0.40183479882258516
-0.40929918925776604,-0.40929918925776604
-0.40183479882258516,-0.40183479882258516
-0.39022352481230377,-0.39022352481230377
-0.36451284664668077,-0.36451284664668077
-0.3288496479008166,-0.3288496479008166
-0.289039565579852,-0.289039565579852
-0.25337636683398784,-0.25337636683398784
-0.21356628451302317,-0.21356628451302317
-0.1812205926272394,-0.1812205926272394
-0.17541495562209874,-0.17541495562209874
-0.20361376393278202,-0.20361376393278202
-0.21356628451302317,-0.21356628451302317
-0.16463305832683747,-0.16463305832683747
-0.06179034566434548,-0.06179034566434548
0.03192922313292545,0.03192922313292545
0.08915621646931213,0.08915621646931213
0.1198431549250557,0.1198431549250557
0.16462949753614092,0.16462949753614092
0.20609833328714577,0.20609833328714577
0.2019514497120453,0.2019514497120453
0.11320814120489493,0.11320814120489493
-0.024468393488441126,-0.024468393488441126
-0.14887490074145562,-0.14887490074145562
-0.21356628451302317,-0.21356628451302317
-0.23844758596362609,-0.23844758596362609
-0.2508882366889275,-0.2508882366889275
-0.2649876408442692,-0.2649876408442692
-0.2508882366889275,-0.2508882366889275
-0.2052725173628222,-0.2052725173628222
-0.1372636267311743,-0.1372636267311743
-0.07837787996474742,-0.07837787996474742
-0.024468393488441126,-0.024468393488441126
0.0186591956926039,0.0186591956926039
0.05100488757838768,0.05100488757838768
0.05763990129854845,0.05763990129854845
0.05100488757838768,0.05100488757838768
0.043540497143206805,0.043540497143206805
0.05100488757838768,0.05100488757838768
0.05515177115348816,0.05515177115348816
0.05100488757838768,0.05100488757838768
0.04105236699814652,0.04105236699814652
0.05100488757838768,0.05100488757838768
0.08003307260409107,0.08003307260409107
0.12647816864521647,0.12647816864521647
0.17789952497646247,0.17789952497646247
0.24010277860296972,0.24010277860296972
0.294012265079276,0.294012265079276
0.3155760596697985,0.3155760596697985
0.2774247307788741,0.2774247307788741
0.2019514497120453,0.2019514497120453
0.10823188091477436,0.10823188091477436
0.013682935402483323,0.013682935402483323
-0.10160042798531012,-0.10160042798531012
-0.21356628451302317,-0.21356628451302317
-0.3114327368853946,-0.3114327368853946
-0.36451284664668077,-0.36451284664668077
-0.38358851109214304,-0.38358851109214304
-0.36451284664668077,-0.36451284664668077
-0.31806775060555537,-0.31806775060555537
-0.2508882366889275,-0.2508882366889275
-0.2044431406478021,-0.2044431406478021
-0.21356628451302317,-0.21356628451302317
-0.2956745793000128,-0.2956745793000128
-0.40183479882258516,-0.40183479882258516
-0.45076802500877083,-0.45076802500877083
-0.36451284664668077,-0.36451284664668077
-0.14223988702129486,-0.14223988702129486
0.2019514497120453,0.2019514497120453
0.6780136841335808,0.6780136841335808
1.3357094191445176,1.3357094191445176
2.12942293541875,2.12942293541875
2.884155746087038,2.884155746087038
3.3411423160631113,3.3411423160631113
3.337824809203031,3.337824809203031
2.868397588501656,2.868397588501656
2.0912716065278256,2.0912716065278256
1.2295491996219452,1.2295491996219452
0.5046739506943806,0.5046739506943806
0.017829818977583806,0.017829818977583806
-0.2508882366889275,-0.2508882366889275
-0.40432292896764543,-0.40432292896764543
-0.5154594087803384,-0.5154594087803384
-0.6183021214428304,-0.6183021214428304
-0.7045572998049204,-0.7045572998049204
-0.7733955671515885,-0.7733955671515885
-0.8173525330476537,-0.8173525330476537
-0.8455513413583369,-0.8455513413583369
-0.8555038619385781,-0.8555038619385781
-0.8496982249334374,-0.8496982249334374
-0.8173525330476537,-0.8173525330476537
-0.7775424507266889,-0.7775424507266889
-0.7418792519808248,-0.7418792519808248
-0.7277798478254831,-0.7277798478254831
-0.7045572998049204,-0.7045572998049204
-0.6630884640539156,-0.6630884640539156
-0.5909326898471672,-0.5909326898471672
-0.5270706827906197,-0.5270706827906197
-0.4773080798894139,-0.4773080798894139
-0.45491490858387135,-0.45491490858387135
-0.4399861277135096,-0.4399861277135096
-0.4383273742834694,-0.4383273742834694
-0.4399861277135096,-0.4399861277135096
-0.4366686208534292,-0.4366686208534292
-0.40183479882258516,-0.40183479882258516
-0.34626655891623864,-0.34626655891623864
-0.289039565579852,-0.289039565579852
-0.2508882366889275,-0.2508882366889275
-0.21356628451302317,-0.21356628451302317
-0.17292682547703844,-0.17292682547703844
-0.1372636267311743,-0.1372636267311743
-0.13145798972603362,-0.13145798972603362
-0.1372636267311743,-0.1372636267311743
-0.1339461198710939,-0.1339461198710939
-0.09994167455526994,-0.09994167455526994
-0.051008448369084226,-0.051008448369084226
0.013682935402483323,0.013682935402483323
0.0949618534744528,0.0949618534744528
0.2019514497120453,0.2019514497120453
0.30562353908955736,0.30562353908955736
0.39104934073662734,0.39104934073662734
0.46154636151333556,0.46154636151333556
0.541995902870285,0.541995902870285
0.6008816496367118,0.6008816496367118
0.5801472317612094,0.5801472317612094
0.4582288546532552,0.4582288546532552
0.3155760596697985,0.3155760596697985
0.22600337444762808,0.22600337444762808
0.2019514497120453,0.2019514497120453
0.18785204555670362,0.18785204555670362
0.16462949753614092,0.16462949753614092
0.13643068922545765,0.13643068922545765
0.12647816864521647,0.12647816864521647
0.12316066178513609,0.12316066178513609
0.12647816864521647,0.12647816864521647
0.12730754536023658,0.12730754536023658
0.12647816864521647,0.12647816864521647
0.1190137782100356,0.1190137782100356
0.12647816864521647,0.12647816864521647
0.15467697695589977,0.15467697695589977
0.2019514497120453,0.2019514497120453
0.23346776488280896,0.23346776488280896
0.24010277860296972,0.24010277860296972
0.21936836072746732,0.21936836072746732
0.2019514497120453,0.2019514497120453
0.1919989291318041,0.1919989291318041
0.2019514497120453,0.2019514497120453
0.21439210043734674,0.21439210043734674
0.24010277860296972,0.24010277860296972
0.26000781976345205,0.26000781976345205
0.2782541074938942,0.2782541074938942
0.26498408005357266,0.26498408005357266
0.24010277860296972,0.24010277860296972
0.20775708671718596,0.20775708671718596
0.2019514497120453,0.2019514497120453
0.2011220729970252,0.2011220729970252
0.2019514497120453,0.2019514497120453
0.2011220729970252,0.2011220729970252
0.24010277860296972,0.24010277860296972
0.33879860769036124,0.33879860769036124
0.5046739506943806,0.5046739506943806
0.7128475061644248,0.7128475061644248
0.9575136370953534,0.9575136370953534
1.2411604736322266,1.2411604736322266
1.5621292623450038,1.5621292623450038
1.8714867770475,1.8714867770475
2.12859355870373,2.12859355870373
2.3467196347540153,2.3467196347540153
2.582262621819723,2.582262621819723
2.824440622605591,2.824440622605591
3.035102308220696,3.035102308220696
3.235811473255559,3.235811473255559
3.488771371336689,3.488771371336689
3.6770398856462507,3.6770398856462507
3.526093323512593,3.526093323512593
2.891620136522219,2.891620136522219
1.9776469965700725,1.9776469965700725
1.09933705536379,1.09933705536379
0.39104934073662734,0.39104934073662734
-0.2044431406478021,-0.2044431406478021
-0.7045572998049204,-0.7045572998049204
-1.0636774174086223,-1.0636774174086223
-1.2710215961636464,-1.2710215961636464
-1.3904518431265405,-1.3904518431265405
-1.4592901104732086,-1.4592901104732086
-1.4941239325040525,-1.4941239325040525
-1.4974414393641329,-1.4974414393641329
-1.5007589462242132,-1.5007589462242132
-1.4974414393641329,-1.4974414393641329
-1.4874889187838918,-1.4874889187838918
-1.4592901104732086,-1.4592901104732086
-1.438555692597706,-1.438555692597706
-1.421968158297304,-1.421968158297304
-1.421138781582284,-1.421138781582284
-1.421968158297304,-1.421968158297304
-1.4393850693127261,-1.4393850693127261
-1.4592901104732086,-1.4592901104732086
-1.4775363982036507,-1.4775363982036507
-1.4592901104732086,-1.4592901104732086
-1.421138781582284,-1.421138781582284
-1.3838168294063797,-1.3838168294063797
-1.368888048536018,-1.368888048536018
-1.3464948772304752,-1.3464948772304752
-1.2975616510442896,-1.2975616510442896
-1.232870267272722,-1.232870267272722
-1.1864251712315967,-1.1864251712315967
-1.1573969862058933,-1.1573969862058933
-1.12919817789521,-1.12919817789521
-1.0819237051390644,-1.0819237051390644
-1.026355465232718,-1.026355465232718
-0.9682990951813112,-0.9682990951813112
-0.914389608705005,-0.914389608705005
-0.8555038619385781,-0.8555038619385781
-0.7974474918871712,-0.7974474918871712
-0.7418792519808248,-0.7418792519808248
-0.6896285189345587,-0.6896285189345587
-0.6290840187380916,-0.6290840187380916
-0.5677101418266045,-0.5677101418266045
-0.5154594087803384,-0.5154594087803384
-0.4789668333194541,-0.4789668333194541
-0.4399861277135096,-0.4399861277135096
-0.4084698125427459,-0.4084698125427459
-0.40183479882258516,-0.40183479882258516
-0.42920423041824834,-0.42920423041824834
-0.4399861277135096,-0.4399861277135096
-0.40183479882258516,-0.40183479882258516
-0.32636151775575634,-0.32636151775575634
-0.27162265456442997,-0.27162265456442997
-0.2508882366889275,-0.2508882366889275
-0.24342384625374666,-0.24342384625374666
-0.21356628451302317,-0.21356628451302317
-0.17043869533197814,-0.17043869533197814
-0.1372636267311743,-0.1372636267311743
-0.13477549658611399,-0.13477549658611399
-0.1372636267311743,-0.1372636267311743
-0.11901733900073215,-0.11901733900073215
-0.06179034566434548,-0.06179034566434548
0.0020716613922019678,0.0020716613922019678
0.05100488757838768,0.05100488757838768
0.09164434661437242,0.09164434661437242
0.16462949753614092,0.16462949753614092
0.2641547033385525,0.2641547033385525
0.353727388560723,0.353727388560723
0.4001724846018484,0.4001724846018484
0.42920066962755177,0.42920066962755177
0.45491134779317477,0.45491134779317477
0.46652262180345616,0.46652262180345616
0.43749443677775274,0.43749443677775274
0.39104934073662734,0.39104934073662734
0.3495805049856225,0.3495805049856225
0.3155760596697985,0.3155760596697985
0.250884675898231,0.250884675898231
0.16462949753614092,0.16462949753614092
0.08417995617919155,0.08417995617919155
0.05100488757838768,0.05100488757838768
0.035246729993005835,0.035246729993005835
0.013682935402483323,0.013682935402483323
-0.04188530450386316,-0.04188530450386316
-0.09994167455526994,-0.09994167455526994
-0.1571686678916566,-0.1571686678916566
-0.21356628451302317,-0.21356628451302317
-0.27825766828459075,-0.27825766828459075
-0.32636151775575634,-0.32636151775575634
-0.3611953397866004,-0.3611953397866004
-0.40183479882258516,-0.40183479882258516
-0.4590617921589718,-0.4590617921589718
-0.4773080798894139,-0.4773080798894139
-0.42505734684314783,-0.42505734684314783
-0.289039565579852,-0.289039565579852
-0.04188530450386316,-0.04188530450386316
0.39104934073662734,0.39104934073662734
0.996494342701298,0.996494342701298
1.6757538723027572,1.6757538723027572
2.325155840163493,2.325155840163493
2.884155746087038,2.884155746087038
3.1636556990488107,3.1636556990488107
2.9223070749779625,2.9223070749779625
2.1526454834393127,2.1526454834393127
1.2220848091867642,1.2220848091867642
0.5013564438343002,0.5013564438343002
0.05100488757838768,0.05100488757838768
-0.2848926820047515,-0.2848926820047515
-0.5527813609562428,-0.5527813609562428
-0.7004104162298199,-0.7004104162298199
-0.7418792519808248,-0.7418792519808248
-0.794959361742111,-0.794959361742111
-0.8928258141144824,-0.8928258141144824
-0.9641522116062107,-0.9641522116062107
-0.9309771430054069,-0.9309771430054069
-0.820670039907734,-0.820670039907734
-0.7045572998049204,-0.7045572998049204
-0.6431834228934333,-0.6431834228934333
-0.6290840187380916,-0.6290840187380916
-0.6357190324582525,-0.6357190324582525
-0.6290840187380916,-0.6290840187380916
-0.6249371351629912,-0.6249371351629912
-0.6290840187380916,-0.6290840187380916
-0.6630884640539156,-0.6630884640539156
-0.7045572998049204,-0.7045572998049204
-0.744367382125885,-0.744367382125885
-0.7418792519808248,-0.7418792519808248
-0.6904578956495788,-0.6904578956495788
-0.5909326898471672,-0.5909326898471672
-0.4856018470396149,-0.4856018470396149
-0.40183479882258516,-0.40183479882258516
-0.37612412065696216,-0.37612412065696216
-0.40183479882258516,-0.40183479882258516
-0.45574428529889144,-0.45574428529889144
-0.4773080798894139,-0.4773080798894139
-0.4449623880036302,-0.4449623880036302
-0.36451284664668077,-0.36451284664668077
-0.27162265456442997,-0.27162265456442997
-0.17541495562209874,-0.17541495562209874
-0.09081853069004886,-0.09081853069004886
-0.024468393488441126,-0.024468393488441126
0.0053891682522823545,0.0053891682522823545
0.013682935402483323,0.013682935402483323
0.0186591956926039,0.0186591956926039
0.05100488757838768,0.05100488757838768
0.1215019083550959,0.1215019083550959
0.24010277860296972,0.24010277860296972
0.37777931329630576,0.37777931329630576
0.5046739506943806,0.5046739506943806
0.5925878824865108,0.5925878824865108
0.6556205128280382,0.6556205128280382
0.6838193211387215,0.6838193211387215
0.6556205128280382,0.6556205128280382
0.5345315124351041,0.5345315124351041
0.353727388560723,0.353727388560723
0.18121703183654286,0.18121703183654286
0.08915621646931213,0.08915621646931213
0.06095740815862884,0.06095740815862884
0.05100488757838768,0.05100488757838768
0.02363545598272448,0.02363545598272448
0.013682935402483323,0.013682935402483323
0.04934613414834748,0.04934613414834748
0.12647816864521647,0.12647816864521647
0.18785204555670362,0.18785204555670362
0.2019514497120453,0.2019514497120453
0.15799448381598016,0.15799448381598016
0.08915621646931213,0.08915621646931213
0.035246729993005835,0.035246729993005835
0.05100488757838768,0.05100488757838768
0.13560131251043755,0.13560131251043755
0.24010277860296972,0.24010277860296972
0.28157161435397454,0.28157161435397454
0.24010277860296972,0.24010277860296972
0.13891881937051792,0.13891881937051792
0.05100488757838768,0.05100488757838768
0.017000442262563708,0.017000442262563708
0.05100488757838768,0.05100488757838768
0.10325562062465377,0.10325562062465377
0.12647816864521647,0.12647816864521647
0.0941324767594327,0.0941324767594327
0.05100488757838768,0.05100488757838768
0.020317949122644095,0.020317949122644095
0.013682935402483323,0.013682935402483323
-0.022809640058400932,-0.022809640058400932
-0.09994167455526994,-0.09994167455526994
-0.22932444209840502,-0.22932444209840502
-0.36451284664668077,-0.36451284664668077
-0.4623792990190522,-0.4623792990190522
-0.4773080798894139,-0.4773080798894139
-0.42754547698820816,-0.42754547698820816
-0.36451284664668077,-0.36451284664668077
-0.3346552849059573,-0.3346552849059573
-0.32636151775575634,-0.32636151775575634
-0.3172383738905353,-0.3172383738905353
-0.289039565579852,-0.289039565579852
-0.22434818180828445,-0.22434818180828445
-0.06179034566434548,-0.06179034566434548
0.26581345676859275,0.26581345676859275
0.8065670749616958,0.8065670749616958
1.5422242211845216,1.5422242211845216
2.393164730795141,2.393164730795141
3.1694613360539514,3.1694613360539514
3.6397179334703464,3.6397179334703464
3.6330829197501853,3.6330829197501853
3.148726918178449,3.148726918178449
2.2986157852828497,2.2986157852828497
1.2602361380776888,1.2602361380776888
0.2201977374424874,0.2201977374424874
-0.6290840187380916,-0.6290840187380916
-1.1930601849517575,-1.1930601849517575
-1.4974414393641329,-1.4974414393641329
-1.6400942343475895,-1.6400942343475895
-1.686539330388715,-1.686539330388715
-1.6898568372487954,-1.6898568372487954
-1.686539330388715,-1.686539330388715
-1.6881980838187551,-1.6881980838187551
-1.6483880014977905,-1.6483880014977905
-1.549692172410399,-1.549692172410399
-1.421968158297304,-1.421968158297304
-1.3216135757798724,-1.3216135757798724
-1.232870267272722,-1.232870267272722
-1.1408094519054914,-1.1408094519054914
-1.0437723762481401,-1.0437723762481401
-0.992351019916894,-0.992351019916894
-0.9682990951813112,-0.9682990951813112
-0.949223430735849,-0.949223430735849
-0.8928258141144824,-0.8928258141144824
-0.8306225604879751,-0.8306225604879751
-0.7800305808717493,-0.7800305808717493
-0.760954916426287,-0.760954916426287
-0.7418792519808248,-0.7418792519808248
-0.7020691696598601,-0.7020691696598601
-0.6290840187380916,-0.6290840187380916
-0.546975723951102,-0.546975723951102
-0.4773080798894139,-0.4773080798894139
-0.42422797012812774,-0.42422797012812774
-0.36451284664668077,-0.36451284664668077
-0.29235707243993236,-0.29235707243993236
-0.21356628451302317,-0.21356628451302317
-0.13145798972603362,-0.13145798972603362
-0.024468393488441126,-0.024468393488441126
0.10823188091477436,0.10823188091477436
0.24010277860296972,0.24010277860296972
0.33133421725518036,0.33133421725518036
0.39104934073662734,0.39104934073662734
0.45574072450819486,0.45574072450819486
0.5801472317612094,0.5801472317612094
0.7850032803711733,0.7850032803711733
1.0329869181621822,1.0329869181621822
1.18559223372588,1.18559223372588
1.108460199229011,1.108460199229011
0.790808917376314,0.790808917376314
0.39104934073662734,0.39104934073662734
0.05763990129854845,0.05763990129854845
-0.17541495562209874,-0.17541495562209874
-0.37529474394194207,-0.37529474394194207
-0.5527813609562428,-0.5527813609562428
-0.6746997380641969,-0.6746997380641969
-0.7045572998049204,-0.7045572998049204
-0.6688941010590563,-0.6688941010590563
-0.5909326898471672,-0.5909326898471672
-0.4905781073297355,-0.4905781073297355
-0.36451284664668077,-0.36451284664668077
-0.2409357161086864,-0.2409357161086864
-0.1372636267311743,-0.1372636267311743
-0.07257224295960674,-0.07257224295960674
-0.024468393488441126,-0.024468393488441126
0.021147325837664193,0.021147325837664193
0.08915621646931213,0.08915621646931213
0.17375264140136198,0.17375264140136198
0.2782541074938942,0.2782541074938942
0.3669974160010445,0.3669974160010445
0.42920066962755177,0.42920066962755177
0.4499350875030542,0.4499350875030542
0.46652262180345616,0.46652262180345616
0.48808641639397865,0.48808641639397865
0.5046739506943806,0.5046739506943806
0.4723282588085968,0.4723282588085968
0.39104934073662734,0.39104934073662734
0.28405974449903487,0.28405974449903487
0.2019514497120453,0.2019514497120453
0.15053009338079928,0.15053009338079928
0.12647816864521647,0.12647816864521647
0.0949618534744528,0.0949618534744528
0.05100488757838768,0.05100488757838768
-0.020321509913340644,-0.020321509913340644
-0.09994167455526994,-0.09994167455526994
-0.1579980446066767,-0.1579980446066767
-0.1372636267311743,-0.1372636267311743
-0.021980263343380838,-0.021980263343380838
0.16462949753614092,0.16462949753614092
0.3495805049856225,0.3495805049856225
0.46652262180345616,0.46652262180345616
0.4507644642180743,0.4507644642180743
0.3155760596697985,0.3155760596697985
0.1712645112563017,0.1712645112563017
0.2019514497120453,0.2019514497120453
0.4963801835441796,0.4963801835441796
0.9956649659862779,0.9956649659862779
1.545541728044602,1.545541728044602
2.0531202776369013,2.0531202776369013
2.4694673885769896,2.4694673885769896
2.7332091839533805,2.7332091839533805
2.710816012647838,2.710816012647838
2.317691449728312,2.317691449728312
1.5936455775157676,1.5936455775157676
0.731093793894867,0.731093793894867
-0.06759598266948616,-0.06759598266948616
-0.666405970913996,-0.666405970913996
-1.028014218662758,-1.028014218662758
-1.1573969862058933,-1.1573969862058933
-1.1167575271699086,-1.1167575271699086
-1.0064504240722356,-1.0064504240722356
-0.9442471704457284,-0.9442471704457284
-0.9682990951813112,-0.9682990951813112
-1.051236766683321,-1.051236766683321
-1.120075034029989,-1.120075034029989
-1.1565676094908732,-1.1565676094908732
-1.1573969862058933,-1.1573969862058933
-1.1233925408900693,-1.1233925408900693
-1.0064504240722356,-1.0064504240722356
-0.7982768686021914,-0.7982768686021914
-0.5527813609562428,-0.5527813609562428
-0.4151048262629067,-0.4151048262629067
-0.4773080798894139,-0.4773080798894139
-0.7377323684057243,-0.7377323684057243
-1.0437723762481401,-1.0437723762481401
-1.2395052809928828,-1.2395052809928828
-1.232870267272722,-1.232870267272722
-1.0943643558643659,-1.0943643558643659
-0.9309771430054069,-0.9309771430054069
-0.7933006083120708,-0.7933006083120708
-0.6290840187380916,-0.6290840187380916
-0.4117873194028263,-0.4117873194028263
-0.17541495562209874,-0.17541495562209874
0.0186591956926039,0.0186591956926039
0.16462949753614092,0.16462949753614092
0.24010277860296972,0.24010277860296972
0.2019514497120453,0.2019514497120453
0.032758599847945546,0.032758599847945546
-0.17541495562209874,-0.17541495562209874
-0.3114327368853946,-0.3114327368853946
-0.32636151775575634,-0.32636151775575634
-0.25337636683398784,-0.25337636683398784
-0.09994167455526994,-0.09994167455526994
0.13643068922545765,0.13643068922545765
0.42920066962755177,0.42920066962755177
0.6639142799782392,0.6639142799782392
0.731093793894867,0.731093793894867
0.6058579099268324,0.6058579099268324
0.39104934073662734,0.39104934073662734
0.22849150459268838,0.22849150459268838
0.2019514497120453,0.2019514497120453
0.26498408005357266,0.26498408005357266
0.3155760596697985,0.3155760596697985
0.2741072239187937,0.2741072239187937
0.16462949753614092,0.16462949753614092
0.05100488757838768,0.05100488757838768
0.013682935402483323,0.013682935402483323
0.06427491501870922,0.06427491501870922
0.2019514497120453,0.2019514497120453
0.35870364885084355,0.35870364885084355
0.46652262180345616,0.46652262180345616
0.4275419161975116,0.4275419161975116
0.2019514497120453,0.2019514497120453
-0.17458557890707863,-0.17458557890707863
-0.5527813609562428,-0.5527813609562428
-0.7592961629962468,-0.7592961629962468
-0.7045572998049204,-0.7045572998049204
-0.49638374433487614,-0.49638374433487614
-0.32636151775575634,-0.32636151775575634
-0.31226211360041467,-0.31226211360041467
-0.36451284664668077,-0.36451284664668077
-0.32553214104073624,-0.32553214104073624
-0.09994167455526994,-0.09994167455526994
0.2956710185093162,0.2956710185093162
0.8447184038526202,0.8447184038526202
1.5322717006042805,1.5322717006042805
2.317691449728312,2.317691449728312
3.028467294500535,3.028467294500535
3.4132980902698598,3.4132980902698598
3.2548871377010213,3.2548871377010213
2.5441112929287986,2.5441112929287986
1.4816797209880546,1.4816797209880546
0.39104934073662734,0.39104934073662734
-0.47647870317439384,-0.47647870317439384
-1.0064504240722356,-1.0064504240722356
-1.2154533562573,-1.2154533562573
-1.1573969862058933,-1.1573969862058933
-0.9160483621350451,-0.9160483621350451
-0.6290840187380916,-0.6290840187380916
-0.49555436761985605,-0.49555436761985605
-0.5909326898471672,-0.5909326898471672
-0.734414861545644,-0.734414861545644
-0.6290840187380916,-0.6290840187380916
-0.2558644969790481,-0.2558644969790481
0.05100488757838768,0.05100488757838768
-0.043544057933903355,-0.043544057933903355
-0.4773080798894139,-0.4773080798894139
-0.9160483621350451,-0.9160483621350451
-1.0819237051390644,-1.0819237051390644
-0.9989860336370547,-0.9989860336370547
-0.8173525330476537,-0.8173525330476537
-0.7053866765199406,-0.7053866765199406
-0.7418792519808248,-0.7418792519808248
-0.9649815883212308,-0.9649815883212308
-1.2710215961636464,-1.2710215961636464
-1.4509963433230075,-1.4509963433230075
-1.308343548339551,-1.308343548339551
-0.8870201771093418,-0.8870201771093418
-0.4399861277135096,-0.4399861277135096
-0.21688379137310357,-0.21688379137310357
-0.2508882366889275,-0.2508882366889275
-0.44993864829375074,-0.44993864829375074
-0.7045572998049204,-0.7045572998049204
-0.9036077114097437,-0.9036077114097437
-0.8928258141144824,-0.8928258141144824
-0.6116671077226696,-0.6116671077226696
-0.17541495562209874,-0.17541495562209874
0.20029269628200508,0.20029269628200508
0.39104934073662734,0.39104934073662734
0.37114429957614503,0.37114429957614503
0.2019514497120453,0.2019514497120453
0.03192922313292545,0.03192922313292545
0.05100488757838768,0.05100488757838768
0.2890360047891554,0.2890360047891554
0.541995902870285,0.541995902870285
0.5527778001655462,0.5527778001655462
0.3155760596697985,0.3155760596697985
0.07090992873886999,0.07090992873886999
0.05100488757838768,0.05100488757838768
0.2218564908725276,0.2218564908725276
0.353727388560723,0.353727388560723
0.2566903129033717,0.2566903129033717
-0.024468393488441126,-0.024468393488441126
-0.3114327368853946,-0.3114327368853946
-0.4773080798894139,-0.4773080798894139
-0.5569282445313433,-0.5569282445313433
-0.6290840187380916,-0.6290840187380916
-0.7128510669551215,-0.7128510669551215
-0.7418792519808248,-0.7418792519808248
-0.667235347629016,-0.667235347629016
-0.5154594087803384,-0.5154594087803384
-0.39768791524748465,-0.39768791524748465
-0.36451284664668077,-0.36451284664668077
-0.34626655891623864,-0.34626655891623864
-0.21356628451302317,-0.21356628451302317
0.013682935402483323,0.013682935402483323
0.16462949753614092,0.16462949753614092
0.07671556574401067,0.07671556574401067
-0.21356628451302317,-0.21356628451302317
-0.5602457513914236,-0.5602457513914236
-0.8173525330476537,-0.8173525330476537
-0.914389608705005,-0.914389608705005
-0.8173525330476537,-0.8173525330476537
-0.6042027172874888,-0.6042027172874888
-0.4399861277135096,-0.4399861277135096
-0.48228434017953453,-0.48228434017953453
-0.7045572998049204,-0.7045572998049204
-0.9243421292852461,-0.9243421292852461
-0.9682990951813112,-0.9682990951813112
-0.8347694440630756,-0.8347694440630756
-0.6290840187380916,-0.6290840187380916
-0.4399861277135096,-0.4399861277135096
-0.289039565579852,-0.289039565579852
-0.2102487776529428,-0.2102487776529428
-0.2508882366889275,-0.2508882366889275
-0.37612412065696216,-0.37612412065696216
-0.40183479882258516,-0.40183479882258516
-0.1845380994873198,-0.1845380994873198
0.2019514497120453,0.2019514497120453
0.4773045190987174,0.4773045190987174
0.42920066962755177,0.42920066962755177
0.09662060690449299,0.09662060690449299
-0.289039565579852,-0.289039565579852
-0.5569282445313433,-0.5569282445313433
-0.666405970913996,-0.666405970913996
-0.683822881929418,-0.683822881929418
-0.6290840187380916,-0.6290840187380916
-0.5395113335159212,-0.5395113335159212
-0.4773080798894139,-0.4773080798894139
-0.5643926349665241,-0.5643926349665241
-0.8173525330476537,-0.8173525330476537
-1.0910468490042855,-1.0910468490042855
-1.1573969862058933,-1.1573969862058933
-0.9649815883212308,-0.9649815883212308
-0.666405970913996,-0.666405970913996
-0.45325615515383116,-0.45325615515383116
-0.4399861277135096,-0.4399861277135096
-0.7377323684057243,-0.7377323684057243
-1.308343548339551,-1.308343548339551
-1.7188850222744987,-1.7188850222744987
-1.3464948772304752,-1.3464948772304752
-0.09911229784024983,-0.09911229784024983
1.4111827002113464,1.4111827002113464
2.55738132036912,2.55738132036912
3.261522151421182,3.261522151421182
3.611519125159663,3.611519125159663
3.450620042445764,3.450620042445764
2.6801290741920942,2.6801290741920942
1.6757538723027572,1.6757538723027572
0.9235091917795294,0.9235091917795294
0.46652262180345616,0.46652262180345616
0.006218544967302451,0.006218544967302451
-0.5527813609562428,-0.5527813609562428
-1.0387961159580195,-1.0387961159580195
-1.308343548339551,-1.308343548339551
-1.3962574801316812,-1.3962574801316812
-1.3464948772304752,-1.3464948772304752
-1.1831076643715162,-1.1831076643715162
-1.0437723762481401,-1.0437723762481401
-1.1831076643715162,-1.1831076643715162
-1.6483880014977905,-1.6483880014977905
-2.053953215142618,-2.053953215142618
-1.874807844698277,-1.874807844698277
-1.0993406161544865,-1.0993406161544865
-0.36451284664668077,-0.36451284664668077
-0.33880216848105776,-0.33880216848105776
-0.9682990951813112,-0.9682990951813112
-1.6326298439124087,-1.6326298439124087
-1.7620126114555439,-1.7620126114555439
-1.3390304867952945,-1.3390304867952945
-0.7045572998049204,-0.7045572998049204
-0.2600113805541486,-0.2600113805541486
-0.21356628451302317,-0.21356628451302317
-0.5478051006661222,-0.5478051006661222
-1.0819237051390644,-1.0819237051390644
-1.6425823644926498,-1.6425823644926498
-2.1020570646137835,-2.1020570646137835
-2.3442350653996518,-2.3442350653996518
-2.253003626747441,-2.253003626747441
-1.8864191187085584,-1.8864191187085584
-1.4592901104732086,-1.4592901104732086
-1.164031999926054,-1.164031999926054
-0.9682990951813112,-0.9682990951813112
-0.7327561081156038,-0.7327561081156038
-0.36451284664668077,-0.36451284664668077
0.10823188091477436,0.10823188091477436
0.5801472317612094,0.5801472317612094
0.8646234450131026,0.8646234450131026
0.8065670749616958,0.8065670749616958
0.4267125394824915,0.4267125394824915
-0.024468393488441126,-0.024468393488441126
-0.3039683464502137,-0.3039683464502137
-0.36451284664668077,-0.36451284664668077
-0.3023095930201735,-0.3023095930201735
-0.09994167455526994,-0.09994167455526994
0.3686561694310847,0.3686561694310847
1.108460199229011,1.108460199229011
1.78606097540043,1.78606097540043
1.939495667679148,1.939495667679148
1.416988337216487,1.416988337216487
0.5801472317612094,0.5801472317612094
-0.01368649619317987,-0.01368649619317987
-0.09994167455526994,-0.09994167455526994
0.0974499836195131,0.0974499836195131
0.16462949753614092,0.16462949753614092
-0.10989419513551109,-0.10989419513551109
-0.5527813609562428,-0.5527813609562428
-0.8024237521772919,-0.8024237521772919
-0.6290840187380916,-0.6290840187380916
-0.17209744876201835,-0.17209744876201835
0.2019514497120453,0.2019514497120453
0.2218564908725276,0.2218564908725276
-0.024468393488441126,-0.024468393488441126
-0.21937192151816387,-0.21937192151816387
-0.1372636267311743,-0.1372636267311743
0.10491437405469396,0.10491437405469396
0.2019514497120453,0.2019514497120453
-0.02115088662836074,-0.02115088662836074
-0.40183479882258516,-0.40183479882258516
-0.6630884640539156,-0.6630884640539156
-0.666405970913996,-0.666405970913996
-0.5502932308111824,-0.5502932308111824
-0.5154594087803384,-0.5154594087803384
-0.683822881929418,-0.683822881929418
-0.9682990951813112,-0.9682990951813112
-1.1781314040813957,-1.1781314040813957
-1.1573969862058933,-1.1573969862058933
-1.0056210473572156,-1.0056210473572156
-0.9309771430054069,-0.9309771430054069
-1.0139148145074166,-1.0139148145074166
-1.0819237051390644,-1.0819237051390644
-0.9765928623315122,-0.9765928623315122
-0.7418792519808248,-0.7418792519808248
-0.5511226075262026,-0.5511226075262026
-0.4399861277135096,-0.4399861277135096
-0.3155796204604951,-0.3155796204604951
-0.09994167455526994,-0.09994167455526994
0.19034017570176393,0.19034017570176393
0.541995902870285,0.541995902870285
0.9674661576755945,0.9674661576755945
1.4485046523872507,1.4485046523872507
1.8673398934723995,1.8673398934723995
2.0912716065278256,2.0912716065278256
2.0954184901029262,2.0954184901029262
2.015798325460997,2.015798325460997
1.9801351267151326,1.9801351267151326
1.9776469965700725,1.9776469965700725
1.8432879687368167,1.8432879687368167
1.4485046523872507,1.4485046523872507
0.8496946641427409,0.8496946641427409
0.24010277860296972,0.24010277860296972
-0.23927696267864618,-0.23927696267864618
-0.5909326898471672,-0.5909326898471672
-0.9011195812646834,-0.9011195812646834
-1.1955483150968178,-1.1955483150968178
-1.4344088090226055,-1.4344088090226055
-1.5729147204309617,-1.5729147204309617
-1.6235067000471877,-1.6235067000471877
-1.6110660493218862,-1.6110660493218862
-1.5355927682550574,-1.5355927682550574
-1.3464948772304752,-1.3464948772304752
-1.0222085816576174,-1.0222085816576174
-0.6290840187380916,-0.6290840187380916
-0.36451284664668077,-0.36451284664668077
-0.40183479882258516,-0.40183479882258516
-0.7501730191310257,-0.7501730191310257
-1.1955483150968178,-1.1955483150968178
-1.5049058297993139,-1.5049058297993139
-1.5729147204309617,-1.5729147204309617
-1.4617782406182687,-1.4617782406182687
-1.232870267272722,-1.232870267272722
-0.9251715060002662,-0.9251715060002662
-0.5909326898471672,-0.5909326898471672
-0.4126166961178464,-0.4126166961178464
-0.5527813609562428,-0.5527813609562428
-0.9790809924765724,-0.9790809924765724
-1.421968158297304,-1.421968158297304
-1.6442411179226901,-1.6442411179226901
-1.6110660493218862,-1.6110660493218862
-1.4327500555925654,-1.4327500555925654
-1.1955483150968178,-1.1955483150968178
-0.9782516157615524,-0.9782516157615524
-0.8928258141144824,-0.8928258141144824
-1.0387961159580195,-1.0387961159580195
-1.3464948772304752,-1.3464948772304752
-1.626824206907268,-1.626824206907268
-1.686539330388715,-1.686539330388715
-1.4650957474783493,-1.4650957474783493
-1.0064504240722356,-1.0064504240722356
-0.4184223331229871,-0.4184223331229871
0.16462949753614092,0.16462949753614092
0.58512349205133,0.58512349205133
0.731093793894867,0.731093793894867
0.5876116221963903,0.5876116221963903
0.24010277860296972,0.24010277860296972
-0.22103067494820405,-0.22103067494820405
-0.666405970913996,-0.666405970913996
-0.9036077114097437,-0.9036077114097437
-0.7418792519808248,-0.7418792519808248
-0.2351300791035457,-0.2351300791035457
0.3155760596697985,0.3155760596697985
0.6647436566932593,0.6647436566932593
0.8447184038526202,0.8447184038526202
0.9674661576755945,0.9674661576755945
0.9956649659862779,0.9956649659862779
0.7767095132209724,0.7767095132209724
0.3155760596697985,0.3155760596697985
-0.22517755852330454,-0.22517755852330454
-0.666405970913996,-0.666405970913996
-0.914389608705005,-0.914389608705005
-0.9309771430054069,-0.9309771430054069
-0.7501730191310257,-0.7501730191310257
-0.4399861277135096,-0.4399861277135096
-0.08003663339478762,-0.08003663339478762
0.2782541074938942,0.2782541074938942
0.4789632725287576,0.4789632725287576
0.353727388560723,0.353727388560723
-0.15136303088651593,-0.15136303088651593
-0.7800305808717493,-0.7800305808717493
-1.1491032190556922,-1.1491032190556922
-1.0064504240722356,-1.0064504240722356
-0.4151048262629067,-0.4151048262629067
0.353727388560723,0.353727388560723
0.9525373768052329,0.9525373768052329
1.1466115281199354,1.1466115281199354
0.825642739407158,0.825642739407158
0.12647816864521647,0.12647816864521647
-0.6100083542926295,-0.6100083542926295
-1.0064504240722356,-1.0064504240722356
-0.9260008827152862,-0.9260008827152862
-0.5154594087803384,-0.5154594087803384
0.017000442262563708,0.017000442262563708
0.6556205128280382,0.6556205128280382
1.4916322415682957,1.4916322415682957
2.4686380118619695,2.4686380118619695
3.217565185525117,3.217565185525117
3.2996734803121064,3.2996734803121064
2.573139477954502,2.573139477954502
1.3730313713204219,1.3730313713204219
0.29235351164923584,0.29235351164923584
-0.1372636267311743,-0.1372636267311743
0.28488912121405496,0.28488912121405496
1.2602361380776888,1.2602361380776888
2.0033576747356956,2.0033576747356956
1.751227153369586,1.751227153369586
0.4010018613168685,0.4010018613168685
-1.308343548339551,-1.308343548339551
-2.510939785118691,-2.510939785118691
-2.819467923106167,-2.819467923106167
-2.3533582092648726,-2.3533582092648726
-1.3838168294063797,-1.3838168294063797
-0.26664639427430936,-0.26664639427430936
0.5046739506943806,0.5046739506943806
0.5096502109845011,0.5096502109845011
-0.21356628451302317,-0.21356628451302317
-1.1764726506513554,-1.1764726506513554
-1.8374858925223725,-1.8374858925223725
-2.0498063315675172,-2.0498063315675172
-1.9884324546560301,-1.9884324546560301
-1.875637221413297,-1.875637221413297
-1.686539330388715,-1.686539330388715
-1.3116610551996313,-1.3116610551996313
-0.6290840187380916,-0.6290840187380916
0.3993431078868283,0.3993431078868283
1.6002805912359284,1.6002805912359284
2.3724303129196382,2.3724303129196382
2.0531202776369013,2.0531202776369013
0.6373742250975961,0.6373742250975961
-1.0064504240722356,-1.0064504240722356
-1.971015543640608,-1.971015543640608
-2.139379016789688,-2.139379016789688
-2.005019988956432,-2.005019988956432
-1.9129591735892013,-1.9129591735892013
-1.8117752143567496,-1.8117752143567496
-1.4974414393641329,-1.4974414393641329
-0.8828732935342413,-0.8828732935342413
0.05100488757838768,0.05100488757838768
1.195544754306121,1.195544754306121
2.2795401208373876,2.2795401208373876
2.953823390148726,2.953823390148726
2.9977803560447915,2.9977803560447915
2.392335354080121,2.392335354080121
1.297558090253593,1.297558090253593
-0.004563352327958806,-0.004563352327958806
-1.1573969862058933,-1.1573969862058933
-1.884760365278518,-1.884760365278518
-2.063905735722859,-2.063905735722859
-1.7852351594761064,-1.7852351594761064
-1.232870267272722,-1.232870267272722
-0.6332309023131921,-0.6332309023131921
-0.09994167455526994,-0.09994167455526994
0.37777931329630576,0.37777931329630576
0.8065670749616958,0.8065670749616958
1.0263519044420215,1.0263519044420215
0.8447184038526202,0.8447184038526202
0.3246992035350196,0.3246992035350196
-0.1372636267311743,-0.1372636267311743
-0.22849506538338493,-0.22849506538338493
-0.024468393488441126,-0.024468393488441126
0.12481941521517628,0.12481941521517628
0.05100488757838768,0.05100488757838768
-0.1074060649904508,-0.1074060649904508
-0.06179034566434548,-0.06179034566434548
0.27991286092393436,0.27991286092393436
0.7692451227857915,0.7692451227857915
1.0669913634780062,1.0669913634780062
0.920191684919449,0.920191684919449
0.30645291580457745,0.30645291580457745
-0.4773080798894139,-0.4773080798894139
-0.9940097733469342,-0.9940097733469342
-0.9682990951813112,-0.9682990951813112
-0.5055068882000973,-0.5055068882000973
0.08915621646931213,0.08915621646931213
0.6182985606521338,0.6182985606521338
1.0711382470531066,1.0711382470531066
1.3149750012690151,1.3149750012690151
1.108460199229011,1.108460199229011
0.41095438189710964,0.41095438189710964
-0.36451284664668077,-0.36451284664668077
-0.7402204985507846,-0.7402204985507846
-0.6290840187380916,-0.6290840187380916
-0.3106033601703745,-0.3106033601703745
0.05100488757838768,0.05100488757838768
0.5652184508908477,0.5652184508908477
1.2602361380776888,1.2602361380776888
1.7114170710486214,1.7114170710486214
1.4111827002113464,1.4111827002113464
0.3678267927160646,0.3678267927160646
-0.7418792519808248,-0.7418792519808248
-1.3141491853446916,-1.3141491853446916
-1.308343548339551,-1.308343548339551
-1.0661655475536826,-1.0661655475536826
-0.7045572998049204,-0.7045572998049204
-0.07920725667976751,-0.07920725667976751
0.8065670749616958,0.8065670749616958
1.562958639060024,1.562958639060024
1.7885491055454903,1.7885491055454903
1.4485046523872507,1.4485046523872507
0.8447184038526202,0.8447184038526202
0.18038765512152277,0.18038765512152277
-0.4773080798894139,-0.4773080798894139
-0.9276596361453264,-0.9276596361453264
-0.7800305808717493,-0.7800305808717493
0.07671556574401067,0.07671556574401067
1.2602361380776888,1.2602361380776888
2.288663264702609,2.288663264702609
2.9977803560447915,2.9977803560447915
3.3179197680425485,3.3179197680425485
3.07325363711162,3.07325363711162
2.197431826050398,2.197431826050398
1.0711382470531066,1.0711382470531066
0.1696057578262615,0.1696057578262615
-0.36451284664668077,-0.36451284664668077
-0.6564534503337548,-0.6564534503337548
-0.7045572998049204,-0.7045572998049204
-0.37861225080202243,-0.37861225080202243
0.2019514497120453,0.2019514497120453
0.5403371494402448,0.5403371494402448
0.24010277860296972,0.24010277860296972
-0.5262413060755996,-0.5262413060755996
-1.1573969862058933,-1.1573969862058933
-1.3464948772304752,-1.3464948772304752
-1.308343548339551,-1.308343548339551
-1.316637315489752,-1.316637315489752
-1.232870267272722,-1.232870267272722
-0.8231581700527942,-0.8231581700527942
-0.09994167455526994,-0.09994167455526994
0.7534869652004096,0.7534869652004096
1.6002805912359284,1.6002805912359284
2.0896128530977855,2.0896128530977855
1.7130758244786615,1.7130758244786615
0.3694855461461048,0.3694855461461048
-1.232870267272722,-1.232870267272722
-2.2720792911929033,-2.2720792911929033
-2.5548967510147564,-2.5548967510147564
-2.466982819222626,-2.466982819222626
-2.2903255789233454,-2.2903255789233454
-2.0622469822928187,-2.0622469822928187
-1.7620126114555439,-1.7620126114555439
-1.4103568842870227,-1.4103568842870227
-0.8928258141144824,-0.8928258141144824
-0.060960968949325386,-0.060960968949325386
0.9956649659862779,0.9956649659862779
1.845776098881877,1.845776098881877
2.015798325460997,2.015798325460997
1.3639082274552008,1.3639082274552008
0.24010277860296972,0.24010277860296972
-0.78666559459191,-0.78666559459191
-1.2710215961636464,-1.2710215961636464
-1.1233925408900693,-1.1233925408900693
-0.4773080798894139,-0.4773080798894139
0.41344251204217,0.41344251204217
1.3357094191445176,1.3357094191445176
2.0962478668179463,2.0962478668179463
2.5441112929287986,2.5441112929287986
2.5200593681932157,2.5200593681932157
1.939495667679148,1.939495667679148
0.9425848562249917,0.9425848562249917
-0.1372636267311743,-0.1372636267311743
-1.0255260885176978,-1.0255260885176978
-1.6110660493218862,-1.6110660493218862
-1.8507559199626942,-1.8507559199626942
-1.686539330388715,-1.686539330388715
-1.2079889658221192,-1.2079889658221192
-0.6290840187380916,-0.6290840187380916
-0.07091348952956654,-0.07091348952956654
0.5801472317612094,0.5801472317612094
1.3240981451342362,1.3240981451342362
1.8640223866123191,1.8640223866123191
1.8399704618767363,1.8399704618767363
1.2602361380776888,1.2602361380776888
0.45657010122321495,0.45657010122321495
-0.2508882366889275,-0.2508882366889275
-0.7634430465713473,-0.7634430465713473
-1.0437723762481401,-1.0437723762481401
-1.0338198556678988,-1.0338198556678988
-0.666405970913996,-0.666405970913996
-0.04022655107382297,-0.04022655107382297
0.6174691839371137,0.6174691839371137
1.0363044250222626,1.0363044250222626
1.108460199229011,1.108460199229011
0.9359498425048309,0.9359498425048309
0.731093793894867,0.731093793894867
0.6249335743722946,0.6249335743722946
0.6174691839371137,0.6174691839371137
0.6000522729216917,0.6000522729216917
0.5046739506943806,0.5046739506943806
0.28074223763895445,0.28074223763895445
-0.024468393488441126,-0.024468393488441126
-0.3338259081909372,-0.3338259081909372
-0.5154594087803384,-0.5154594087803384
-0.520435669070459,-0.520435669070459
-0.40183479882258516,-0.40183479882258516
-0.32387338761069606,-0.32387338761069606
-0.40183479882258516,-0.40183479882258516
-0.6324015255981721,-0.6324015255981721
-0.8928258141144824,-0.8928258141144824
-1.078606198278984,-1.078606198278984
-1.1573969862058933,-1.1573969862058933
-1.1474444656256522,-1.1474444656256522
-0.9682990951813112,-0.9682990951813112
-0.42920423041824834,-0.42920423041824834
0.6556205128280382,0.6556205128280382
2.1932849424752976,2.1932849424752976
3.7533425434280994,3.7533425434280994
4.745277094592135,4.745277094592135
4.8107978550787225,4.8107978550787225
3.990544283923847,3.990544283923847
2.695057855062456,2.695057855062456
1.4037183097761654,1.4037183097761654
0.42920066962755177,0.42920066962755177
-0.19366124335254087,-0.19366124335254087
-0.5527813609562428,-0.5527813609562428
-0.7012397929448401,-0.7012397929448401
-0.6290840187380916,-0.6290840187380916
-0.4374979975684493,-0.4374979975684493
-0.32636151775575634,-0.32636151775575634
-0.435009867423389,-0.435009867423389
-0.7045572998049204,-0.7045572998049204
-1.035478609097939,-1.035478609097939
-1.3838168294063797,-1.3838168294063797
-1.6931743441088758,-1.6931743441088758
-1.7620126114555439,-1.7620126114555439
-1.4145037678621233,-1.4145037678621233
-0.7418792519808248,-0.7418792519808248
-0.1331167431560738,-0.1331167431560738
0.05100488757838768,0.05100488757838768
-0.2873808121498118,-0.2873808121498118
-0.8928258141144824,-0.8928258141144824
-1.4559726036131282,-1.4559726036131282
-1.7238612825646193,-1.7238612825646193
-1.601113528741645,-1.601113528741645
-1.0819237051390644,-1.0819237051390644
-0.33133777804587694,-0.33133777804587694
0.353727388560723,0.353727388560723
0.7103593760193646,0.7103593760193646
0.6937718417189627,0.6937718417189627
0.41344251204217,0.41344251204217
0.05100488757838768,0.05100488757838768
-0.25171761340394766,-0.25171761340394766
-0.4773080798894139,-0.4773080798894139
-0.8256463001978546,-0.8256463001978546
-1.421968158297304,-1.421968158297304
-1.927887954459563,-1.927887954459563
-1.686539330388715,-1.686539330388715
-0.5038481347700571,-0.5038481347700571
0.9575136370953534,0.9575136370953534
1.7694734411000281,1.7694734411000281
1.6376025434118326,1.6376025434118326
0.9492198699451524,0.9492198699451524
0.2019514497120453,0.2019514497120453
-0.42920423041824834,-0.42920423041824834
-0.9309771430054069,-0.9309771430054069
-1.2096477192521593,-1.2096477192521593
-1.0819237051390644,-1.0819237051390644
-0.5196062923554389,-0.5196062923554389
0.24010277860296972,0.24010277860296972
0.7642688624956708,0.7642688624956708
0.7692451227857915,0.7692451227857915
0.3238698268199995,0.3238698268199995
-0.21356628451302317,-0.21356628451302317
-0.5876151829870868,-0.5876151829870868
-0.7800305808717493,-0.7800305808717493
-0.8679445126638795,-0.8679445126638795
-0.8173525330476537,-0.8173525330476537
-0.5544401143862829,-0.5544401143862829
-0.09994167455526994,-0.09994167455526994
0.40348999146192877,0.40348999146192877
0.8065670749616958,0.8065670749616958
0.9865418221210568,0.9865418221210568
0.9575136370953534,0.9575136370953534
0.8729172121633035,0.8729172121633035
0.920191684919449,0.920191684919449
1.0296694113021019,1.0296694113021019
0.920191684919449,0.920191684919449
0.4847689095338983,0.4847689095338983
0.05100488757838768,0.05100488757838768
0.02944109298786516,0.02944109298786516
0.42920066962755177,0.42920066962755177
0.7941264242363943,0.7941264242363943
0.6937718417189627,0.6937718417189627
0.08832683975429202,0.08832683975429202
-0.6290840187380916,-0.6290840187380916
-1.0313317255228385,-1.0313317255228385
-0.9309771430054069,-0.9309771430054069
-0.49638374433487614,-0.49638374433487614
-0.024468393488441126,-0.024468393488441126
0.23429714159782905,0.23429714159782905
0.24010277860296972,0.24010277860296972
0.08252120274915135,0.08252120274915135
-0.09994167455526994,-0.09994167455526994
-0.27494016142451033,-0.27494016142451033
-0.4399861277135096,-0.4399861277135096
-0.537023203370861,-0.537023203370861
-0.4773080798894139,-0.4773080798894139
-0.35290157263639943,-0.35290157263639943
-0.36451284664668077,-0.36451284664668077
-0.520435669070459,-0.520435669070459
-0.4773080798894139,-0.4773080798894139
0.0700805520238499,0.0700805520238499
1.0711382470531066,1.0711382470531066
2.187479305470157,2.187479305470157
3.1105755892875244,3.1105755892875244
3.5974197210043215,3.5974197210043215
3.526093323512593,3.526093323512593
3.0334435547906553,3.0334435547906553
2.5067893407528943,2.5067893407528943
2.1559629902993933,2.1559629902993933
1.7885491055454903,1.7885491055454903
1.0852376512084483,1.0852376512084483
0.05100488757838768,0.05100488757838768
-1.0329904789528788,-1.0329904789528788
-1.874807844698277,-1.874807844698277
-2.2903255789233454,-2.2903255789233454
-2.177530345680612,-2.177530345680612
-1.625994830192248,-1.625994830192248
-0.9309771430054069,-0.9309771430054069
-0.4068110591127057,-0.4068110591127057
-0.1372636267311743,-0.1372636267311743
-0.05847283880426509,-0.05847283880426509
-0.09994167455526994,-0.09994167455526994
-0.22517755852330454,-0.22517755852330454
-0.32636151775575634,-0.32636151775575634
-0.2882101888648319,-0.2882101888648319
-0.09994167455526994,-0.09994167455526994
0.045199250573246995,0.045199250573246995
-0.024468393488441126,-0.024468393488441126
-0.3222146341806559,-0.3222146341806559
-0.666405970913996,-0.666405970913996
-0.9641522116062107,-0.9641522116062107
-1.232870267272722,-1.232870267272722
-1.4858301653538515,-1.4858301653538515
-1.5729147204309617,-1.5729147204309617
-1.3622530348158572,-1.3622530348158572
-0.8928258141144824,-0.8928258141144824
-0.3412902986261181,-0.3412902986261181
0.12647816864521647,0.12647816864521647
0.3545567652757431,0.3545567652757431
0.2019514497120453,0.2019514497120453
-0.33216715476089703,-0.33216715476089703
-0.9682990951813112,-0.9682990951813112
-1.3456655005154552,-1.3456655005154552
-1.2710215961636464,-1.2710215961636464
-0.847210094788377,-0.847210094788377
-0.2508882366889275,-0.2508882366889275
0.40431936817694886,0.40431936817694886
1.0329869181621822,1.0329869181621822
1.4128414536413865,1.4128414536413865
1.297558090253593,1.297558090253593
0.6946012184339827,0.6946012184339827
-0.024468393488441126,-0.024468393488441126
-0.4457917647186503,-0.4457917647186503
-0.4773080798894139,-0.4773080798894139
-0.37114786036684155,-0.37114786036684155
-0.36451284664668077,-0.36451284664668077
-0.44993864829375074,-0.44993864829375074
-0.40183479882258516,-0.40183479882258516
-0.05017907165406413,-0.05017907165406413
0.5801472317612094,0.5801472317612094
1.194715377591101,1.194715377591101
1.4866559812781752,1.4866559812781752
1.3299037821393769,1.3299037821393769
0.8820403560285246,0.8820403560285246
0.38607308044650673,0.38607308044650673
-0.024468393488441126,-0.024468393488441126
-0.37031848365182146,-0.37031848365182146
-0.7045572998049204,-0.7045572998049204
-1.0139148145074166,-1.0139148145074166
-1.1955483150968178,-1.1955483150968178
-1.1590557396359336,-1.1590557396359336
-0.8928258141144824,-0.8928258141144824
-0.5337056965107805,-0.5337056965107805
-0.21356628451302317,-0.21356628451302317
0.06427491501870922,0.06427491501870922
0.5046739506943806,0.5046739506943806
1.306681234118814,1.306681234118814
2.393164730795141,2.393164730795141
3.3129435077524283,3.3129435077524283
3.526093323512593,3.526093323512593
2.8012180745850284,2.8012180745850284
1.4485046523872507,1.4485046523872507
0.09662060690449299,0.09662060690449299
-0.7418792519808248,-0.7418792519808248
-1.0678243009837227,-1.0678243009837227
-1.1955483150968178,-1.1955483150968178
-1.3556180210956963,-1.3556180210956963
-1.421968158297304,-1.421968158297304
-1.1963776918118378,-1.1963776918118378
-0.6290840187380916,-0.6290840187380916
0.1472125865207189,0.1472125865207189
0.920191684919449,0.920191684919449
1.330733158854397,1.330733158854397
1.0711382470531066,1.0711382470531066
0.250884675898231,0.250884675898231
-0.5527813609562428,-0.5527813609562428
-0.897802074404603,-0.897802074404603
-0.8555038619385781,-0.8555038619385781
-0.734414861545644,-0.734414861545644
-0.5527813609562428,-0.5527813609562428
-0.14472801716635517,-0.14472801716635517
0.5046739506943806,0.5046739506943806
1.1648578158503775,1.1648578158503775
1.6757538723027572,1.6757538723027572
2.0099926884558563,2.0099926884558563
2.204066839770559,2.204066839770559
2.2778813674073475,2.2778813674073475
2.2795401208373876,2.2795401208373876
2.2438769220915233,2.2438769220915233
2.12859355870373,2.12859355870373
1.8242123042913545,1.8242123042913545
1.297558090253593,1.297558090253593
0.6821605677086813,0.6821605677086813
0.2019514497120453,0.2019514497120453
-0.053496578514144515,-0.053496578514144515
-0.17541495562209874,-0.17541495562209874
-0.32304401089567597,-0.32304401089567597
-0.5527813609562428,-0.5527813609562428
-0.8729207729540001,-0.8729207729540001
-1.232870267272722,-1.232870267272722
-1.4775363982036507,-1.4775363982036507
-1.3838168294063797,-1.3838168294063797
-0.9608347047461303,-0.9608347047461303
-0.5154594087803384,-0.5154594087803384
-0.35041344249133916,-0.35041344249133916
-0.4399861277135096,-0.4399861277135096
-0.5925914432772074,-0.5925914432772074
-0.7045572998049204,-0.7045572998049204
-0.8223287933377742,-0.8223287933377742
-0.9682990951813112,-0.9682990951813112
-1.173984520506295,-1.173984520506295
-1.421968158297304,-1.421968158297304
-1.5936491383064642,-1.5936491383064642
-1.421968158297304,-1.421968158297304
-0.8405750810682163,-0.8405750810682163
-0.09994167455526994,-0.09994167455526994
0.4018312380318886,0.4018312380318886
0.5046739506943806,0.5046739506943806
0.28820662807413533,0.28820662807413533
-0.09994167455526994,-0.09994167455526994
-0.5527813609562428,-0.5527813609562428
-0.9682990951813112,-0.9682990951813112
-1.258580945438345,-1.258580945438345
-1.3838168294063797,-1.3838168294063797
-1.368058671820998,-1.368058671820998
-1.232870267272722,-1.232870267272722
-1.0105973076473362,-1.0105973076473362
-0.7045572998049204,-0.7045572998049204
-0.29401582586997255,-0.29401582586997255
0.3155760596697985,0.3155760596697985
1.176469089860659,1.176469089860659
2.204066839770559,2.204066839770559
3.080718027546801,3.080718027546801
3.4132980902698598,3.4132980902698598
2.9413827394234247,2.9413827394234247
1.751227153369586,1.751227153369586
0.2226858675875477,0.2226858675875477
-1.1573969862058933,-1.1573969862058933
-2.047318201422457,-2.047318201422457
-2.3284769078142697,-2.3284769078142697
-2.112009585194025,-2.112009585194025
-1.6110660493218862,-1.6110660493218862
-1.070312431128783,-1.070312431128783
-0.6290840187380916,-0.6290840187380916
-0.27328140799447015,-0.27328140799447015
0.12647816864521647,0.12647816864521647
0.6431798621027367,0.6431798621027367
1.2220848091867642,1.2220848091867642
1.7454215163644453,1.7454215163644453
2.12859355870373,2.12859355870373
2.2878338879875884,2.2878338879875884
2.1667448875946542,2.1667448875946542
1.7785965849652492,1.7785965849652492
1.2602361380776888,1.2602361380776888
0.705383115729244,0.705383115729244
0.16462949753614092,0.16462949753614092
-0.289039565579852,-0.289039565579852
-0.4773080798894139,-0.4773080798894139
-0.3371434150510176,-0.3371434150510176
-0.024468393488441126,-0.024468393488441126
0.2210271141575075,0.2210271141575075
0.3155760596697985,0.3155760596697985
0.2906947582191956,0.2906947582191956
0.16462949753614092,0.16462949753614092
-0.09247728412008906,-0.09247728412008906
-0.40183479882258516,-0.40183479882258516
-0.6216196283029107,-0.6216196283029107
-0.5909326898471672,-0.5909326898471672
-0.29982146287511324,-0.29982146287511324
0.12647816864521647,0.12647816864521647
0.38524370373148664,0.38524370373148664
0.24010277860296972,0.24010277860296972
-0.3031389697351936,-0.3031389697351936
-0.9309771430054069,-0.9309771430054069
-1.352300514235616,-1.352300514235616
-1.4974414393641329,-1.4974414393641329
-1.4617782406182687,-1.4617782406182687
-1.2710215961636464,-1.2710215961636464
-0.8795557866741609,-0.8795557866741609
-0.289039565579852,-0.289039565579852
0.38607308044650673,0.38607308044650673
1.0329869181621822,1.0329869181621822
1.6351144132667725,1.6351144132667725
2.2795401208373876,2.2795401208373876
3.028467294500535,3.028467294500535
3.7906644956040036,3.7906644956040036
4.2708736136006396,4.2708736136006396
4.206182229829072,4.206182229829072
3.613177878589703,3.613177878589703
2.808682465020209,2.808682465020209
2.0547790310669414,2.0547790310669414
1.3357094191445176,1.3357094191445176
0.48642766296393847,0.48642766296393847
-0.4773080798894139,-0.4773080798894139
-1.318296068919792,-1.318296068919792
-1.7620126114555439,-1.7620126114555439
-1.7246906592796394,-1.7246906592796394
-1.3838168294063797,-1.3838168294063797
-1.1009993695845266,-1.1009993695845266
-1.1573969862058933,-1.1573969862058933
-1.5214933640997157,-1.5214933640997157
-1.8374858925223725,-1.8374858925223725
-1.7926995499112874,-1.7926995499112874
-1.3464948772304752,-1.3464948772304752
-0.6937754025096592,-0.6937754025096592
-0.024468393488441126,-0.024468393488441126
0.4797926492437777,0.4797926492437777
0.6556205128280382,0.6556205128280382
0.37777931329630576,0.37777931329630576
-0.2508882366889275,-0.2508882366889275
-0.9956685267769744,-0.9956685267769744
-1.5729147204309617,-1.5729147204309617
-1.8432915295275132,-1.8432915295275132
-1.7993345636314482,-1.7993345636314482
-1.577061604006062,-1.577061604006062
-1.308343548339551,-1.308343548339551
-1.026355465232718,-1.026355465232718
-0.6290840187380916,-0.6290840187380916
-0.055155331944184705,-0.055155331944184705
0.5801472317612094,0.5801472317612094
1.0031293564214587,1.0031293564214587
0.9956649659862779,0.9956649659862779
0.567706581035908,0.567706581035908
-0.024468393488441126,-0.024468393488441126
-0.4665261825941527,-0.4665261825941527
-0.5527813609562428,-0.5527813609562428
-0.29318644915495246,-0.29318644915495246
0.16462949753614092,0.16462949753614092
0.5776591016161491,0.5776591016161491
0.7692451227857915,0.7692451227857915
0.6755255539885205,0.6755255539885205
0.39104934073662734,0.39104934073662734
0.06925117530882981,0.06925117530882981
-0.1372636267311743,-0.1372636267311743
-0.1322873664410537,-0.1322873664410537
0.08915621646931213,0.08915621646931213
0.3694855461461048,0.3694855461461048
0.46652262180345616,0.46652262180345616
0.18785204555670362,0.18785204555670362
-0.36451284664668077,-0.36451284664668077
-0.8405750810682163,-0.8405750810682163
-0.8928258141144824,-0.8928258141144824
-0.5021893813400169,-0.5021893813400169
0.08915621646931213,0.08915621646931213
0.6605967731181588,0.6605967731181588
1.1466115281199354,1.1466115281199354
1.4285996112267683,1.4285996112267683
1.297558090253593,1.297558090253593
0.6962599718640229,0.6962599718640229
-0.06179034566434548,-0.06179034566434548
-0.6050320940025088,-0.6050320940025088
-0.7800305808717493,-0.7800305808717493
-0.6722116079191367,-0.6722116079191367
-0.2508882366889275,-0.2508882366889275
0.5610715673157471,0.5610715673157471
1.6757538723027572,1.6757538723027572
2.6394896151561094,2.6394896151561094
2.9223070749779625,2.9223070749779625
2.267928846827106,2.267928846827106
0.8820403560285246,0.8820403560285246
-0.7369029916907042,-0.7369029916907042
-2.063905735722859,-2.063905735722859
-2.7439946420393384,-2.7439946420393384
-2.6685213609725094,-2.6685213609725094
-1.9917499615161105,-1.9917499615161105
-1.0064504240722356,-1.0064504240722356
0.05100488757838768,0.05100488757838768
1.1466115281199354,1.1466115281199354
2.3019332921429303,2.3019332921429303
3.488771371336689,3.488771371336689
4.552032319992453,4.552032319992453
5.339110822546524,5.339110822546524
5.669202755124523,5.669202755124523
5.339110822546524,5.339110822546524
4.217793503839354,4.217793503839354
2.4313160596860652,2.4313160596860652
0.3976843544567881,0.3976843544567881
-1.3464948772304752,-1.3464948772304752
-2.450395284922224,-2.450395284922224
-2.8576192519970918,-2.8576192519970918
-2.7721934503500214,-2.7721934503500214
