ECG,PPG
-0.20411070945349696,-0.20411070945349696
0.20678396368761962,0.20678396368761962
-0.08945784098024992,-0.08945784098024992
-0.20808710951615295,-0.20808710951615295
0.06297082808822882,0.06297082808822882
0.26311629790857916,0.26311629790857916
0.21539949715670756,0.21539949715670756
0.16834542974861194,0.16834542974861194
0.25383803109571523,0.25383803109571523
0.3181231654419867,0.3181231654419867
0.2916138316909469,0.2916138316909469
0.2545007644394912,0.2545007644394912
0.25383803109571523,0.25383803109571523
0.24058336422019536,0.24058336422019536
0.21539949715670756,0.21539949715670756
0.19684296353097971,0.19684296353097971
0.17762369656147586,0.17762369656147586
0.13388329587226022,0.13388329587226022
0.1007466286834605,0.1007466286834605
0.09544476193325255,0.09544476193325255
0.1007466286834605,0.1007466286834605
0.08351556174528464,0.08351556174528464
0.06297082808822882,0.06297082808822882
0.04176336108739699,0.04176336108739699
0.024532294149221135,0.024532294149221135
-0.01456897313356254,-0.01456897313356254
-0.05168204038501823,-0.05168204038501823
-0.07222677404207406,-0.07222677404207406
-0.05168204038501823,-0.05168204038501823
-0.015894439821114527,-0.015894439821114527
0.024532294149221135,0.024532294149221135
0.03712422768096503,0.03712422768096503
0.024532294149221135,0.024532294149221135
-0.0072789063520266,-0.0072789063520266
-0.01324350644601055,-0.01324350644601055
0.011940360617477242,0.011940360617477242
0.06297082808822882,0.06297082808822882
0.10273482871478849,0.10273482871478849
0.1391851626224682,0.1391851626224682
0.17165909646749192,0.17165909646749192
0.21539949715670756,0.21539949715670756
0.25317529775193925,0.25317529775193925
0.2916138316909469,0.2916138316909469
0.31746043209821073,0.31746043209821073
0.3300523656299546,0.3300523656299546
0.3055312319102428,0.3055312319102428
0.25383803109571523,0.25383803109571523
0.1855764966867878,0.1855764966867878
0.1391851626224682,0.1391851626224682
0.1133385622152044,0.1133385622152044
0.1007466286834605,0.1007466286834605
0.06760996149466078,0.06760996149466078
0.024532294149221135,0.024532294149221135
-0.036439173478170356,-0.036439173478170356
-0.08945784098024992,-0.08945784098024992
-0.15506844201407338,-0.15506844201407338
-0.20411070945349696,-0.20411070945349696
-0.25249024354914457,-0.25249024354914457
-0.28032504398773633,-0.28032504398773633
-0.2942424442070322,-0.2942424442070322
-0.28032504398773633,-0.28032504398773633
-0.3081598444263281,-0.3081598444263281
-0.43341644639999105,-0.43341644639999105
-0.6580830499400532,-0.6580830499400532
-0.8913651869492033,-0.8913651869492033
-1.1160317904892654,-1.1160317904892654
-1.3493139274984154,-1.3493139274984154
-1.521624596880174,-1.521624596880174
-1.3870897280936472,-1.3870897280936472
-0.7793632518510603,-0.7793632518510603
0.25383803109571523,0.25383803109571523
1.500439450738361,1.500439450738361
2.7722247374444944,2.7722247374444944
3.8180179539230137,3.8180179539230137
4.336938162099617,4.336938162099617
4.1301653588415075,4.1301653588415075
3.3448263464669536,3.3448263464669536
2.338134397271218,2.338134397271218
1.4368170497358654,1.4368170497358654
0.7522135056152631,0.7522135056152631
0.2916138316909469,0.2916138316909469
0.0013366271170613287,0.0013366271170613287
-0.1663349088582653,-0.1663349088582653
-0.27767411061263236,-0.27767411061263236
-0.3572021118657517,-0.3572021118657517
-0.42480091293090316,-0.42480091293090316
-0.4711922469952228,-0.4711922469952228
-0.5023407141526945,-0.5023407141526945
-0.5096307809342304,-0.5096307809342304
-0.5109562476217824,-0.5109562476217824
-0.5096307809342304,-0.5096307809342304
-0.5149326476844384,-0.5149326476844384
-0.5096307809342304,-0.5096307809342304
-0.5096307809342304,-0.5096307809342304
-0.5096307809342304,-0.5096307809342304
-0.5222227144659743,-0.5222227144659743
-0.5096307809342304,-0.5096307809342304
-0.4917369806522786,-0.4917369806522786
-0.4711922469952228,-0.4711922469952228
-0.4764941137454307,-0.4764941137454307
-0.4711922469952228,-0.4711922469952228
-0.44468291324418296,-0.44468291324418296
-0.3949779124609834,-0.3949779124609834
-0.36449217864728767,-0.36449217864728767
-0.3572021118657517,-0.3572021118657517
-0.37443317880392757,-0.37443317880392757
-0.3949779124609834,-0.3949779124609834
-0.4208245128682472,-0.4208245128682472
-0.43341644639999105,-0.43341644639999105
-0.438055579806423,-0.438055579806423
-0.43341644639999105,-0.43341644639999105
-0.43540464643131904,-0.43540464643131904
-0.43341644639999105,-0.43341644639999105
-0.43474191308754306,-0.43474191308754306
-0.43341644639999105,-0.43341644639999105
-0.439381046493975,-0.439381046493975
-0.43341644639999105,-0.43341644639999105
-0.4301027796811111,-0.4301027796811111
-0.43341644639999105,-0.43341644639999105
-0.44865931330683895,-0.44865931330683895
-0.43341644639999105,-0.43341644639999105
-0.38503691230434345,-0.38503691230434345
-0.31876357792674404,-0.31876357792674404
-0.2750231772375284,-0.2750231772375284
-0.24254924339250464,-0.24254924339250464
-0.22995730986076077,-0.22995730986076077
-0.24254924339250464,-0.24254924339250464
-0.2982188442696882,-0.2982188442696882
-0.3572021118657517,-0.3572021118657517
-0.3949779124609834,-0.3949779124609834
-0.3949779124609834,-0.3949779124609834
-0.37509591214770355,-0.37509591214770355
-0.31876357792674404,-0.31876357792674404
-0.23260824323586474,-0.23260824323586474
-0.1278963749192576,-0.1278963749192576
-0.04571744029103428,-0.04571744029103428
0.024532294149221135,0.024532294149221135
0.09279382855814858,0.09279382855814858
0.17762369656147586,0.17762369656147586
0.2478734310017313,0.2478734310017313
0.2916138316909469,0.2916138316909469
0.2969156984411549,0.2969156984411549
0.2916138316909469,0.2916138316909469
0.27438276475277107,0.27438276475277107
0.25383803109571523,0.25383803109571523
0.22467776396957148,0.22467776396957148
0.21539949715670756,0.21539949715670756
0.21672496384425954,0.21672496384425954
0.21539949715670756,0.21539949715670756
0.18160009662413185,0.18160009662413185
0.1391851626224682,0.1391851626224682
0.09478202858947656,0.09478202858947656
0.06297082808822882,0.06297082808822882
0.03115962758698108,0.03115962758698108
0.024532294149221135,0.024532294149221135
0.03778696102474103,0.03778696102474103
0.06297082808822882,0.06297082808822882
0.0649590281195568,0.0649590281195568
0.06297082808822882,0.06297082808822882
0.05899442802557285,0.05899442802557285
0.06297082808822882,0.06297082808822882
0.04573976115005296,0.04573976115005296
0.024532294149221135,0.024532294149221135
0.00730122721104528,0.00730122721104528
0.024532294149221135,0.024532294149221135
0.06760996149466078,0.06760996149466078
0.1391851626224682,0.1391851626224682
0.20545849700006763,0.20545849700006763
0.25383803109571523,0.25383803109571523
0.2710690980338911,0.2710690980338911
0.2916138316909469,0.2916138316909469
0.32342503219219465,0.32342503219219465
0.3684908995689623,0.3684908995689623
0.39500023332000206,0.39500023332000206
0.406266700164194,0.406266700164194
0.3943374999762261,0.3943374999762261
0.3684908995689623,0.3684908995689623
0.3148094987231067,0.3148094987231067
0.25383803109571523,0.25383803109571523
0.1988311635623077,0.1988311635623077
0.17762369656147586,0.17762369656147586
0.17165909646749192,0.17165909646749192
0.17762369656147586,0.17762369656147586
0.15111436281043608,0.15111436281043608
0.1007466286834605,0.1007466286834605
0.006638493867269285,0.006638493867269285
-0.08945784098024992,-0.08945784098024992
-0.1868796425153211,-0.1868796425153211
-0.24254924339250464,-0.24254924339250464
-0.2611057770182325,-0.2611057770182325
-0.24254924339250464,-0.24254924339250464
-0.2392355766736247,-0.2392355766736247
-0.28032504398773633,-0.28032504398773633
-0.40955804602405527,-0.40955804602405527
-0.6242836494074775,-0.6242836494074775
-0.9119099206062591,-0.9119099206062591
-1.1962225250861607,-1.1962225250861607
-1.3917288615000791,-1.3917288615000791
-1.3493139274984154,-1.3493139274984154
-0.9099217205749311,-0.9099217205749311
0.024532294149221135,0.024532294149221135
1.3228269146063945,1.3228269146063945
2.7344489368492626,2.7344489368492626
4.049974624244612,4.049974624244612
5.138182774724795,5.138182774724795
5.693553316809078,5.693553316809078
5.367488511671289,5.367488511671289
4.1752312262182745,4.1752312262182745
2.696010402910255,2.696010402910255
1.5302624512082807,1.5302624512082807
0.8264396401181745,0.8264396401181745
0.3539107660058904,0.3539107660058904
-0.01324350644601055,-0.01324350644601055
-0.24321197673628064,-0.24321197673628064
-0.31876357792674404,-0.31876357792674404
-0.34792384505288776,-0.34792384505288776
-0.3949779124609834,-0.3949779124609834
-0.4685413136201188,-0.4685413136201188
-0.5474065815294621,-0.5474065815294621
-0.6375383162829974,-0.6375383162829974
-0.7004979839417168,-0.7004979839417168
-0.7104389840983568,-0.7104389840983568
-0.6620594500027092,-0.6620594500027092
-0.6044016490941977,-0.6044016490941977
-0.5474065815294621,-0.5474065815294621
-0.5208972477784224,-0.5208972477784224
-0.5096307809342304,-0.5096307809342304
-0.5308382479350623,-0.5308382479350623
-0.5474065815294621,-0.5474065815294621
-0.571927715249174,-0.571927715249174
-0.5858451154684698,-0.5858451154684698
-0.5984370490002137,-0.5984370490002137
-0.5858451154684698,-0.5858451154684698
-0.565300381811414,-0.565300381811414
-0.5474065815294621,-0.5474065815294621
-0.5507202482483421,-0.5507202482483421
-0.5474065815294621,-0.5474065815294621
-0.5447556481543582,-0.5447556481543582
-0.5474065815294621,-0.5474065815294621
-0.563312181780086,-0.563312181780086
-0.5474065815294621,-0.5474065815294621
-0.5036661808402465,-0.5036661808402465
-0.4711922469952228,-0.4711922469952228
-0.49902704743381454,-0.49902704743381454
-0.5474065815294621,-0.5474065815294621
-0.5805432487182619,-0.5805432487182619
-0.5858451154684698,-0.5858451154684698
-0.6037389157504217,-0.6037389157504217
-0.6242836494074775,-0.6242836494074775
-0.6355501162516694,-0.6355501162516694
-0.6242836494074775,-0.6242836494074775
-0.6209699826885975,-0.6209699826885975
-0.6242836494074775,-0.6242836494074775
-0.6322364495327895,-0.6322364495327895
-0.6242836494074775,-0.6242836494074775
-0.6103662491881816,-0.6103662491881816
-0.5858451154684698,-0.5858451154684698
-0.567951315186518,-0.567951315186518
-0.5474065815294621,-0.5474065815294621
-0.5255363811848544,-0.5255363811848544
-0.4711922469952228,-0.4711922469952228
-0.38901331236699943,-0.38901331236699943
-0.28032504398773633,-0.28032504398773633
-0.17031130892092125,-0.17031130892092125
-0.05168204038501823,-0.05168204038501823
0.05435529461914089,0.05435529461914089
0.1391851626224682,0.1391851626224682
0.1835882966554598,0.1835882966554598
0.21539949715670756,0.21539949715670756
0.23660696415753937,0.23660696415753937
0.25383803109571523,0.25383803109571523
0.25118709772061126,0.25118709772061126
0.25383803109571523,0.25383803109571523
0.2564889644708192,0.2564889644708192
0.25383803109571523,0.25383803109571523
0.21871316387558754,0.21871316387558754
0.17762369656147586,0.17762369656147586
0.14647522940400412,0.14647522940400412
0.1391851626224682,0.1391851626224682
0.12394229571562031,0.12394229571562031
0.1007466286834605,0.1007466286834605
0.07092362821354076,0.07092362821354076
0.06297082808822882,0.06297082808822882
0.06031989471312484,0.06031989471312484
0.06297082808822882,0.06297082808822882
0.05568076130669288,0.05568076130669288
0.06297082808822882,0.06297082808822882
0.06827269483843677,0.06827269483843677
0.06297082808822882,0.06297082808822882
0.023206827461669147,0.023206827461669147
-0.01324350644601055,-0.01324350644601055
-0.031800040071738395,-0.031800040071738395
-0.01324350644601055,-0.01324350644601055
0.015254027336357213,0.015254027336357213
0.06297082808822882,0.06297082808822882
0.11665222893408438,0.11665222893408438
0.17762369656147586,0.17762369656147586
0.21805043053181153,0.21805043053181153
0.25383803109571523,0.25383803109571523
0.28432376490941097,0.28432376490941097
0.3300523656299546,0.3300523656299546
0.3804200997569302,0.3804200997569302
0.4447052341032017,0.4447052341032017
0.49573570157395325,0.49573570157395325
0.520919568637441,0.520919568637441
0.49573570157395325,0.49573570157395325
0.4447052341032017,0.4447052341032017
0.38174556644448215,0.38174556644448215
0.3300523656299546,0.3300523656299546
0.281672831534307,0.281672831534307
0.25383803109571523,0.25383803109571523
0.24190883090774734,0.24190883090774734
0.25383803109571523,0.25383803109571523
0.2359442308137634,0.2359442308137634
0.17762369656147586,0.17762369656147586
0.05965716136934884,0.05965716136934884
-0.05168204038501823,-0.05168204038501823
-0.14777837523253742,-0.14777837523253742
-0.20411070945349696,-0.20411070945349696
-0.24056104336117667,-0.24056104336117667
-0.24254924339250464,-0.24254924339250464
-0.24387471008005665,-0.24387471008005665
-0.28032504398773633,-0.28032504398773633
-0.4088953126802793,-0.4088953126802793
-0.6242836494074775,-0.6242836494074775
-0.8999807204182912,-0.8999807204182912
-1.1584467244909291,-1.1584467244909291
-1.3208163937160478,-1.3208163937160478
-1.2346610590251685,-1.2346610590251685
-0.7276700510365326,-0.7276700510365326
0.2916138316909469,0.2916138316909469
1.6442525863377517,1.6442525863377517
3.0393062749862203,3.0393062749862203
4.291872294722849,4.291872294722849
5.329049977732281,5.329049977732281
5.857248452721749,5.857248452721749
5.48147864680076,5.48147864680076
4.203066026656867,4.203066026656867
2.6575718689712473,2.6575718689712473
1.493812117300601,1.493812117300601
0.8264396401181745,0.8264396401181745
0.3665026995376343,0.3665026995376343
-0.01324350644601055,-0.01324350644601055
-0.2571293769555765,-0.2571293769555765
-0.3572021118657517,-0.3572021118657517
-0.442694713212855,-0.442694713212855
-0.5474065815294621,-0.5474065815294621
-0.6196445160010455,-0.6196445160010455
-0.6242836494074775,-0.6242836494074775
-0.6183190493134936,-0.6183190493134936
-0.6242836494074775,-0.6242836494074775
-0.6335619162203414,-0.6335619162203414
-0.6242836494074775,-0.6242836494074775
-0.6222954493761496,-0.6222954493761496
-0.6242836494074775,-0.6242836494074775
-0.6375383162829974,-0.6375383162829974
-0.6242836494074775,-0.6242836494074775
-0.6077153158130776,-0.6077153158130776
-0.5858451154684698,-0.5858451154684698
-0.5898215155311258,-0.5898215155311258
-0.5858451154684698,-0.5858451154684698
-0.5725904485929499,-0.5725904485929499
-0.5474065815294621,-0.5474065815294621
-0.5434301814668061,-0.5434301814668061
-0.5474065815294621,-0.5474065815294621
-0.5546966483109981,-0.5546966483109981
-0.5474065815294621,-0.5474065815294621
-0.5368028480290462,-0.5368028480290462
-0.5096307809342304,-0.5096307809342304
-0.48378418052696665,-0.48378418052696665
-0.4711922469952228,-0.4711922469952228
-0.4904115139647266,-0.4904115139647266
-0.5096307809342304,-0.5096307809342304
-0.5175835810595424,-0.5175835810595424
-0.5096307809342304,-0.5096307809342304
-0.5116189809655585,-0.5116189809655585
-0.5096307809342304,-0.5096307809342304
-0.5096307809342304,-0.5096307809342304
-0.5096307809342304,-0.5096307809342304
-0.5301755145912863,-0.5301755145912863
-0.5474065815294621,-0.5474065815294621
-0.557347581686102,-0.557347581686102
-0.5474065815294621,-0.5474065815294621
-0.5368028480290462,-0.5368028480290462
-0.5096307809342304,-0.5096307809342304
-0.47384318037032674,-0.47384318037032674
-0.43341644639999105,-0.43341644639999105
-0.41220897939915924,-0.41220897939915924
-0.3949779124609834,-0.3949779124609834
-0.3817232455854635,-0.3817232455854635
-0.3572021118657517,-0.3572021118657517
-0.320751777958072,-0.320751777958072
-0.24254924339250464,-0.24254924339250464
-0.13386097501324154,-0.13386097501324154
-0.01324350644601055,-0.01324350644601055
0.08550376177661263,0.08550376177661263
0.17762369656147586,0.17762369656147586
0.24986163103305928,0.24986163103305928
0.2916138316909469,0.2916138316909469
0.29028836500339494,0.29028836500339494
0.2916138316909469,0.2916138316909469
0.30950763197289877,0.30950763197289877
0.3300523656299546,0.3300523656299546
0.31547223206688274,0.31547223206688274
0.2916138316909469,0.2916138316909469
0.281672831534307,0.281672831534307
0.2916138316909469,0.2916138316909469
0.281672831534307,0.281672831534307
0.25383803109571523,0.25383803109571523
0.21142309709405158,0.21142309709405158
0.17762369656147586,0.17762369656147586
0.1371969625911402,0.1371969625911402
0.1007466286834605,0.1007466286834605
0.05965716136934884,0.05965716136934884
0.024532294149221135,0.024532294149221135
-0.01788263985244251,-0.01788263985244251
-0.05168204038501823,-0.05168204038501823
-0.08150504085493798,-0.08150504085493798
-0.08945784098024992,-0.08945784098024992
-0.09409697438668188,-0.09409697438668188
-0.08945784098024992,-0.08945784098024992
-0.09475970773045787,-0.09475970773045787
-0.08945784098024992,-0.08945784098024992
-0.08084230751116199,-0.08084230751116199
-0.05168204038501823,-0.05168204038501823
-0.0192081065399945,-0.0192081065399945
0.024532294149221135,0.024532294149221135
0.06230809474445282,0.06230809474445282
0.1007466286834605,0.1007466286834605
0.13322056252848424,0.13322056252848424
0.17762369656147586,0.17762369656147586
0.21738769718803555,0.21738769718803555
0.25383803109571523,0.25383803109571523
0.282335564878083,0.282335564878083
0.3300523656299546,0.3300523656299546
0.3704790996002903,0.3704790996002903
0.3684908995689623,0.3684908995689623
0.2975784317849309,0.2975784317849309
0.21539949715670756,0.21539949715670756
0.1603926296233,0.1603926296233
0.1391851626224682,0.1391851626224682
0.11598949559030838,0.11598949559030838
0.1007466286834605,0.1007466286834605
0.08484102843283664,0.08484102843283664
0.06297082808822882,0.06297082808822882
-0.0072789063520266,-0.0072789063520266
-0.08945784098024992,-0.08945784098024992
-0.1769386423586812,-0.1769386423586812
-0.24254924339250464,-0.24254924339250464
-0.3002070443010162,-0.3002070443010162
-0.31876357792674404,-0.31876357792674404
-0.31346171117653604,-0.31346171117653604
-0.31876357792674404,-0.31876357792674404
-0.3969661124923114,-0.3969661124923114
-0.5474065815294621,-0.5474065815294621
-0.7641203849442123,-0.7641203849442123
-1.0053553220786744,-1.0053553220786744
-1.2233945921809766,-1.2233945921809766
-1.3108753935594077,-1.3108753935594077
-1.1955597917423848,-1.1955597917423848
-0.8144881190711879,-0.8144881190711879
-0.12988457495058559,-0.12988457495058559
0.9026539746524138,0.9026539746524138
2.179741128108755,2.179741128108755
3.421040681001193,3.421040681001193
4.23222629378301,4.23222629378301
4.375376696038625,4.375376696038625
3.8644092879873333,3.8644092879873333
2.9630919404519807,2.9630919404519807
1.973631058194421,1.973631058194421
1.1312969782551319,1.1312969782551319
0.5096531017932491,0.5096531017932491
0.1007466286834605,0.1007466286834605
-0.16037030876428132,-0.16037030876428132
-0.31876357792674404,-0.31876357792674404
-0.4294400463373351,-0.4294400463373351
-0.5096307809342304,-0.5096307809342304
-0.567951315186518,-0.567951315186518
-0.5858451154684698,-0.5858451154684698
-0.5845196487809178,-0.5845196487809178
-0.5858451154684698,-0.5858451154684698
-0.6090407825006297,-0.6090407825006297
-0.6242836494074775,-0.6242836494074775
-0.6169935826259415,-0.6169935826259415
-0.5858451154684698,-0.5858451154684698
-0.5778923153431579,-0.5778923153431579
-0.5858451154684698,-0.5858451154684698
-0.6037389157504217,-0.6037389157504217
-0.5858451154684698,-0.5858451154684698
-0.563312181780086,-0.563312181780086
-0.5474065815294621,-0.5474065815294621
-0.55602211499855,-0.55602211499855
-0.5474065815294621,-0.5474065815294621
-0.5268618478724063,-0.5268618478724063
-0.5096307809342304,-0.5096307809342304
-0.5169208477157664,-0.5169208477157664
-0.5096307809342304,-0.5096307809342304
-0.4751686470578787,-0.4751686470578787
-0.43341644639999105,-0.43341644639999105
-0.436067379775095,-0.436067379775095
-0.4711922469952228,-0.4711922469952228
-0.5169208477157664,-0.5169208477157664
-0.5474065815294621,-0.5474065815294621
-0.5759041153118298,-0.5759041153118298
-0.5858451154684698,-0.5858451154684698
-0.5878333154997978,-0.5878333154997978
-0.5858451154684698,-0.5858451154684698
-0.5944606489375578,-0.5944606489375578
-0.5858451154684698,-0.5858451154684698
-0.565300381811414,-0.565300381811414
-0.5474065815294621,-0.5474065815294621
-0.564637648467638,-0.564637648467638
-0.5858451154684698,-0.5858451154684698
-0.5944606489375578,-0.5944606489375578
-0.5858451154684698,-0.5858451154684698
-0.5997625156877657,-0.5997625156877657
-0.6242836494074775,-0.6242836494074775
-0.6322364495327895,-0.6322364495327895
-0.5858451154684698,-0.5858451154684698
-0.5208972477784224,-0.5208972477784224
-0.4711922469952228,-0.4711922469952228
-0.45860031346347885,-0.45860031346347885
-0.43341644639999105,-0.43341644639999105
-0.3737704454601516,-0.3737704454601516
-0.28032504398773633,-0.28032504398773633
-0.199471576047065,-0.199471576047065
-0.1278963749192576,-0.1278963749192576
-0.05963484051033017,-0.05963484051033017
0.024532294149221135,0.024532294149221135
0.09411929524570056,0.09411929524570056
0.1391851626224682,0.1391851626224682
0.15575349621686804,0.15575349621686804
0.17762369656147586,0.17762369656147586
0.2001566302498597,0.2001566302498597
0.21539949715670756,0.21539949715670756
0.20081936359363567,0.20081936359363567
0.17762369656147586,0.17762369656147586
0.15310256284176407,0.15310256284176407
0.1391851626224682,0.1391851626224682
0.11797769562163636,0.11797769562163636
0.1007466286834605,0.1007466286834605
0.08020189502640468,0.08020189502640468
0.06297082808822882,0.06297082808822882
0.03712422768096503,0.03712422768096503
0.024532294149221135,0.024532294149221135
0.02188136077411716,0.02188136077411716
0.024532294149221135,0.024532294149221135
-0.0033025062893706327,-0.0033025062893706327
-0.05168204038501823,-0.05168204038501823
-0.10602617457464979,-0.10602617457464979
-0.1278963749192576,-0.1278963749192576
-0.13187277498191358,-0.13187277498191358
-0.1278963749192576,-0.1278963749192576
-0.13651190838834554,-0.13651190838834554
-0.1278963749192576,-0.1278963749192576
-0.10072430782444182,-0.10072430782444182
-0.05168204038501823,-0.05168204038501823
-0.011918039758458562,-0.011918039758458562
0.024532294149221135,0.024532294149221135
0.05700622799424487,0.05700622799424487
0.1007466286834605,0.1007466286834605
0.13852242927869218,0.13852242927869218
0.17762369656147586,0.17762369656147586
0.2107603637502756,0.2107603637502756
0.25383803109571523,0.25383803109571523
0.282998298221859,0.282998298221859
0.2916138316909469,0.2916138316909469
0.2624535645648032,0.2624535645648032
0.21539949715670756,0.21539949715670756
0.15575349621686804,0.15575349621686804
0.1007466286834605,0.1007466286834605
0.051041627900260914,0.051041627900260914
0.024532294149221135,0.024532294149221135
0.0059757605234932905,0.0059757605234932905
-0.01324350644601055,-0.01324350644601055
-0.0669249072918661,-0.0669249072918661
-0.1278963749192576,-0.1278963749192576
-0.19682064267196103,-0.19682064267196103
-0.24254924339250464,-0.24254924339250464
-0.2882778441130483,-0.2882778441130483
-0.31876357792674404,-0.31876357792674404
-0.3452729116777838,-0.3452729116777838
-0.3572021118657517,-0.3572021118657517
-0.3817232455854635,-0.3817232455854635
-0.43341644639999105,-0.43341644639999105
-0.561323981748758,-0.561323981748758
-0.7767123184759562,-0.7767123184759562
-1.0583739895807538,-1.0583739895807538
-1.3108753935594077,-1.3108753935594077
-1.4712568627531986,-1.4712568627531986
-1.4633040626278866,-1.4633040626278866
-1.1856187915857448,-1.1856187915857448
-0.5096307809342304,-0.5096307809342304
0.524895968700097,0.524895968700097
1.741674387872823,1.741674387872823
2.937908073388493,2.937908073388493
3.9552037560846447,3.9552037560846447
4.499307831324736,4.499307831324736
4.2607238275653785,4.2607238275653785
3.2580082784322983,3.2580082784322983
2.0094186587583245,2.0094186587583245
1.0418279768453726,1.0418279768453726
0.48248103469843334,0.48248103469843334
0.11930316230918835,0.11930316230918835
-0.1663349088582653,-0.1663349088582653
-0.3552139118344237,-0.3552139118344237
-0.43341644639999105,-0.43341644639999105
-0.4877605805896226,-0.4877605805896226
-0.5474065815294621,-0.5474065815294621
-0.5891587821873497,-0.5891587821873497
-0.5858451154684698,-0.5858451154684698
-0.5772295819993819,-0.5772295819993819
-0.5858451154684698,-0.5858451154684698
-0.6130171825632856,-0.6130171825632856
-0.6242836494074775,-0.6242836494074775
-0.6169935826259415,-0.6169935826259415
-0.5858451154684698,-0.5858451154684698
-0.565300381811414,-0.565300381811414
-0.5474065815294621,-0.5474065815294621
-0.5507202482483421,-0.5507202482483421
-0.5474065815294621,-0.5474065815294621
-0.5533711816234461,-0.5533711816234461
-0.5474065815294621,-0.5474065815294621
-0.5368028480290462,-0.5368028480290462
-0.5096307809342304,-0.5096307809342304
-0.4877605805896226,-0.4877605805896226
-0.4711922469952228,-0.4711922469952228
-0.4711922469952228,-0.4711922469952228
-0.4711922469952228,-0.4711922469952228
-0.4751686470578787,-0.4751686470578787
-0.4711922469952228,-0.4711922469952228
-0.47251771368277473,-0.47251771368277473
-0.4711922469952228,-0.4711922469952228
-0.48577238055829464,-0.48577238055829464
-0.5096307809342304,-0.5096307809342304
-0.5394537814041502,-0.5394537814041502
-0.5474065815294621,-0.5474065815294621
-0.5460811148419101,-0.5460811148419101
-0.5474065815294621,-0.5474065815294621
-0.5712649819053979,-0.5712649819053979
-0.5858451154684698,-0.5858451154684698
-0.5891587821873497,-0.5891587821873497
-0.5858451154684698,-0.5858451154684698
-0.6050643824379737,-0.6050643824379737
-0.6242836494074775,-0.6242836494074775
-0.6335619162203414,-0.6335619162203414
-0.6242836494074775,-0.6242836494074775
-0.6249463827512535,-0.6249463827512535
-0.6242836494074775,-0.6242836494074775
-0.6183190493134936,-0.6183190493134936
-0.5858451154684698,-0.5858451154684698
-0.5387910480603741,-0.5387910480603741
-0.4711922469952228,-0.4711922469952228
-0.40955804602405527,-0.40955804602405527
-0.3572021118657517,-0.3572021118657517
-0.3141244445203121,-0.3141244445203121
-0.24254924339250464,-0.24254924339250464
-0.14777837523253742,-0.14777837523253742
-0.05168204038501823,-0.05168204038501823
0.010614893929925252,0.010614893929925252
0.06297082808822882,0.06297082808822882
0.11731496227786037,0.11731496227786037
0.17762369656147586,0.17762369656147586
0.20810943037517163,0.20810943037517163
0.21539949715670756,0.21539949715670756
0.2094348970627236,0.2094348970627236
0.21539949715670756,0.21539949715670756
0.21738769718803555,0.21738769718803555
0.21539949715670756,0.21539949715670756
0.1975056968747557,0.1975056968747557
0.17762369656147586,0.17762369656147586
0.14183609599757216,0.14183609599757216
0.1007466286834605,0.1007466286834605
0.0530298279315889,0.0530298279315889
0.024532294149221135,0.024532294149221135
0.0033248271483893124,0.0033248271483893124
-0.01324350644601055,-0.01324350644601055
-0.040415573540826324,-0.040415573540826324
-0.05168204038501823,-0.05168204038501823
-0.053670240416346215,-0.053670240416346215
-0.05168204038501823,-0.05168204038501823
-0.07222677404207406,-0.07222677404207406
-0.08945784098024992,-0.08945784098024992
-0.09807337444933785,-0.09807337444933785
-0.08945784098024992,-0.08945784098024992
-0.09343424104290589,-0.09343424104290589
-0.08945784098024992,-0.08945784098024992
-0.06825037397941809,-0.06825037397941809
-0.01324350644601055,-0.01324350644601055
0.03447329430586105,0.03447329430586105
0.06297082808822882,0.06297082808822882
0.07026089486976476,0.07026089486976476
0.1007466286834605,0.1007466286834605
0.15376529618554008,0.15376529618554008
0.21539949715670756,0.21539949715670756
0.24522249762662732,0.24522249762662732
0.25383803109571523,0.25383803109571523
0.24919889768928327,0.24919889768928327
0.25383803109571523,0.25383803109571523
0.25184983106438724,0.25184983106438724
0.25383803109571523,0.25383803109571523
0.26311629790857916,0.26311629790857916
0.2916138316909469,0.2916138316909469
0.3081821652853468,0.3081821652853468
0.2916138316909469,0.2916138316909469
0.22401503062579547,0.22401503062579547
0.1391851626224682,0.1391851626224682
0.029834160899429092,0.029834160899429092
-0.08945784098024992,-0.08945784098024992
-0.2365846432985207,-0.2365846432985207
-0.3572021118657517,-0.3572021118657517
-0.4287773129935591,-0.4287773129935591
-0.43341644639999105,-0.43341644639999105
-0.42480091293090316,-0.42480091293090316
-0.43341644639999105,-0.43341644639999105
-0.48709784724584665,-0.48709784724584665
-0.5858451154684698,-0.5858451154684698
-0.7714104517257483,-0.7714104517257483
-1.043793856017682,-1.043793856017682
-1.3493139274984154,-1.3493139274984154
-1.5401811305059019,-1.5401811305059019
-1.5004171298793423,-1.5004171298793423
-1.1584467244909291,-1.1584467244909291
-0.49505064737115856,-0.49505064737115856
0.520919568637441,0.520919568637441
1.8152377890319582,1.8152377890319582
3.1539591434594674,3.1539591434594674
4.137455425623043,4.137455425623043
4.451591030572865,4.451591030572865
4.028104423900004,4.028104423900004
3.1155206095204595,3.1155206095204595
2.06641372632306,2.06641372632306
1.1697355121941397,1.1697355121941397
0.5195941019498891,0.5195941019498891
0.1007466286834605,0.1007466286834605
-0.16302124213938532,-0.16302124213938532
-0.31876357792674404,-0.31876357792674404
-0.41552264611803924,-0.41552264611803924
-0.4711922469952228,-0.4711922469952228
-0.5149326476844384,-0.5149326476844384
-0.5474065815294621,-0.5474065815294621
-0.5858451154684698,-0.5858451154684698
-0.6242836494074775,-0.6242836494074775
-0.6680240500966931,-0.6680240500966931
-0.7004979839417168,-0.7004979839417168
-0.7170663175361167,-0.7170663175361167
-0.7004979839417168,-0.7004979839417168
-0.6693495167842451,-0.6693495167842451
-0.6242836494074775,-0.6242836494074775
-0.6004252490315417,-0.6004252490315417
-0.5858451154684698,-0.5858451154684698
-0.5924724489062297,-0.5924724489062297
-0.5858451154684698,-0.5858451154684698
-0.5732531819367259,-0.5732531819367259
-0.5474065815294621,-0.5474065815294621
-0.5394537814041502,-0.5394537814041502
-0.5474065815294621,-0.5474065815294621
-0.5732531819367259,-0.5732531819367259
-0.5858451154684698,-0.5858451154684698
-0.5898215155311258,-0.5898215155311258
-0.5858451154684698,-0.5858451154684698
-0.5911469822186778,-0.5911469822186778
-0.5858451154684698,-0.5858451154684698
-0.571927715249174,-0.571927715249174
-0.5474065815294621,-0.5474065815294621
-0.5414419814354782,-0.5414419814354782
-0.5474065815294621,-0.5474065815294621
-0.568614048530294,-0.568614048530294
-0.5858451154684698,-0.5858451154684698
-0.6090407825006297,-0.6090407825006297
-0.6242836494074775,-0.6242836494074775
-0.6348873829078934,-0.6348873829078934
-0.6242836494074775,-0.6242836494074775
-0.6063898491255256,-0.6063898491255256
-0.5858451154684698,-0.5858451154684698
-0.5931351822500057,-0.5931351822500057
-0.6242836494074775,-0.6242836494074775
-0.6733259168469011,-0.6733259168469011
-0.7004979839417168,-0.7004979839417168
-0.6991725172541648,-0.6991725172541648
-0.6620594500027092,-0.6620594500027092
-0.6123544492195095,-0.6123544492195095
-0.5474065815294621,-0.5474065815294621
-0.4890860472771746,-0.4890860472771746
-0.43341644639999105,-0.43341644639999105
-0.38702511233567144,-0.38702511233567144
-0.31876357792674404,-0.31876357792674404
-0.22134177639167282,-0.22134177639167282
-0.08945784098024992,-0.08945784098024992
0.035798760993413045,0.035798760993413045
0.1391851626224682,0.1391851626224682
0.20479576365629165,0.20479576365629165
0.25383803109571523,0.25383803109571523
0.28034736484675504,0.28034736484675504
0.2916138316909469,0.2916138316909469
0.27703369812787504,0.27703369812787504
0.25383803109571523,0.25383803109571523
0.21672496384425954,0.21672496384425954
0.17762369656147586,0.17762369656147586
0.12990689580960427,0.12990689580960427
0.1007466286834605,0.1007466286834605
0.09080562852682059,0.09080562852682059
0.1007466286834605,0.1007466286834605
0.10339756205856449,0.10339756205856449
0.1007466286834605,0.1007466286834605
0.08285282840150865,0.08285282840150865
0.06297082808822882,0.06297082808822882
0.035136027649637046,0.035136027649637046
0.024532294149221135,0.024532294149221135
0.02188136077411716,0.02188136077411716
0.024532294149221135,0.024532294149221135
0.008626693898597269,0.008626693898597269
-0.01324350644601055,-0.01324350644601055
-0.05101930704124224,-0.05101930704124224
-0.08945784098024992,-0.08945784098024992
-0.12922184160680958,-0.12922184160680958
-0.1278963749192576,-0.1278963749192576
-0.08548144091759395,-0.08548144091759395
-0.01324350644601055,-0.01324350644601055
0.035798760993413045,0.035798760993413045
0.06297082808822882,0.06297082808822882
0.07291182824486873,0.07291182824486873
0.1007466286834605,0.1007466286834605
0.14514976271645214,0.14514976271645214
0.21539949715670756,0.21539949715670756
0.29227656503472293,0.29227656503472293
0.3684908995689623,0.3684908995689623
0.40891763353929794,0.40891763353929794
0.406266700164194,0.406266700164194
0.3459579658805785,0.3459579658805785
0.25383803109571523,0.25383803109571523
0.15641622956064405,0.15641622956064405
0.1007466286834605,0.1007466286834605
0.08550376177661263,0.08550376177661263
0.1007466286834605,0.1007466286834605
0.10538576208989246,0.10538576208989246
0.1007466286834605,0.1007466286834605
0.05568076130669288,0.05568076130669288
-0.01324350644601055,-0.01324350644601055
-0.11795537476261768,-0.11795537476261768
-0.20411070945349696,-0.20411070945349696
-0.2743604438937524,-0.2743604438937524
-0.31876357792674404,-0.31876357792674404
-0.36449217864728767,-0.36449217864728767
-0.3949779124609834,-0.3949779124609834
-0.43142824636866306,-0.43142824636866306
-0.5096307809342304,-0.5096307809342304
-0.6951961171915089,-0.6951961171915089
-0.9675795214834426,-0.9675795214834426
-1.2366492590564964,-1.2366492590564964
-1.3493139274984154,-1.3493139274984154
-1.1988734584612648,-1.1988734584612648
-0.7004979839417168,-0.7004979839417168
0.17762369656147586,0.17762369656147586
1.4368170497358654,1.4368170497358654
2.9312807399507332,2.9312807399507332
4.375376696038625,4.375376696038625
5.379417711859257,5.379417711859257
5.672345849808246,5.672345849808246
5.20180517572729,5.20180517572729
4.184509493031139,4.184509493031139
2.939233540076045,2.939233540076045
1.7801129218118306,1.7801129218118306
0.8807837743078061,0.8807837743078061
0.2916138316909469,0.2916138316909469
-0.062285773885434145,-0.062285773885434145
-0.28032504398773633,-0.28032504398773633
-0.45263571336949493,-0.45263571336949493
-0.5858451154684698,-0.5858451154684698
-0.672663183503125,-0.672663183503125
-0.7004979839417168,-0.7004979839417168
-0.7018234506292689,-0.7018234506292689
-0.7004979839417168,-0.7004979839417168
-0.7190545175674447,-0.7190545175674447
-0.7382737845369486,-0.7382737845369486
-0.7415874512558285,-0.7415874512558285
-0.7004979839417168,-0.7004979839417168
-0.6521184498460693,-0.6521184498460693
-0.6242836494074775,-0.6242836494074775
-0.6574203165962772,-0.6574203165962772
-0.7004979839417168,-0.7004979839417168
-0.7362855845056205,-0.7362855845056205
-0.7382737845369486,-0.7382737845369486
-0.7415874512558285,-0.7415874512558285
-0.7382737845369486,-0.7382737845369486
-0.7309837177554126,-0.7309837177554126
-0.7004979839417168,-0.7004979839417168
-0.6627221833464851,-0.6627221833464851
-0.6242836494074775,-0.6242836494074775
-0.6116917158757336,-0.6116917158757336
-0.6242836494074775,-0.6242836494074775
-0.6541066498773972,-0.6541066498773972
-0.6620594500027092,-0.6620594500027092
-0.6494675164709652,-0.6494675164709652
-0.6242836494074775,-0.6242836494074775
-0.6090407825006297,-0.6090407825006297
-0.5858451154684698,-0.5858451154684698
-0.56264944843631,-0.56264944843631
-0.5474065815294621,-0.5474065815294621
-0.564637648467638,-0.564637648467638
-0.5858451154684698,-0.5858451154684698
-0.5964488489688857,-0.5964488489688857
-0.5858451154684698,-0.5858451154684698
-0.5838569154371418,-0.5838569154371418
-0.5858451154684698,-0.5858451154684698
-0.5918097155624538,-0.5918097155624538
-0.5858451154684698,-0.5858451154684698
-0.5865078488122458,-0.5865078488122458
-0.5858451154684698,-0.5858451154684698
-0.5825314487495898,-0.5825314487495898
-0.5474065815294621,-0.5474065815294621
-0.49571338071493454,-0.49571338071493454
-0.43341644639999105,-0.43341644639999105
-0.3817232455854635,-0.3817232455854635
-0.31876357792674404,-0.31876357792674404
-0.2372473766422967,-0.2372473766422967
-0.1278963749192576,-0.1278963749192576
-0.015894439821114527,-0.015894439821114527
0.1007466286834605,0.1007466286834605
0.21539949715670756,0.21539949715670756
0.3300523656299546,0.3300523656299546
0.40030210007021,0.40030210007021
0.406266700164194,0.406266700164194
0.34993436594323446,0.34993436594323446
0.2916138316909469,0.2916138316909469
0.2591398978459232,0.2591398978459232
0.25383803109571523,0.25383803109571523
0.23726969750131538,0.23726969750131538
0.21539949715670756,0.21539949715670756
0.19021563009321976,0.19021563009321976
0.17762369656147586,0.17762369656147586
0.15774169624819603,0.15774169624819603
0.1391851626224682,0.1391851626224682
0.11598949559030838,0.11598949559030838
0.1007466286834605,0.1007466286834605
0.07953916168262869,0.07953916168262869
0.06297082808822882,0.06297082808822882
0.041100627743621,0.041100627743621
0.024532294149221135,0.024532294149221135
0.0013366271170613287,0.0013366271170613287
-0.01324350644601055,-0.01324350644601055
-0.03378824010306638,-0.03378824010306638
-0.05168204038501823,-0.05168204038501823
-0.078191374136058,-0.078191374136058
-0.08945784098024992,-0.08945784098024992
-0.09542244107423387,-0.09542244107423387
-0.08945784098024992,-0.08945784098024992
-0.08415597423004197,-0.08415597423004197
-0.05168204038501823,-0.05168204038501823
-0.0006515729142666548,-0.0006515729142666548
0.06297082808822882,0.06297082808822882
0.11532676224653239,0.11532676224653239
0.17762369656147586,0.17762369656147586
0.24058336422019536,0.24058336422019536
0.2916138316909469,0.2916138316909469
0.29956663181625887,0.29956663181625887
0.2916138316909469,0.2916138316909469
0.284986498253187,0.284986498253187
0.2916138316909469,0.2916138316909469
0.28034736484675504,0.28034736484675504
0.25383803109571523,0.25383803109571523
0.21208583043782758,0.21208583043782758
0.17762369656147586,0.17762369656147586
0.1484634294353321,0.1484634294353321
0.1391851626224682,0.1391851626224682
0.1252677624031723,0.1252677624031723
0.1007466286834605,0.1007466286834605
0.043751561118724976,0.043751561118724976
-0.01324350644601055,-0.01324350644601055
-0.08746964094892194,-0.08746964094892194
-0.1663349088582653,-0.1663349088582653
-0.26243124370578447,-0.26243124370578447
-0.31876357792674404,-0.31876357792674404
-0.3306927781147119,-0.3306927781147119
-0.31876357792674404,-0.31876357792674404
-0.35190024511554374,-0.35190024511554374
-0.43341644639999105,-0.43341644639999105
-0.5659631151551899,-0.5659631151551899
-0.7382737845369486,-0.7382737845369486
-0.9549875879516988,-0.9549875879516988
-1.1584467244909291,-1.1584467244909291
-1.287016993183472,-1.287016993183472
-1.2346610590251685,-1.2346610590251685
-0.8734713866672514,-0.8734713866672514
-0.08945784098024992,-0.08945784098024992
1.0298987766574048,1.0298987766574048
2.2765001963000504,2.2765001963000504
3.4581537482526485,3.4581537482526485
4.451591030572865,4.451591030572865
4.9585820385615005,4.9585820385615005
4.642458233580351,4.642458233580351
3.53237988275556,3.53237988275556
2.199623128422035,2.199623128422035
1.1935939125700754,1.1935939125700754
0.5971339031716804,0.5971339031716804
0.17165909646749192,0.17165909646749192
-0.1663349088582653,-0.1663349088582653
-0.36184124527218364,-0.36184124527218364
-0.43341644639999105,-0.43341644639999105
-0.5036661808402465,-0.5036661808402465
-0.5858451154684698,-0.5858451154684698
-0.6282600494701335,-0.6282600494701335
-0.6242836494074775,-0.6242836494074775
-0.6368755829392214,-0.6368755829392214
-0.6620594500027092,-0.6620594500027092
-0.672663183503125,-0.672663183503125
-0.6620594500027092,-0.6620594500027092
-0.6666985834091411,-0.6666985834091411
-0.6620594500027092,-0.6620594500027092
-0.6494675164709652,-0.6494675164709652
-0.6242836494074775,-0.6242836494074775
-0.6275973161263575,-0.6275973161263575
-0.6242836494074775,-0.6242836494074775
-0.6123544492195095,-0.6123544492195095
-0.5858451154684698,-0.5858451154684698
-0.5818687154058139,-0.5818687154058139
-0.5858451154684698,-0.5858451154684698
-0.5924724489062297,-0.5924724489062297
-0.5858451154684698,-0.5858451154684698
-0.5858451154684698,-0.5858451154684698
-0.5858451154684698,-0.5858451154684698
-0.5904842488749018,-0.5904842488749018
-0.5858451154684698,-0.5858451154684698
-0.5865078488122458,-0.5865078488122458
-0.5858451154684698,-0.5858451154684698
-0.5904842488749018,-0.5904842488749018
-0.5858451154684698,-0.5858451154684698
-0.5858451154684698,-0.5858451154684698
-0.5858451154684698,-0.5858451154684698
-0.5924724489062297,-0.5924724489062297
-0.5858451154684698,-0.5858451154684698
-0.5825314487495898,-0.5825314487495898
-0.5858451154684698,-0.5858451154684698
-0.5997625156877657,-0.5997625156877657
-0.5858451154684698,-0.5858451154684698
-0.5586730483736541,-0.5586730483736541
-0.5474065815294621,-0.5474065815294621
-0.5851823821246939,-0.5851823821246939
-0.6242836494074775,-0.6242836494074775
-0.6382010496267734,-0.6382010496267734
-0.6242836494074775,-0.6242836494074775
-0.6143426492508376,-0.6143426492508376
-0.5858451154684698,-0.5858451154684698
-0.5361401146852702,-0.5361401146852702
-0.4711922469952228,-0.4711922469952228
-0.4208245128682472,-0.4208245128682472
-0.3572021118657517,-0.3572021118657517
-0.2697213104873204,-0.2697213104873204
-0.1663349088582653,-0.1663349088582653
-0.08548144091759395,-0.08548144091759395
-0.01324350644601055,-0.01324350644601055
0.05965716136934884,0.05965716136934884
0.1391851626224682,0.1391851626224682
0.18955289674944378,0.18955289674944378
0.21539949715670756,0.21539949715670756
0.21805043053181153,0.21805043053181153
0.21539949715670756,0.21539949715670756
0.1975056968747557,0.1975056968747557
0.17762369656147586,0.17762369656147586
0.15310256284176407,0.15310256284176407
0.1391851626224682,0.1391851626224682
0.11996589565296435,0.11996589565296435
0.1007466286834605,0.1007466286834605
0.07622549496374871,0.07622549496374871
0.06297082808822882,0.06297082808822882
0.04573976115005296,0.04573976115005296
0.024532294149221135,0.024532294149221135
-0.015231706477338534,-0.015231706477338534
-0.05168204038501823,-0.05168204038501823
-0.08150504085493798,-0.08150504085493798
-0.08945784098024992,-0.08945784098024992
-0.09475970773045787,-0.09475970773045787
-0.08945784098024992,-0.08945784098024992
-0.0914460410115779,-0.0914460410115779
-0.08945784098024992,-0.08945784098024992
-0.09608517441800986,-0.09608517441800986
-0.08945784098024992,-0.08945784098024992
-0.07686590744850602,-0.07686590744850602
-0.05168204038501823,-0.05168204038501823
-0.04439197360348229,-0.04439197360348229
-0.05168204038501823,-0.05168204038501823
-0.0669249072918661,-0.0669249072918661
-0.05168204038501823,-0.05168204038501823
-0.01721990650866652,-0.01721990650866652
0.024532294149221135,0.024532294149221135
0.05435529461914089,0.05435529461914089
0.1007466286834605,0.1007466286834605
0.15906716293574802,0.15906716293574802
0.21539949715670756,0.21539949715670756
0.23925789753264337,0.23925789753264337
0.25383803109571523,0.25383803109571523
0.26112809787725116,0.26112809787725116
0.25383803109571523,0.25383803109571523
0.20347029696873967,0.20347029696873967
0.1391851626224682,0.1391851626224682
0.08616649512038863,0.08616649512038863
0.06297082808822882,0.06297082808822882
0.04176336108739699,0.04176336108739699
0.024532294149221135,0.024532294149221135
-0.009267106383354583,-0.009267106383354583
-0.05168204038501823,-0.05168204038501823
-0.12922184160680958,-0.12922184160680958
-0.20411070945349696,-0.20411070945349696
-0.27634864392508035,-0.27634864392508035
-0.31876357792674404,-0.31876357792674404
-0.34792384505288776,-0.34792384505288776
-0.3572021118657517,-0.3572021118657517
-0.3777468455228075,-0.3777468455228075
-0.43341644639999105,-0.43341644639999105
-0.567951315186518,-0.567951315186518
-0.7767123184759562,-0.7767123184759562
-1.03584105589237,-1.03584105589237
-1.2724368596204,-1.2724368596204
-1.4341437955017429,-1.4341437955017429
-1.4255282620326548,-1.4255282620326548
-1.1292864573647854,-1.1292864573647854
-0.43341644639999105,-0.43341644639999105
0.6057494366407683,0.6057494366407683
1.8185514557508382,1.8185514557508382
3.0147851412665085,3.0147851412665085
4.031418090618884,4.031418090618884
4.559616565608351,4.559616565608351
4.298499628160609,4.298499628160609
3.288494012245994,3.288494012245994
2.0471944593535563,2.0471944593535563
1.0862311108783644,1.0862311108783644
0.520919568637441,0.520919568637441
0.1517770961542121,0.1517770961542121
-0.1278963749192576,-0.1278963749192576
-0.3081598444263281,-0.3081598444263281
-0.3949779124609834,-0.3949779124609834
-0.47251771368277473,-0.47251771368277473
-0.5474065815294621,-0.5474065815294621
-0.5878333154997978,-0.5878333154997978
-0.5858451154684698,-0.5858451154684698
-0.5971115823126617,-0.5971115823126617
-0.6242836494074775,-0.6242836494074775
-0.6415147163456534,-0.6415147163456534
-0.6242836494074775,-0.6242836494074775
-0.6044016490941977,-0.6044016490941977
-0.5858451154684698,-0.5858451154684698
-0.5778923153431579,-0.5778923153431579
-0.5474065815294621,-0.5474065815294621
-0.5228854478097503,-0.5228854478097503
-0.5096307809342304,-0.5096307809342304
-0.5434301814668061,-0.5434301814668061
-0.5858451154684698,-0.5858451154684698
-0.6090407825006297,-0.6090407825006297
-0.5858451154684698,-0.5858451154684698
-0.5580103150298781,-0.5580103150298781
-0.5474065815294621,-0.5474065815294621
-0.5580103150298781,-0.5580103150298781
-0.5474065815294621,-0.5474065815294621
-0.5242109144973023,-0.5242109144973023
-0.5096307809342304,-0.5096307809342304
-0.5301755145912863,-0.5301755145912863
-0.5474065815294621,-0.5474065815294621
-0.5401165147479262,-0.5401165147479262
-0.5096307809342304,-0.5096307809342304
-0.5010152474651425,-0.5010152474651425
-0.5096307809342304,-0.5096307809342304
-0.5202345144346463,-0.5202345144346463
-0.5096307809342304,-0.5096307809342304
-0.5043289141840225,-0.5043289141840225
-0.5096307809342304,-0.5096307809342304
-0.5334891813101662,-0.5334891813101662
-0.5474065815294621,-0.5474065815294621
-0.5546966483109981,-0.5546966483109981
-0.5474065815294621,-0.5474065815294621
-0.5480693148732381,-0.5480693148732381
-0.5474065815294621,-0.5474065815294621
-0.5533711816234461,-0.5533711816234461
-0.5474065815294621,-0.5474065815294621
-0.5374655813728222,-0.5374655813728222
-0.5096307809342304,-0.5096307809342304
-0.4771568470892067,-0.4771568470892067
-0.43341644639999105,-0.43341644639999105
-0.38636237899189546,-0.38636237899189546
-0.31876357792674404,-0.31876357792674404
-0.24520017676760864,-0.24520017676760864
-0.1663349088582653,-0.1663349088582653
-0.09542244107423387,-0.09542244107423387
-0.01324350644601055,-0.01324350644601055
0.0662844948071088,0.0662844948071088
0.1391851626224682,0.1391851626224682
0.19220383012454775,0.19220383012454775
0.25383803109571523,0.25383803109571523
0.3088448986291228,0.3088448986291228
0.3300523656299546,0.3300523656299546
0.28432376490941097,0.28432376490941097
0.21539949715670756,0.21539949715670756
0.161055362967076,0.161055362967076
0.1391851626224682,0.1391851626224682
0.11864042896541235,0.11864042896541235
0.1007466286834605,0.1007466286834605
0.07953916168262869,0.07953916168262869
0.06297082808822882,0.06297082808822882
0.03712422768096503,0.03712422768096503
0.024532294149221135,0.024532294149221135
0.021218627430341162,0.021218627430341162
0.024532294149221135,0.024532294149221135
0.00730122721104528,0.00730122721104528
-0.01324350644601055,-0.01324350644601055
-0.036439173478170356,-0.036439173478170356
-0.05168204038501823,-0.05168204038501823
-0.07620317410473003,-0.07620317410473003
-0.08945784098024992,-0.08945784098024992
-0.09674790776178586,-0.09674790776178586
-0.08945784098024992,-0.08945784098024992
-0.0921087743553539,-0.0921087743553539
-0.08945784098024992,-0.08945784098024992
-0.08216777419871397,-0.08216777419871397
-0.05168204038501823,-0.05168204038501823
-0.016557173164890523,-0.016557173164890523
0.024532294149221135,0.024532294149221135
0.05899442802557285,0.05899442802557285
0.1007466286834605,0.1007466286834605
0.1378596959349162,0.1378596959349162
0.17762369656147586,0.17762369656147586
0.2100976304064996,0.2100976304064996
0.25383803109571523,0.25383803109571523
0.284986498253187,0.284986498253187
0.2916138316909469,0.2916138316909469
0.2578144311583712,0.2578144311583712
0.21539949715670756,0.21539949715670756
0.1743100298425959,0.1743100298425959
0.1391851626224682,0.1391851626224682
0.09478202858947656,0.09478202858947656
0.06297082808822882,0.06297082808822882
0.040437894399845006,0.040437894399845006
0.024532294149221135,0.024532294149221135
-0.015231706477338534,-0.015231706477338534
-0.05168204038501823,-0.05168204038501823
-0.0927715076991299,-0.0927715076991299
-0.1278963749192576,-0.1278963749192576
-0.1882051092028731,-0.1882051092028731
-0.24254924339250464,-0.24254924339250464
-0.28761511076927226,-0.28761511076927226
-0.31876357792674404,-0.31876357792674404
-0.3678058453661676,-0.3678058453661676
-0.43341644639999105,-0.43341644639999105
-0.5493947815607901,-0.5493947815607901
-0.7382737845369486,-0.7382737845369486
-0.9974025219533624,-0.9974025219533624
-1.2346610590251685,-1.2346610590251685
-1.3884151947811991,-1.3884151947811991
-1.3870897280936472,-1.3870897280936472
-1.1206709238956973,-1.1206709238956973
-0.43341644639999105,-0.43341644639999105
0.641537037204672,0.641537037204672
1.8947657902850776,1.8947657902850776
3.0876858090818677,3.0876858090818677
4.069856624557891,4.069856624557891
4.572208499140095,4.572208499140095
4.298499628160609,4.298499628160609
3.2686120119327144,3.2686120119327144
2.0094186587583245,2.0094186587583245
1.0550826437208927,1.0550826437208927
0.520919568637441,0.520919568637441
0.17828642990525187,0.17828642990525187
-0.08945784098024992,-0.08945784098024992
-0.2577921102993525,-0.2577921102993525
-0.31876357792674404,-0.31876357792674404
-0.3678058453661676,-0.3678058453661676
-0.43341644639999105,-0.43341644639999105
-0.4884233139333986,-0.4884233139333986
-0.5096307809342304,-0.5096307809342304
-0.5295127812475102,-0.5295127812475102
-0.5474065815294621,-0.5474065815294621
-0.557347581686102,-0.557347581686102
-0.5474065815294621,-0.5474065815294621
-0.5474065815294621,-0.5474065815294621
-0.5474065815294621,-0.5474065815294621
-0.557347581686102,-0.557347581686102
-0.5474065815294621,-0.5474065815294621
-0.5374655813728222,-0.5374655813728222
-0.5096307809342304,-0.5096307809342304
-0.4897487806209506,-0.4897487806209506
-0.4711922469952228,-0.4711922469952228
-0.46986678030767076,-0.46986678030767076
-0.4711922469952228,-0.4711922469952228
-0.4778195804329827,-0.4778195804329827
-0.4711922469952228,-0.4711922469952228
-0.4592630468072549,-0.4592630468072549
-0.43341644639999105,-0.43341644639999105
-0.4042561792738473,-0.4042561792738473
-0.3572021118657517,-0.3572021118657517
-0.30086977764479217,-0.30086977764479217
-0.24254924339250464,-0.24254924339250464
-0.22001630970412084,-0.22001630970412084
-0.24254924339250464,-0.24254924339250464
-0.30352071101989614,-0.30352071101989614
-0.3572021118657517,-0.3572021118657517
-0.39829157917986335,-0.39829157917986335
-0.43341644639999105,-0.43341644639999105
-0.4904115139647266,-0.4904115139647266
-0.5474065815294621,-0.5474065815294621
-0.5971115823126617,-0.5971115823126617
-0.6242836494074775,-0.6242836494074775
-0.6494675164709652,-0.6494675164709652
-0.6620594500027092,-0.6620594500027092
-0.6700122501280211,-0.6700122501280211
-0.6620594500027092,-0.6620594500027092
-0.6527811831898452,-0.6527811831898452
-0.6242836494074775,-0.6242836494074775
-0.5891587821873497,-0.5891587821873497
-0.5474065815294621,-0.5474065815294621
-0.5175835810595424,-0.5175835810595424
-0.4711922469952228,-0.4711922469952228
-0.4062443793051753,-0.4062443793051753
-0.31876357792674404,-0.31876357792674404
-0.24056104336117667,-0.24056104336117667
-0.1663349088582653,-0.1663349088582653
-0.09608517441800986,-0.09608517441800986
-0.01324350644601055,-0.01324350644601055
0.0649590281195568,0.0649590281195568
0.1391851626224682,0.1391851626224682
0.18690196337433979,0.18690196337433979
0.21539949715670756,0.21539949715670756
0.21805043053181153,0.21805043053181153
0.21539949715670756,0.21539949715670756
0.2087721637189476,0.2087721637189476
0.21539949715670756,0.21539949715670756
0.22799143068845146,0.22799143068845146
0.25383803109571523,0.25383803109571523
0.2657672312836831,0.2657672312836831
0.25383803109571523,0.25383803109571523
0.20081936359363567,0.20081936359363567
0.1391851626224682,0.1391851626224682
0.08616649512038863,0.08616649512038863
0.06297082808822882,0.06297082808822882
0.043751561118724976,0.043751561118724976
0.024532294149221135,0.024532294149221135
-0.0033025062893706327,-0.0033025062893706327
-0.01324350644601055,-0.01324350644601055
-0.015894439821114527,-0.015894439821114527
-0.01324350644601055,-0.01324350644601055
-0.032462773415514394,-0.032462773415514394
-0.05168204038501823,-0.05168204038501823
-0.06493670726053813,-0.06493670726053813
-0.05168204038501823,-0.05168204038501823
-0.03445097344684237,-0.03445097344684237
-0.01324350644601055,-0.01324350644601055
-0.0006515729142666548,-0.0006515729142666548
0.024532294149221135,0.024532294149221135
0.05568076130669288,0.05568076130669288
0.1007466286834605,0.1007466286834605
0.1391851626224682,0.1391851626224682
0.17762369656147586,0.17762369656147586
0.2100976304064996,0.2100976304064996
0.25383803109571523,0.25383803109571523
0.282335564878083,0.282335564878083
0.2916138316909469,0.2916138316909469
0.281010098190531,0.281010098190531
0.2916138316909469,0.2916138316909469
0.31746043209821073,0.31746043209821073
0.3300523656299546,0.3300523656299546
0.28631196494073896,0.28631196494073896
0.21539949715670756,0.21539949715670756
0.15575349621686804,0.15575349621686804
0.1391851626224682,0.1391851626224682
0.13653422924736422,0.13653422924736422
0.1391851626224682,0.1391851626224682
0.11002489549632442,0.11002489549632442
0.06297082808822882,0.06297082808822882
-0.018545373196218507,-0.018545373196218507
-0.08945784098024992,-0.08945784098024992
-0.15838210873295336,-0.15838210873295336
-0.20411070945349696,-0.20411070945349696
-0.2471883767989366,-0.2471883767989366
-0.28032504398773633,-0.28032504398773633
-0.33864557824002384,-0.33864557824002384
-0.43341644639999105,-0.43341644639999105
-0.5851823821246939,-0.5851823821246939
-0.7767123184759562,-0.7767123184759562
-1.0080062554537783,-1.0080062554537783
-1.2346610590251685,-1.2346610590251685
-1.3844387947185433,-1.3844387947185433
-1.2724368596204,-1.2724368596204
-0.689231517097525,-0.689231517097525
0.4447052341032017,0.4447052341032017
1.8709073899091417,1.8709073899091417
3.2301734779937066,3.2301734779937066
4.362122029163105,4.362122029163105
5.290611443793273,5.290611443793273
5.762477584561782,5.762477584561782
5.329049977732281,5.329049977732281
3.9598428894910764,3.9598428894910764
2.35271453083429,2.35271453083429
1.2174523129460113,1.2174523129460113
0.6355724371106881,0.6355724371106881
0.2465479643141793,0.2465479643141793
-0.08945784098024992,-0.08945784098024992
-0.29092877748815227,-0.29092877748815227
-0.3572021118657517,-0.3572021118657517
-0.436067379775095,-0.436067379775095
-0.5474065815294621,-0.5474065815294621
-0.6163308492821655,-0.6163308492821655
-0.6242836494074775,-0.6242836494074775
-0.6501302498147413,-0.6501302498147413
-0.7004979839417168,-0.7004979839417168
-0.7369483178493965,-0.7369483178493965
-0.7382737845369486,-0.7382737845369486
-0.7449011179747085,-0.7449011179747085
-0.7382737845369486,-0.7382737845369486
-0.7183917842236687,-0.7183917842236687
-0.6620594500027092,-0.6620594500027092
-0.6083780491568537,-0.6083780491568537
-0.5474065815294621,-0.5474065815294621
-0.5149326476844384,-0.5149326476844384
-0.5096307809342304,-0.5096307809342304
-0.5454183814981342,-0.5454183814981342
-0.5858451154684698,-0.5858451154684698
-0.6176563159697176,-0.6176563159697176
-0.6242836494074775,-0.6242836494074775
-0.6176563159697176,-0.6176563159697176
-0.5858451154684698,-0.5858451154684698
-0.5440929148105822,-0.5440929148105822
-0.5096307809342304,-0.5096307809342304
-0.5162581143719904,-0.5162581143719904
-0.5474065815294621,-0.5474065815294621
-0.5825314487495898,-0.5825314487495898
-0.5858451154684698,-0.5858451154684698
-0.5706022485616219,-0.5706022485616219
-0.5474065815294621,-0.5474065815294621
-0.5440929148105822,-0.5440929148105822
-0.5474065815294621,-0.5474065815294621
-0.5540339149672221,-0.5540339149672221
-0.5474065815294621,-0.5474065815294621
-0.555359381654774,-0.555359381654774
-0.5858451154684698,-0.5858451154684698
-0.6488047831271893,-0.6488047831271893
-0.7004979839417168,-0.7004979839417168
-0.7223681842863247,-0.7223681842863247
-0.7004979839417168,-0.7004979839417168
-0.6666985834091411,-0.6666985834091411
-0.6242836494074775,-0.6242836494074775
-0.5792177820307098,-0.5792177820307098
-0.5096307809342304,-0.5096307809342304
-0.42347544624335115,-0.42347544624335115
-0.31876357792674404,-0.31876357792674404
-0.22067904304789684,-0.22067904304789684
-0.1278963749192576,-0.1278963749192576
-0.05101930704124224,-0.05101930704124224
0.024532294149221135,0.024532294149221135
0.08550376177661263,0.08550376177661263
0.1391851626224682,0.1391851626224682
0.1862392300305638,0.1862392300305638
0.25383803109571523,0.25383803109571523
0.3220995655046427,0.3220995655046427
0.3684908995689623,0.3684908995689623
0.36053809944365034,0.36053809944365034
0.3300523656299546,0.3300523656299546
0.3008920985038108,0.3008920985038108
0.2916138316909469,0.2916138316909469
0.2757082314403231,0.2757082314403231
0.25383803109571523,0.25383803109571523
0.22534049731334746,0.22534049731334746
0.21539949715670756,0.21539949715670756
0.21208583043782758,0.21208583043782758
0.21539949715670756,0.21539949715670756
0.20148209693741168,0.20148209693741168
0.17762369656147586,0.17762369656147586
0.1358714959035882,0.1358714959035882
0.1007466286834605,0.1007466286834605
0.07092362821354076,0.07092362821354076
0.06297082808822882,0.06297082808822882
0.05833169468179686,0.05833169468179686
0.06297082808822882,0.06297082808822882
0.05899442802557285,0.05899442802557285
0.06297082808822882,0.06297082808822882
0.05965716136934884,0.05965716136934884
0.06297082808822882,0.06297082808822882
0.06760996149466078,0.06760996149466078
0.1007466286834605,0.1007466286834605
0.14249882934134817,0.14249882934134817
0.17762369656147586,0.17762369656147586
0.17894916324902785,0.17894916324902785
0.17762369656147586,0.17762369656147586
0.18425102999923582,0.18425102999923582
0.21539949715670756,0.21539949715670756
0.2478734310017313,0.2478734310017313
0.2916138316909469,0.2916138316909469
0.3433070325054745,0.3433070325054745
0.406266700164194,0.406266700164194
0.44337976741564966,0.44337976741564966
0.4447052341032017,0.4447052341032017
0.407592166851746,0.407592166851746
0.3684908995689623,0.3684908995689623
0.3287268989424026,0.3287268989424026
0.2916138316909469,0.2916138316909469
0.2458852309704033,0.2458852309704033
0.21539949715670756,0.21539949715670756
0.19352929681209974,0.19352929681209974
0.17762369656147586,0.17762369656147586
0.12593049574694828,0.12593049574694828
0.06297082808822882,0.06297082808822882
-0.0192081065399945,-0.0192081065399945
-0.08945784098024992,-0.08945784098024992
-0.1623585087956093,-0.1623585087956093
-0.20411070945349696,-0.20411070945349696
-0.21736537632901687,-0.21736537632901687
-0.20411070945349696,-0.20411070945349696
-0.2253181764543288,-0.2253181764543288
-0.31876357792674404,-0.31876357792674404
-0.5155953810282143,-0.5155953810282143
-0.7767123184759562,-0.7767123184759562
-1.048432989424114,-1.048432989424114
-1.2346610590251685,-1.2346610590251685
-1.2538803259946723,-1.2538803259946723
-1.0053553220786744,-1.0053553220786744
-0.4294400463373351,-0.4294400463373351
0.520919568637441,0.520919568637441
1.7960185220624545,1.7960185220624545
3.2301734779937066,3.2301734779937066
4.4694848308548165,4.4694848308548165
5.138182774724795,5.138182774724795
5.026843572970428,5.026843572970428
4.2607238275653785,4.2607238275653785
3.155284610147019,3.155284610147019
2.0471944593535563,2.0471944593535563
1.127983311536252,1.127983311536252
0.48248103469843334,0.48248103469843334
0.07556276161997272,0.07556276161997272
-0.1663349088582653,-0.1663349088582653
-0.3293673114271599,-0.3293673114271599
-0.43341644639999105,-0.43341644639999105
-0.5010152474651425,-0.5010152474651425
-0.5474065815294621,-0.5474065815294621
-0.5964488489688857,-0.5964488489688857
-0.6242836494074775,-0.6242836494074775
-0.6302482495014614,-0.6302482495014614
-0.6242836494074775,-0.6242836494074775
-0.6302482495014614,-0.6302482495014614
-0.6242836494074775,-0.6242836494074775
-0.6083780491568537,-0.6083780491568537
-0.5858451154684698,-0.5858451154684698
-0.5924724489062297,-0.5924724489062297
-0.5858451154684698,-0.5858451154684698
-0.561323981748758,-0.561323981748758
-0.5096307809342304,-0.5096307809342304
-0.4811332471518627,-0.4811332471518627
-0.4711922469952228,-0.4711922469952228
-0.4771568470892067,-0.4771568470892067
-0.4711922469952228,-0.4711922469952228
-0.4711922469952228,-0.4711922469952228
-0.4711922469952228,-0.4711922469952228
-0.4771568470892067,-0.4771568470892067
-0.4711922469952228,-0.4711922469952228
-0.4692040469638948,-0.4692040469638948
-0.4711922469952228,-0.4711922469952228
-0.48179598049563865,-0.48179598049563865
-0.4711922469952228,-0.4711922469952228
-0.44998477999439096,-0.44998477999439096
-0.43341644639999105,-0.43341644639999105
-0.4493220466506149,-0.4493220466506149
-0.4711922469952228,-0.4711922469952228
-0.4824587138394147,-0.4824587138394147
-0.4711922469952228,-0.4711922469952228
-0.4692040469638948,-0.4692040469638948
-0.4711922469952228,-0.4711922469952228
-0.4784823137767587,-0.4784823137767587
-0.4711922469952228,-0.4711922469952228
-0.46986678030767076,-0.46986678030767076
-0.4711922469952228,-0.4711922469952228
-0.4904115139647266,-0.4904115139647266
-0.5096307809342304,-0.5096307809342304
-0.5248736478410783,-0.5248736478410783
-0.5096307809342304,-0.5096307809342304
-0.4784823137767587,-0.4784823137767587
-0.43341644639999105,-0.43341644639999105
-0.3876878456794475,-0.3876878456794475
-0.31876357792674404,-0.31876357792674404
-0.24188651004872866,-0.24188651004872866
-0.1663349088582653,-0.1663349088582653
-0.10204977451199382,-0.10204977451199382
-0.01324350644601055,-0.01324350644601055
0.08881742849549261,0.08881742849549261
0.17762369656147586,0.17762369656147586
0.21738769718803555,0.21738769718803555
0.25383803109571523,0.25383803109571523
0.3181231654419867,0.3181231654419867
0.406266700164194,0.406266700164194
0.4539835009160656,0.4539835009160656
0.4447052341032017,0.4447052341032017
0.38903563322601814,0.38903563322601814
0.3300523656299546,0.3300523656299546
0.26709269797123514,0.26709269797123514
0.21539949715670756,0.21539949715670756
0.17828642990525187,0.17828642990525187
0.17762369656147586,0.17762369656147586
0.18425102999923582,0.18425102999923582
0.17762369656147586,0.17762369656147586
0.13653422924736422,0.13653422924736422
0.1007466286834605,0.1007466286834605
0.07622549496374871,0.07622549496374871
0.06297082808822882,0.06297082808822882
0.03646149433718904,0.03646149433718904
0.024532294149221135,0.024532294149221135
0.024532294149221135,0.024532294149221135
0.024532294149221135,0.024532294149221135
-0.011255306414682567,-0.011255306414682567
-0.05168204038501823,-0.05168204038501823
-0.07023857401074608,-0.07023857401074608
-0.05168204038501823,-0.05168204038501823
-0.0430665069159303,-0.0430665069159303
-0.05168204038501823,-0.05168204038501823
-0.07023857401074608,-0.07023857401074608
-0.05168204038501823,-0.05168204038501823
-0.001977039601818644,-0.001977039601818644
0.06297082808822882,0.06297082808822882
0.10538576208989246,0.10538576208989246
0.1391851626224682,0.1391851626224682
0.16834542974861194,0.16834542974861194
0.21539949715670756,0.21539949715670756
0.26709269797123514,0.26709269797123514
0.3300523656299546,0.3300523656299546
0.3804200997569302,0.3804200997569302
0.406266700164194,0.406266700164194
0.38307103313203417,0.38307103313203417
0.3300523656299546,0.3300523656299546
0.2545007644394912,0.2545007644394912
0.17762369656147586,0.17762369656147586
0.10339756205856449,0.10339756205856449
0.06297082808822882,0.06297082808822882
0.052367094587812905,0.052367094587812905
0.06297082808822882,0.06297082808822882
0.051041627900260914,0.051041627900260914
0.024532294149221135,0.024532294149221135
-0.031137306727962402,-0.031137306727962402
-0.08945784098024992,-0.08945784098024992
-0.15970757542050534,-0.15970757542050534
-0.20411070945349696,-0.20411070945349696
-0.23327097657964072,-0.23327097657964072
-0.24254924339250464,-0.24254924339250464
-0.2597803103306805,-0.2597803103306805
-0.28032504398773633,-0.28032504398773633
-0.3412965116151278,-0.3412965116151278
-0.4711922469952228,-0.4711922469952228
-0.6998352505979408,-0.6998352505979408
-0.9675795214834426,-0.9675795214834426
-1.1915833916797287,-1.1915833916797287
-1.2724368596204,-1.2724368596204
-1.159772191178481,-1.159772191178481
-0.7767123184759562,-0.7767123184759562
-0.06096030719788215,-0.06096030719788215
1.016644109781885,1.016644109781885
2.314275996895282,2.314275996895282
3.53569354947444,3.53569354947444
4.296511428129282,4.296511428129282
4.375376696038625,4.375376696038625
3.8080769537663737,3.8080769537663737
2.8868776059177415,2.8868776059177415
1.9139850572545816,1.9139850572545816
1.0935211776599003,1.0935211776599003
0.48446923472976133,0.48446923472976133
0.1007466286834605,0.1007466286834605
-0.1159671747312897,-0.1159671747312897
-0.24254924339250464,-0.24254924339250464
-0.35190024511554374,-0.35190024511554374
-0.43341644639999105,-0.43341644639999105
-0.48179598049563865,-0.48179598049563865
-0.5096307809342304,-0.5096307809342304
-0.5513829815921181,-0.5513829815921181
-0.5858451154684698,-0.5858451154684698
-0.5964488489688857,-0.5964488489688857
-0.5858451154684698,-0.5858451154684698
-0.5884960488435738,-0.5884960488435738
-0.5858451154684698,-0.5858451154684698
-0.5759041153118298,-0.5759041153118298
-0.5474065815294621,-0.5474065815294621
-0.5447556481543582,-0.5447556481543582
-0.5474065815294621,-0.5474065815294621
-0.5580103150298781,-0.5580103150298781
-0.5474065815294621,-0.5474065815294621
-0.5348146479977183,-0.5348146479977183
-0.5096307809342304,-0.5096307809342304
-0.4897487806209506,-0.4897487806209506
-0.4711922469952228,-0.4711922469952228
-0.47052951365144674,-0.47052951365144674
-0.4711922469952228,-0.4711922469952228
-0.4751686470578787,-0.4751686470578787
-0.4711922469952228,-0.4711922469952228
-0.47318044702655077,-0.47318044702655077
-0.4711922469952228,-0.4711922469952228
-0.47384318037032674,-0.47384318037032674
-0.4711922469952228,-0.4711922469952228
-0.4745059137141027,-0.4745059137141027
-0.4711922469952228,-0.4711922469952228
-0.47251771368277473,-0.47251771368277473
-0.4711922469952228,-0.4711922469952228
-0.48709784724584665,-0.48709784724584665
-0.5096307809342304,-0.5096307809342304
-0.5381283147165982,-0.5381283147165982
-0.5474065815294621,-0.5474065815294621
-0.5507202482483421,-0.5507202482483421
-0.5474065815294621,-0.5474065815294621
-0.55270844827967,-0.55270844827967
-0.5474065815294621,-0.5474065815294621
-0.5454183814981342,-0.5454183814981342
-0.5474065815294621,-0.5474065815294621
-0.561323981748758,-0.561323981748758
-0.5474065815294621,-0.5474065815294621
-0.5023407141526945,-0.5023407141526945
-0.43341644639999105,-0.43341644639999105
-0.37708411217903154,-0.37708411217903154
-0.31876357792674404,-0.31876357792674404
-0.2518275102053686,-0.2518275102053686
-0.1663349088582653,-0.1663349088582653
-0.08879510763647393,-0.08879510763647393
-0.01324350644601055,-0.01324350644601055
0.05833169468179686,0.05833169468179686
0.1391851626224682,0.1391851626224682
0.20413303031251565,0.20413303031251565
0.25383803109571523,0.25383803109571523
0.27637096478409906,0.27637096478409906
0.2916138316909469,0.2916138316909469
0.2936020317222749,0.2936020317222749
0.2916138316909469,0.2916138316909469
0.2737200314089951,0.2737200314089951
0.25383803109571523,0.25383803109571523
0.22865416403222744,0.22865416403222744
0.21539949715670756,0.21539949715670756
0.1981684302185317,0.1981684302185317
0.17762369656147586,0.17762369656147586
0.1378596959349162,0.1378596959349162
0.1007466286834605,0.1007466286834605
0.07026089486976476,0.07026089486976476
0.06297082808822882,0.06297082808822882
0.06031989471312484,0.06031989471312484
0.06297082808822882,0.06297082808822882
0.04706522783760495,0.04706522783760495
0.024532294149221135,0.024532294149221135
-0.005290706320698616,-0.005290706320698616
-0.01324350644601055,-0.01324350644601055
-0.01456897313356254,-0.01456897313356254
-0.01324350644601055,-0.01324350644601055
-0.03445097344684237,-0.03445097344684237
-0.05168204038501823,-0.05168204038501823
-0.06294850722921014,-0.06294850722921014
-0.05168204038501823,-0.05168204038501823
-0.028486373352858425,-0.028486373352858425
0.024532294149221135,0.024532294149221135
0.08616649512038863,0.08616649512038863
0.1391851626224682,0.1391851626224682
0.15840442959197204,0.15840442959197204
0.17762369656147586,0.17762369656147586
0.20744669703139562,0.20744669703139562
0.25383803109571523,0.25383803109571523
0.29028836500339494,0.29028836500339494
0.3300523656299546,0.3300523656299546
0.36053809944365034,0.36053809944365034
0.3684908995689623,0.3684908995689623
0.32408776553597063,0.32408776553597063
0.25383803109571523,0.25383803109571523
0.18425102999923582,0.18425102999923582
0.1391851626224682,0.1391851626224682
0.09743296196458054,0.09743296196458054
0.06297082808822882,0.06297082808822882
0.03248509427453307,0.03248509427453307
0.024532294149221135,0.024532294149221135
-0.0013143062580426492,-0.0013143062580426492
-0.05168204038501823,-0.05168204038501823
-0.1398255751072255,-0.1398255751072255
-0.20411070945349696,-0.20411070945349696
-0.23857284332984868,-0.23857284332984868
-0.24254924339250464,-0.24254924339250464
-0.2577921102993525,-0.2577921102993525
-0.28032504398773633,-0.28032504398773633
-0.3333437114898159,-0.3333437114898159
-0.43341644639999105,-0.43341644639999105
-0.6150053825946136,-0.6150053825946136
-0.8529266530101955,-0.8529266530101955
-1.1292864573647854,-1.1292864573647854
-1.3870897280936472,-1.3870897280936472
-1.540843863849678,-1.540843863849678
-1.4255282620326548,-1.4255282620326548
-0.9357683209821949,-0.9357683209821949
-0.05168204038501823,-0.05168204038501823
1.124006911473596,1.124006911473596
2.4289288653685293,2.4289288653685293
3.5694929500070156,3.5694929500070156
4.222285293626371,4.222285293626371
4.179207626280931,4.179207626280931
3.53569354947444,3.53569354947444
2.578706601061904,2.578706601061904
1.627684252743352,1.627684252743352
0.8555999072443182,0.8555999072443182
0.3300523656299546,0.3300523656299546
0.010614893929925252,0.010614893929925252
-0.1663349088582653,-0.1663349088582653
-0.27966231064396035,-0.27966231064396035
-0.3572021118657517,-0.3572021118657517
-0.4208245128682472,-0.4208245128682472
-0.4711922469952228,-0.4711922469952228
-0.5202345144346463,-0.5202345144346463
-0.5474065815294621,-0.5474065815294621
-0.55602211499855,-0.55602211499855
-0.5474065815294621,-0.5474065815294621
-0.5474065815294621,-0.5474065815294621
-0.5474065815294621,-0.5474065815294621
-0.5540339149672221,-0.5540339149672221
-0.5474065815294621,-0.5474065815294621
-0.5507202482483421,-0.5507202482483421
-0.5474065815294621,-0.5474065815294621
-0.555359381654774,-0.555359381654774
-0.5474065815294621,-0.5474065815294621
-0.5368028480290462,-0.5368028480290462
-0.5096307809342304,-0.5096307809342304
-0.4884233139333986,-0.4884233139333986
-0.4711922469952228,-0.4711922469952228
-0.47052951365144674,-0.47052951365144674
-0.4711922469952228,-0.4711922469952228
-0.47583138040165474,-0.47583138040165474
-0.4711922469952228,-0.4711922469952228
-0.47185498033899875,-0.47185498033899875
-0.4711922469952228,-0.4711922469952228
-0.4764941137454307,-0.4764941137454307
-0.4711922469952228,-0.4711922469952228
-0.46986678030767076,-0.46986678030767076
-0.4711922469952228,-0.4711922469952228
-0.4804705138080867,-0.4804705138080867
-0.4711922469952228,-0.4711922469952228
-0.46257671352613483,-0.46257671352613483
-0.4711922469952228,-0.4711922469952228
-0.5142699143406624,-0.5142699143406624
-0.5474065815294621,-0.5474065815294621
-0.556684848342326,-0.556684848342326
-0.5474065815294621,-0.5474065815294621
-0.563312181780086,-0.563312181780086
-0.5858451154684698,-0.5858451154684698
-0.6004252490315417,-0.6004252490315417
-0.5858451154684698,-0.5858451154684698
-0.5699395152178459,-0.5699395152178459
-0.5474065815294621,-0.5474065815294621
-0.5215599811221984,-0.5215599811221984
-0.4711922469952228,-0.4711922469952228
-0.4161853794618152,-0.4161853794618152
-0.3572021118657517,-0.3572021118657517
-0.30550891105122413,-0.30550891105122413
-0.24254924339250464,-0.24254924339250464
-0.17229950895224924,-0.17229950895224924
-0.08945784098024992,-0.08945784098024992
-0.013906239789786544,-0.013906239789786544
0.06297082808822882,0.06297082808822882
0.12460502905939631,0.12460502905939631
0.17762369656147586,0.17762369656147586
0.21341129712537957,0.21341129712537957
0.25383803109571523,0.25383803109571523
0.282335564878083,0.282335564878083
0.2916138316909469,0.2916138316909469
0.2697436313463391,0.2697436313463391
0.25383803109571523,0.25383803109571523
0.24986163103305928,0.24986163103305928
0.25383803109571523,0.25383803109571523
0.2352814974699874,0.2352814974699874
0.21539949715670756,0.21539949715670756
0.19551749684342773,0.19551749684342773
0.17762369656147586,0.17762369656147586
0.1378596959349162,0.1378596959349162
0.1007466286834605,0.1007466286834605
0.07357456158864473,0.07357456158864473
0.06297082808822882,0.06297082808822882
0.04242609443117299,0.04242609443117299
0.024532294149221135,0.024532294149221135
0.0026620938046133177,0.0026620938046133177
-0.01324350644601055,-0.01324350644601055
-0.03975284019705033,-0.03975284019705033
-0.05168204038501823,-0.05168204038501823
-0.0556584404476742,-0.0556584404476742
-0.05168204038501823,-0.05168204038501823
-0.05897210716655417,-0.05897210716655417
-0.05168204038501823,-0.05168204038501823
-0.025835439977754445,-0.025835439977754445
0.024532294149221135,0.024532294149221135
0.07622549496374871,0.07622549496374871
0.1391851626224682,0.1391851626224682
0.1988311635623077,0.1988311635623077
0.25383803109571523,0.25383803109571523
0.28697469828451494,0.28697469828451494
0.3300523656299546,0.3300523656299546
0.3943374999762261,0.3943374999762261
0.48248103469843334,0.48248103469843334
0.5454407023571528,0.5454407023571528
0.5586953692326727,0.5586953692326727
0.5056767017305932,0.5056767017305932
0.406266700164194,0.406266700164194
0.2723945647214431,0.2723945647214431
0.1391851626224682,0.1391851626224682
0.02188136077411716,0.02188136077411716
-0.05168204038501823,-0.05168204038501823
-0.10006157448066583,-0.10006157448066583
-0.1278963749192576,-0.1278963749192576
-0.17097404226469726,-0.17097404226469726
-0.20411070945349696,-0.20411070945349696
-0.2359219099547447,-0.2359219099547447
-0.24254924339250464,-0.24254924339250464
-0.2478511101427126,-0.2478511101427126
-0.24254924339250464,-0.24254924339250464
-0.2518275102053686,-0.2518275102053686
-0.28032504398773633,-0.28032504398773633
-0.36382944530351163,-0.36382944530351163
-0.5096307809342304,-0.5096307809342304
-0.7462265846622604,-0.7462265846622604
-1.043793856017682,-1.043793856017682
-1.3294319271851356,-1.3294319271851356
-1.4633040626278866,-1.4633040626278866
-1.3638940610614874,-1.3638940610614874
-0.9675795214834426,-0.9675795214834426
-0.23062004320453675,-0.23062004320453675
0.9026539746524138,0.9026539746524138
2.317589663614162,2.317589663614162
3.6881222185429188,3.6881222185429188
4.562930232327232,4.562930232327232
4.680234034175583,4.680234034175583
4.090401358214947,4.090401358214947
3.1155206095204595,3.1155206095204595
2.090934860042772,2.090934860042772
1.245949846728379,1.245949846728379
0.639548837173344,0.639548837173344
0.25383803109571523,0.25383803109571523
0.0059757605234932905,0.0059757605234932905
-0.1663349088582653,-0.1663349088582653
-0.30683437773877614,-0.30683437773877614
-0.3949779124609834,-0.3949779124609834
-0.4307655130248871,-0.4307655130248871
-0.43341644639999105,-0.43341644639999105
-0.45793758011970287,-0.45793758011970287
-0.5096307809342304,-0.5096307809342304
-0.565300381811414,-0.565300381811414
-0.5858451154684698,-0.5858451154684698
-0.5884960488435738,-0.5884960488435738
-0.5858451154684698,-0.5858451154684698
-0.5977743156564377,-0.5977743156564377
-0.5858451154684698,-0.5858451154684698
-0.5580103150298781,-0.5580103150298781
-0.5096307809342304,-0.5096307809342304
-0.48510964721451866,-0.48510964721451866
-0.4711922469952228,-0.4711922469952228
-0.47384318037032674,-0.47384318037032674
-0.4711922469952228,-0.4711922469952228
-0.47583138040165474,-0.47583138040165474
-0.4711922469952228,-0.4711922469952228
-0.4711922469952228,-0.4711922469952228
-0.4711922469952228,-0.4711922469952228
-0.4804705138080867,-0.4804705138080867
-0.4711922469952228,-0.4711922469952228
-0.45263571336949493,-0.45263571336949493
-0.43341644639999105,-0.43341644639999105
-0.43474191308754306,-0.43474191308754306
-0.43341644639999105,-0.43341644639999105
-0.4307655130248871,-0.4307655130248871
-0.43341644639999105,-0.43341644639999105
-0.45793758011970287,-0.45793758011970287
-0.4711922469952228,-0.4711922469952228
-0.47185498033899875,-0.47185498033899875
-0.4711922469952228,-0.4711922469952228
-0.5056543808715744,-0.5056543808715744
-0.5474065815294621,-0.5474065815294621
-0.5785550486869339,-0.5785550486869339
-0.5858451154684698,-0.5858451154684698
-0.6030761824066456,-0.6030761824066456
-0.6242836494074775,-0.6242836494074775
-0.6401892496581013,-0.6401892496581013
-0.6242836494074775,-0.6242836494074775
-0.5931351822500057,-0.5931351822500057
-0.5474065815294621,-0.5474065815294621
-0.5003525141213665,-0.5003525141213665
-0.43341644639999105,-0.43341644639999105
-0.3598530452408557,-0.3598530452408557
-0.28032504398773633,-0.28032504398773633
-0.21073804289125692,-0.21073804289125692
-0.1278963749192576,-0.1278963749192576
-0.037101906821946355,-0.037101906821946355
0.06297082808822882,0.06297082808822882
0.14382429602890015,0.14382429602890015
0.21539949715670756,0.21539949715670756
0.2737200314089951,0.2737200314089951
0.3300523656299546,0.3300523656299546
0.36053809944365034,0.36053809944365034
0.3684908995689623,0.3684908995689623
0.35059709928701044,0.35059709928701044
0.3300523656299546,0.3300523656299546
0.2955902317536029,0.2955902317536029
0.25383803109571523,0.25383803109571523
0.20347029696873967,0.20347029696873967
0.17762369656147586,0.17762369656147586
0.1709963631237159,0.1709963631237159
0.17762369656147586,0.17762369656147586
0.1729845631550439,0.1729845631550439
0.17762369656147586,0.17762369656147586
0.18093736328035584,0.18093736328035584
0.17762369656147586,0.17762369656147586
0.14051062931002017,0.14051062931002017
0.1007466286834605,0.1007466286834605
0.07158636155731675,0.07158636155731675
0.06297082808822882,0.06297082808822882
0.043751561118724976,0.043751561118724976
0.024532294149221135,0.024532294149221135
1.1160429509339737e-05,1.1160429509339737e-05
-0.01324350644601055,-0.01324350644601055
-0.025835439977754445,-0.025835439977754445
-0.01324350644601055,-0.01324350644601055
0.00730122721104528,0.00730122721104528
0.024532294149221135,0.024532294149221135
0.00730122721104528,0.00730122721104528
-0.01324350644601055,-0.01324350644601055
-0.016557173164890523,-0.016557173164890523
0.024532294149221135,0.024532294149221135
0.09080562852682059,0.09080562852682059
0.17762369656147586,0.17762369656147586
0.2478734310017313,0.2478734310017313
0.2916138316909469,0.2916138316909469
0.3042057652226908,0.3042057652226908
0.3300523656299546,0.3300523656299546
0.3704790996002903,0.3704790996002903
0.406266700164194,0.406266700164194
0.38771016653846613,0.38771016653846613
0.3300523656299546,0.3300523656299546
0.2591398978459232,0.2591398978459232
0.21539949715670756,0.21539949715670756
0.1981684302185317,0.1981684302185317
0.21539949715670756,0.21539949715670756
0.23992063087641935,0.23992063087641935
0.25383803109571523,0.25383803109571523
0.20148209693741168,0.20148209693741168
0.1007466286834605,0.1007466286834605
-0.032462773415514394,-0.032462773415514394
-0.1278963749192576,-0.1278963749192576
-0.19814610935951302,-0.19814610935951302
-0.24254924339250464,-0.24254924339250464
-0.2922542441757042,-0.2922542441757042
-0.31876357792674404,-0.31876357792674404
-0.324065444676952,-0.324065444676952
-0.31876357792674404,-0.31876357792674404
-0.37840957886658355,-0.37840957886658355
-0.5474065815294621,-0.5474065815294621
-0.8264173192591558,-0.8264173192591558
-1.1200081905519215,-1.1200081905519215
-1.3287691938413597,-1.3287691938413597
-1.3108753935594077,-1.3108753935594077
-0.9145608539813631,-0.9145608539813631
-0.01324350644601055,-0.01324350644601055
1.3055958476682186,1.3055958476682186
2.8106632713835022,2.8106632713835022
4.252771027440066,4.252771027440066
5.443702846205528,5.443702846205528
6.0613703226047555,6.0613703226047555
5.7869987182814935,5.7869987182814935
4.648422833674335,4.648422833674335
3.192397677398475,3.192397677398475
1.979595658288405,1.979595658288405
1.1697355121941397,1.1697355121941397
0.5858674363274885,0.5858674363274885
0.1391851626224682,0.1391851626224682
-0.14645290854498544,-0.14645290854498544
-0.28032504398773633,-0.28032504398773633
-0.3757586454914795,-0.3757586454914795
-0.4711922469952228,-0.4711922469952228
-0.5487320482170142,-0.5487320482170142
-0.5858451154684698,-0.5858451154684698
-0.6116917158757336,-0.6116917158757336
-0.6242836494074775,-0.6242836494074775
-0.6269345827825815,-0.6269345827825815
-0.6242836494074775,-0.6242836494074775
-0.6342246495641174,-0.6342246495641174
-0.6242836494074775,-0.6242836494074775
-0.6070525824693016,-0.6070525824693016
-0.5858451154684698,-0.5858451154684698
-0.5951233822813338,-0.5951233822813338
-0.5858451154684698,-0.5858451154684698
-0.567951315186518,-0.567951315186518
-0.5474065815294621,-0.5474065815294621
-0.5546966483109981,-0.5546966483109981
-0.5474065815294621,-0.5474065815294621
-0.5155953810282143,-0.5155953810282143
-0.4711922469952228,-0.4711922469952228
-0.46257671352613483,-0.46257671352613483
-0.4711922469952228,-0.4711922469952228
-0.4784823137767587,-0.4784823137767587
-0.4711922469952228,-0.4711922469952228
-0.48378418052696665,-0.48378418052696665
-0.5096307809342304,-0.5096307809342304
-0.5295127812475102,-0.5295127812475102
-0.5096307809342304,-0.5096307809342304
-0.47052951365144674,-0.47052951365144674
-0.43341644639999105,-0.43341644639999105
-0.4267891129622311,-0.4267891129622311
-0.43341644639999105,-0.43341644639999105
-0.45263571336949493,-0.45263571336949493
-0.4711922469952228,-0.4711922469952228
-0.49770158074626253,-0.49770158074626253
-0.5096307809342304,-0.5096307809342304
-0.5136071809968864,-0.5136071809968864
-0.5096307809342304,-0.5096307809342304
-0.5155953810282143,-0.5155953810282143
-0.5096307809342304,-0.5096307809342304
-0.49505064737115856,-0.49505064737115856
-0.4711922469952228,-0.4711922469952228
-0.4592630468072549,-0.4592630468072549
-0.43341644639999105,-0.43341644639999105
-0.38901331236699943,-0.38901331236699943
-0.31876357792674404,-0.31876357792674404
-0.2478511101427126,-0.2478511101427126
-0.1663349088582653,-0.1663349088582653
-0.07752864079228201,-0.07752864079228201
0.024532294149221135,0.024532294149221135
0.11996589565296435,0.11996589565296435
0.21539949715670756,0.21539949715670756
0.2975784317849309,0.2975784317849309
0.3684908995689623,0.3684908995689623
0.41090583357062593,0.41090583357062593
0.4447052341032017,0.4447052341032017
0.4659127011040335,0.4659127011040335
0.48248103469843334,0.48248103469843334
0.4718773011980174,0.4718773011980174
0.4447052341032017,0.4447052341032017
0.402290300101538,0.402290300101538
0.3684908995689623,0.3684908995689623
0.3293896322861786,0.3293896322861786
0.2916138316909469,0.2916138316909469
0.24721069765795528,0.24721069765795528
0.21539949715670756,0.21539949715670756
0.17961189659280385,0.17961189659280385
0.1391851626224682,0.1391851626224682
0.08749196180794061,0.08749196180794061
0.06297082808822882,0.06297082808822882
0.05899442802557285,0.05899442802557285
0.06297082808822882,0.06297082808822882
0.04176336108739699,0.04176336108739699
0.024532294149221135,0.024532294149221135
0.017904960711461193,0.017904960711461193
0.024532294149221135,0.024532294149221135
0.009289427242373263,0.009289427242373263
-0.01324350644601055,-0.01324350644601055
-0.040415573540826324,-0.040415573540826324
-0.05168204038501823,-0.05168204038501823
-0.06294850722921014,-0.06294850722921014
-0.05168204038501823,-0.05168204038501823
-0.012580773102234556,-0.012580773102234556
0.06297082808822882,0.06297082808822882
0.13123236249715625,0.13123236249715625
0.17762369656147586,0.17762369656147586
0.19220383012454775,0.19220383012454775
0.21539949715670756,0.21539949715670756
0.2478734310017313,0.2478734310017313
0.2916138316909469,0.2916138316909469
0.3260759655672986,0.3260759655672986
0.3684908995689623,0.3684908995689623
0.40096483341398603,0.40096483341398603
0.406266700164194,0.406266700164194
0.35854989941232235,0.35854989941232235
0.2916138316909469,0.2916138316909469
0.23726969750131538,0.23726969750131538
0.21539949715670756,0.21539949715670756
0.19684296353097971,0.19684296353097971
0.17762369656147586,0.17762369656147586
0.1391851626224682,0.1391851626224682
0.1007466286834605,0.1007466286834605
0.041100627743621,0.041100627743621
-0.01324350644601055,-0.01324350644601055
-0.07752864079228201,-0.07752864079228201
-0.1278963749192576,-0.1278963749192576
-0.1782641090462332,-0.1782641090462332
-0.20411070945349696,-0.20411070945349696
-0.22200450973544883,-0.22200450973544883
-0.24254924339250464,-0.24254924339250464
-0.31876357792674404,-0.31876357792674404
-0.4711922469952228,-0.4711922469952228
-0.7077880507232528,-0.7077880507232528
-0.9675795214834426,-0.9675795214834426
-1.1869442582732967,-1.1869442582732967
-1.2724368596204,-1.2724368596204
-1.155133057772049,-1.155133057772049
-0.7382737845369486,-0.7382737845369486
0.03381056096208506,0.03381056096208506
1.1697355121941397,1.1697355121941397
2.5197233334658407,2.5197233334658407
3.802775087016166,3.802775087016166
4.632517233423711,4.632517233423711
4.756448368709822,4.756448368709822
4.189148626437571,4.189148626437571
3.2301734779937066,3.2301734779937066
2.203599528484691,2.203599528484691
1.3221641812626184,1.3221641812626184
0.648827103986208,0.648827103986208
0.21539949715670756,0.21539949715670756
-0.02649817332153044,-0.02649817332153044
-0.1663349088582653,-0.1663349088582653
-0.2942424442070322,-0.2942424442070322
-0.3949779124609834,-0.3949779124609834
-0.4493220466506149,-0.4493220466506149
-0.4711922469952228,-0.4711922469952228
-0.5102935142780064,-0.5102935142780064
-0.5474065815294621,-0.5474065815294621
-0.561323981748758,-0.561323981748758
-0.5474065815294621,-0.5474065815294621
-0.5480693148732381,-0.5480693148732381
-0.5474065815294621,-0.5474065815294621
-0.5407792480917022,-0.5407792480917022
-0.5096307809342304,-0.5096307809342304
-0.4910742473085026,-0.4910742473085026
-0.4711922469952228,-0.4711922469952228
-0.47052951365144674,-0.47052951365144674
-0.4711922469952228,-0.4711922469952228
-0.4824587138394147,-0.4824587138394147
-0.4711922469952228,-0.4711922469952228
-0.4493220466506149,-0.4493220466506149
-0.43341644639999105,-0.43341644639999105
-0.45064751333816694,-0.45064751333816694
-0.4711922469952228,-0.4711922469952228
-0.4804705138080867,-0.4804705138080867
-0.4711922469952228,-0.4711922469952228
-0.4711922469952228,-0.4711922469952228
-0.4711922469952228,-0.4711922469952228
-0.47384318037032674,-0.47384318037032674
-0.4711922469952228,-0.4711922469952228
-0.4877605805896226,-0.4877605805896226
-0.5096307809342304,-0.5096307809342304
-0.5255363811848544,-0.5255363811848544
-0.5096307809342304,-0.5096307809342304
-0.4864351139020706,-0.4864351139020706
-0.4711922469952228,-0.4711922469952228
-0.48709784724584665,-0.48709784724584665
-0.5096307809342304,-0.5096307809342304
-0.5334891813101662,-0.5334891813101662
-0.5474065815294621,-0.5474065815294621
-0.5699395152178459,-0.5699395152178459
-0.5858451154684698,-0.5858451154684698
-0.5964488489688857,-0.5964488489688857
-0.5858451154684698,-0.5858451154684698
-0.571927715249174,-0.571927715249174
-0.5474065815294621,-0.5474065815294621
-0.5195717810908703,-0.5195717810908703
-0.4711922469952228,-0.4711922469952228
-0.4188363128369192,-0.4188363128369192
-0.3572021118657517,-0.3572021118657517
-0.29092877748815227,-0.29092877748815227
-0.20411070945349696,-0.20411070945349696
-0.12060630813772166,-0.12060630813772166
-0.05168204038501823,-0.05168204038501823
-0.003965239633146628,-0.003965239633146628
0.06297082808822882,0.06297082808822882
0.14448702937267616,0.14448702937267616
0.21539949715670756,0.21539949715670756
0.24058336422019536,0.24058336422019536
0.25383803109571523,0.25383803109571523
0.2710690980338911,0.2710690980338911
0.2916138316909469,0.2916138316909469
0.279684631502979,0.279684631502979
0.25383803109571523,0.25383803109571523
0.22931689737600344,0.22931689737600344
0.21539949715670756,0.21539949715670756
0.18226282996790782,0.18226282996790782
0.1391851626224682,0.1391851626224682
0.09279382855814858,0.09279382855814858
0.06297082808822882,0.06297082808822882
0.03712422768096503,0.03712422768096503
0.024532294149221135,0.024532294149221135
0.00730122721104528,0.00730122721104528
-0.01324350644601055,-0.01324350644601055
-0.0437292402597063,-0.0437292402597063
-0.05168204038501823,-0.05168204038501823
-0.050356573697466246,-0.050356573697466246
-0.05168204038501823,-0.05168204038501823
-0.07686590744850602,-0.07686590744850602
-0.08945784098024992,-0.08945784098024992
-0.0914460410115779,-0.0914460410115779
-0.08945784098024992,-0.08945784098024992
-0.11464170804373772,-0.11464170804373772
-0.1278963749192576,-0.1278963749192576
-0.10867710794975376,-0.10867710794975376
-0.05168204038501823,-0.05168204038501823
-0.005953439664474611,-0.005953439664474611
0.024532294149221135,0.024532294149221135
0.049053427868932936,0.049053427868932936
0.1007466286834605,0.1007466286834605
0.15972989627952403,0.15972989627952403
0.21539949715670756,0.21539949715670756
0.25184983106438724,0.25184983106438724
0.2916138316909469,0.2916138316909469
0.32143683216086666,0.32143683216086666
0.3300523656299546,0.3300523656299546
0.2969156984411549,0.2969156984411549
0.25383803109571523,0.25383803109571523
0.21142309709405158,0.21142309709405158
0.17762369656147586,0.17762369656147586
0.13388329587226022,0.13388329587226022
0.1007466286834605,0.1007466286834605
0.07821369499507669,0.07821369499507669
0.06297082808822882,0.06297082808822882
0.012603093961253236,0.012603093961253236
-0.05168204038501823,-0.05168204038501823
-0.12458270820037763,-0.12458270820037763
-0.1663349088582653,-0.1663349088582653
-0.20742437617237694,-0.20742437617237694
-0.24254924339250464,-0.24254924339250464
-0.27568591058130437,-0.27568591058130437
-0.28032504398773633,-0.28032504398773633
-0.2942424442070322,-0.2942424442070322
-0.3572021118657517,-0.3572021118657517
-0.5136071809968864,-0.5136071809968864
-0.7382737845369486,-0.7382737845369486
-0.9974025219533624,-0.9974025219533624
-1.2346610590251685,-1.2346610590251685
-1.4142617951884628,-1.4142617951884628
-1.4255282620326548,-1.4255282620326548
-1.1246473239583534,-1.1246473239583534
-0.3949779124609834,-0.3949779124609834
0.6859401712376637,0.6859401712376637
1.9325415908803094,1.9325415908803094
3.1532964101156913,3.1532964101156913
4.184509493031139,4.184509493031139
4.716684368083262,4.716684368083262
4.451591030572865,4.451591030572865
3.417727014282313,3.417727014282313
2.123408793887796,2.123408793887796
1.0941839110036762,1.0941839110036762
0.48248103469843334,0.48248103469843334
0.10406029540234048,0.10406029540234048
-0.1663349088582653,-0.1663349088582653
-0.3346691781773679,-0.3346691781773679
-0.3949779124609834,-0.3949779124609834
-0.4281145796497831,-0.4281145796497831
-0.4711922469952228,-0.4711922469952228
-0.5195717810908703,-0.5195717810908703
-0.5474065815294621,-0.5474065815294621
-0.5712649819053979,-0.5712649819053979
-0.5858451154684698,-0.5858451154684698
-0.5931351822500057,-0.5931351822500057
-0.5858451154684698,-0.5858451154684698
-0.5865078488122458,-0.5865078488122458
-0.5858451154684698,-0.5858451154684698
-0.5957861156251097,-0.5957861156251097
-0.5858451154684698,-0.5858451154684698
-0.5745786486242779,-0.5745786486242779
-0.5474065815294621,-0.5474065815294621
-0.5321637146226142,-0.5321637146226142
-0.5096307809342304,-0.5096307809342304
-0.4910742473085026,-0.4910742473085026
-0.4711922469952228,-0.4711922469952228
-0.46986678030767076,-0.46986678030767076
-0.4711922469952228,-0.4711922469952228
-0.4764941137454307,-0.4764941137454307
-0.4711922469952228,-0.4711922469952228
-0.47185498033899875,-0.47185498033899875
-0.4711922469952228,-0.4711922469952228
-0.47583138040165474,-0.47583138040165474
-0.4711922469952228,-0.4711922469952228
-0.47185498033899875,-0.47185498033899875
-0.4711922469952228,-0.4711922469952228
-0.4764941137454307,-0.4764941137454307
-0.4711922469952228,-0.4711922469952228
-0.4692040469638948,-0.4692040469638948
-0.4711922469952228,-0.4711922469952228
-0.4917369806522786,-0.4917369806522786
-0.5096307809342304,-0.5096307809342304
-0.5301755145912863,-0.5301755145912863
-0.5474065815294621,-0.5474065815294621
-0.5745786486242779,-0.5745786486242779
-0.5858451154684698,-0.5858451154684698
-0.5884960488435738,-0.5884960488435738
-0.5858451154684698,-0.5858451154684698
-0.5951233822813338,-0.5951233822813338
-0.5858451154684698,-0.5858451154684698
-0.556684848342326,-0.556684848342326
-0.5096307809342304,-0.5096307809342304
-0.4745059137141027,-0.4745059137141027
-0.43341644639999105,-0.43341644639999105
-0.3830487122730155,-0.3830487122730155
-0.31876357792674404,-0.31876357792674404
-0.26441944373711246,-0.26441944373711246
-0.20411070945349696,-0.20411070945349696
-0.13651190838834554,-0.13651190838834554
-0.05168204038501823,-0.05168204038501823
0.025857760836773127,0.025857760836773127
0.1007466286834605,0.1007466286834605
0.162380829654628,0.162380829654628
0.21539949715670756,0.21539949715670756
0.24190883090774734,0.24190883090774734
0.25383803109571523,0.25383803109571523
0.25184983106438724,0.25184983106438724
0.25383803109571523,0.25383803109571523
0.24058336422019536,0.24058336422019536
0.21539949715670756,0.21539949715670756
0.17232182981126792,0.17232182981126792
0.1391851626224682,0.1391851626224682
0.11400129555898039,0.11400129555898039
0.1007466286834605,0.1007466286834605
0.07953916168262869,0.07953916168262869
0.06297082808822882,0.06297082808822882
0.04242609443117299,0.04242609443117299
0.024532294149221135,0.024532294149221135
-0.011918039758458562,-0.011918039758458562
-0.05168204038501823,-0.05168204038501823
-0.08614417426136994,-0.08614417426136994
-0.08945784098024992,-0.08945784098024992
-0.08680690760514594,-0.08680690760514594
-0.08945784098024992,-0.08945784098024992
-0.11397897469996171,-0.11397897469996171
-0.1278963749192576,-0.1278963749192576
-0.13319824166946556,-0.13319824166946556
-0.1278963749192576,-0.1278963749192576
-0.12458270820037763,-0.12458270820037763
-0.08945784098024992,-0.08945784098024992
-0.033125506759290387,-0.033125506759290387
0.024532294149221135,0.024532294149221135
0.04640249449382895,0.04640249449382895
0.06297082808822882,0.06297082808822882
0.09080562852682059,0.09080562852682059
0.1391851626224682,0.1391851626224682
0.17696096321769988,0.17696096321769988
0.21539949715670756,0.21539949715670756
0.2545007644394912,0.2545007644394912
0.2916138316909469,0.2916138316909469
0.2909510983471709,0.2909510983471709
0.25383803109571523,0.25383803109571523
0.19220383012454775,0.19220383012454775
0.1391851626224682,0.1391851626224682
0.09279382855814858,0.09279382855814858
0.06297082808822882,0.06297082808822882
0.03778696102474103,0.03778696102474103
0.024532294149221135,0.024532294149221135
-0.005953439664474611,-0.005953439664474611
-0.05168204038501823,-0.05168204038501823
-0.13187277498191358,-0.13187277498191358
-0.20411070945349696,-0.20411070945349696
-0.2617685103620085,-0.2617685103620085
-0.28032504398773633,-0.28032504398773633
-0.2975561109259122,-0.2975561109259122
-0.31876357792674404,-0.31876357792674404
-0.3558766451781997,-0.3558766451781997
-0.3949779124609834,-0.3949779124609834
-0.4844469138707426,-0.4844469138707426
-0.6620594500027092,-0.6620594500027092
-0.9311291875757629,-0.9311291875757629
-1.1962225250861607,-1.1962225250861607
-1.3804623946558872,-1.3804623946558872
-1.4255282620326548,-1.4255282620326548
-1.287679726527248,-1.287679726527248
-0.8529266530101955,-0.8529266530101955
-0.04969384035369025,-0.04969384035369025
1.0935211776599003,1.0935211776599003
2.3825375313042096,2.3825375313042096
3.53569354947444,3.53569354947444
4.19908962659421,4.19908962659421
4.146070959092131,4.146070959092131
3.421703414344969,3.421703414344969
2.3904903314295214,2.3904903314295214
1.4368170497358654,1.4368170497358654
0.7495625722401591,0.7495625722401591
0.28830016497206695,0.28830016497206695
-0.01324350644601055,-0.01324350644601055
-0.20742437617237694,-0.20742437617237694
-0.31876357792674404,-0.31876357792674404
-0.40226797924251934,-0.40226797924251934
-0.4711922469952228,-0.4711922469952228
-0.5255363811848544,-0.5255363811848544
-0.5474065815294621,-0.5474065815294621
-0.563312181780086,-0.563312181780086
-0.5858451154684698,-0.5858451154684698
-0.6169935826259415,-0.6169935826259415
-0.6242836494074775,-0.6242836494074775
-0.6103662491881816,-0.6103662491881816
-0.5858451154684698,-0.5858451154684698
-0.5865078488122458,-0.5865078488122458
-0.5858451154684698,-0.5858451154684698
-0.5911469822186778,-0.5911469822186778
-0.5858451154684698,-0.5858451154684698
-0.5937979155937817,-0.5937979155937817
-0.5858451154684698,-0.5858451154684698
-0.568614048530294,-0.568614048530294
-0.5474065815294621,-0.5474065815294621
-0.5493947815607901,-0.5493947815607901
-0.5474065815294621,-0.5474065815294621
-0.5341519146539422,-0.5341519146539422
-0.5096307809342304,-0.5096307809342304
-0.5056543808715744,-0.5056543808715744
-0.5096307809342304,-0.5096307809342304
-0.5056543808715744,-0.5056543808715744
-0.4711922469952228,-0.4711922469952228
-0.4327537130562151,-0.4327537130562151
-0.3949779124609834,-0.3949779124609834
-0.36449217864728767,-0.36449217864728767
-0.31876357792674404,-0.31876357792674404
-0.2823132440190643,-0.2823132440190643
-0.28032504398773633,-0.28032504398773633
-0.3426219783026798,-0.3426219783026798
-0.43341644639999105,-0.43341644639999105
-0.5242109144973023,-0.5242109144973023
-0.5858451154684698,-0.5858451154684698
-0.6335619162203414,-0.6335619162203414
-0.6620594500027092,-0.6620594500027092
-0.6865805837224209,-0.6865805837224209
-0.7004979839417168,-0.7004979839417168
-0.7130899174734607,-0.7130899174734607
-0.7004979839417168,-0.7004979839417168
-0.6706749834717971,-0.6706749834717971
-0.6242836494074775,-0.6242836494074775
-0.5778923153431579,-0.5778923153431579
-0.5096307809342304,-0.5096307809342304
-0.4320909797124391,-0.4320909797124391
-0.3572021118657517,-0.3572021118657517
-0.30550891105122413,-0.30550891105122413
-0.24254924339250464,-0.24254924339250464
-0.15705664204540135,-0.15705664204540135
-0.05168204038501823,-0.05168204038501823
0.03248509427453307,0.03248509427453307
0.1007466286834605,0.1007466286834605
0.15707896290442003,0.15707896290442003
0.21539949715670756,0.21539949715670756
0.2478734310017313,0.2478734310017313
0.25383803109571523,0.25383803109571523
0.23263056409488342,0.23263056409488342
0.21539949715670756,0.21539949715670756
0.1975056968747557,0.1975056968747557
0.17762369656147586,0.17762369656147586
0.13852242927869218,0.13852242927869218
0.1007466286834605,0.1007466286834605
0.07092362821354076,0.07092362821354076
0.06297082808822882,0.06297082808822882
0.05965716136934884,0.05965716136934884
0.06297082808822882,0.06297082808822882
0.05037889455648492,0.05037889455648492
0.024532294149221135,0.024532294149221135
-0.019870839883770496,-0.019870839883770496
-0.05168204038501823,-0.05168204038501823
-0.07487770741717804,-0.07487770741717804
-0.08945784098024992,-0.08945784098024992
-0.1159671747312897,-0.1159671747312897
-0.1278963749192576,-0.1278963749192576
-0.1305473082943616,-0.1305473082943616
-0.1278963749192576,-0.1278963749192576
-0.14844110857631343,-0.14844110857631343
-0.1663349088582653,-0.1663349088582653
-0.1663349088582653,-0.1663349088582653
-0.1278963749192576,-0.1278963749192576
-0.07487770741717804,-0.07487770741717804
-0.01324350644601055,-0.01324350644601055
0.030496894243205088,0.030496894243205088
0.06297082808822882,0.06297082808822882
0.08682922846416462,0.08682922846416462
0.1391851626224682,0.1391851626224682
0.2127485637816036,0.2127485637816036
0.2916138316909469,0.2916138316909469
0.3399933657865945,0.3399933657865945
0.3684908995689623,0.3684908995689623
0.3771064330380502,0.3771064330380502
0.3684908995689623,0.3684908995689623
0.31017036531667475,0.31017036531667475
0.21539949715670756,0.21539949715670756
0.11598949559030838,0.11598949559030838
0.06297082808822882,0.06297082808822882
0.03977516105606901,0.03977516105606901
0.024532294149221135,0.024532294149221135
-0.01788263985244251,-0.01788263985244251
-0.05168204038501823,-0.05168204038501823
-0.08945784098024992,-0.08945784098024992
-0.1278963749192576,-0.1278963749192576
-0.20676164282860096,-0.20676164282860096
-0.28032504398773633,-0.28032504398773633
-0.324065444676952,-0.324065444676952
-0.31876357792674404,-0.31876357792674404
-0.31876357792674404,-0.31876357792674404
-0.3572021118657517,-0.3572021118657517
-0.47185498033899875,-0.47185498033899875
-0.6620594500027092,-0.6620594500027092
-0.926490054169331,-0.926490054169331
-1.1962225250861607,-1.1962225250861607
-1.3817878613434391,-1.3817878613434391
-1.3493139274984154,-1.3493139274984154
-1.0033671220473463,-1.0033671220473463
-0.28032504398773633,-0.28032504398773633
0.7780601060225268,0.7780601060225268
2.085632993292564,2.085632993292564
3.4806866819410325,3.4806866819410325
4.718672568114591,4.718672568114591
5.410566179016729,5.410566179016729
5.252835643198042,5.252835643198042
4.274641227784674,4.274641227784674
2.9246534065129732,2.9246534065129732
1.6966085204960553,1.6966085204960553
0.8264396401181745,0.8264396401181745
0.24986163103305928,0.24986163103305928
-0.1278963749192576,-0.1278963749192576
-0.35123751177176776,-0.35123751177176776
-0.43341644639999105,-0.43341644639999105
-0.4519729800257189,-0.4519729800257189
-0.4711922469952228,-0.4711922469952228
-0.5242109144973023,-0.5242109144973023
-0.5858451154684698,-0.5858451154684698
-0.6474793164396373,-0.6474793164396373
-0.7004979839417168,-0.7004979839417168
-0.7502029847249164,-0.7502029847249164
-0.7767123184759562,-0.7767123184759562
-0.7866533186325961,-0.7866533186325961
-0.7767123184759562,-0.7767123184759562
-0.7707477183819723,-0.7707477183819723
-0.7382737845369486,-0.7382737845369486
-0.6912197171288529,-0.6912197171288529
-0.6242836494074775,-0.6242836494074775
-0.5911469822186778,-0.5911469822186778
-0.5858451154684698,-0.5858451154684698
-0.6070525824693016,-0.6070525824693016
-0.6242836494074775,-0.6242836494074775
-0.6454911164083094,-0.6454911164083094
-0.6620594500027092,-0.6620594500027092
-0.6746513835344531,-0.6746513835344531
-0.6620594500027092,-0.6620594500027092
-0.6415147163456534,-0.6415147163456534
-0.6242836494074775,-0.6242836494074775
-0.6275973161263575,-0.6275973161263575
-0.6242836494074775,-0.6242836494074775
-0.6090407825006297,-0.6090407825006297
-0.5858451154684698,-0.5858451154684698
-0.5924724489062297,-0.5924724489062297
-0.6242836494074775,-0.6242836494074775
-0.672663183503125,-0.672663183503125
-0.7004979839417168,-0.7004979839417168
-0.7004979839417168,-0.7004979839417168
-0.6620594500027092,-0.6620594500027092
-0.6269345827825815,-0.6269345827825815
-0.6242836494074775,-0.6242836494074775
-0.6779650502533331,-0.6779650502533331
-0.7382737845369486,-0.7382737845369486
-0.7667713183193163,-0.7667713183193163
-0.7382737845369486,-0.7382737845369486
-0.6958588505352848,-0.6958588505352848
-0.6620594500027092,-0.6620594500027092
-0.6507929831585173,-0.6507929831585173
-0.6242836494074775,-0.6242836494074775
-0.567951315186518,-0.567951315186518
-0.4711922469952228,-0.4711922469952228
-0.37111951208504756,-0.37111951208504756
-0.28032504398773633,-0.28032504398773633
-0.2100753095474809,-0.2100753095474809
-0.1278963749192576,-0.1278963749192576
-0.036439173478170356,-0.036439173478170356
0.06297082808822882,0.06297082808822882
0.14382429602890015,0.14382429602890015
0.21539949715670756,0.21539949715670756
0.27504549809654705,0.27504549809654705
0.3300523656299546,0.3300523656299546
0.35854989941232235,0.35854989941232235
0.3684908995689623,0.3684908995689623
0.36252629947497833,0.36252629947497833
0.3684908995689623,0.3684908995689623
0.37180456628784225,0.37180456628784225
0.3684908995689623,0.3684908995689623
0.33469149903638656,0.33469149903638656
0.2916138316909469,0.2916138316909469
0.24522249762662732,0.24522249762662732
0.21539949715670756,0.21539949715670756
0.19021563009321976,0.19021563009321976
0.17762369656147586,0.17762369656147586
0.15774169624819603,0.15774169624819603
0.1391851626224682,0.1391851626224682
0.11267582887142841,0.11267582887142841
0.1007466286834605,0.1007466286834605
0.09544476193325255,0.09544476193325255
0.1007466286834605,0.1007466286834605
0.09743296196458054,0.09743296196458054
0.1007466286834605,0.1007466286834605
0.10008389533968451,0.10008389533968451
0.1007466286834605,0.1007466286834605
0.09146836187059658,0.09146836187059658
0.1007466286834605,0.1007466286834605
0.12924416246582826,0.12924416246582826
0.17762369656147586,0.17762369656147586
0.20479576365629165,0.20479576365629165
0.21539949715670756,0.21539949715670756
0.21871316387558754,0.21871316387558754
0.25383803109571523,0.25383803109571523
0.3075194319415708,0.3075194319415708
0.3684908995689623,0.3684908995689623
0.407592166851746,0.407592166851746
0.4447052341032017,0.4447052341032017
0.47254003454179344,0.47254003454179344
0.48248103469843334,0.48248103469843334
0.44139156738432167,0.44139156738432167
0.3684908995689623,0.3684908995689623
0.2916138316909469,0.2916138316909469
0.25383803109571523,0.25383803109571523
0.24522249762662732,0.24522249762662732
0.25383803109571523,0.25383803109571523
0.24124609756397133,0.24124609756397133
0.21539949715670756,0.21539949715670756
0.15972989627952403,0.15972989627952403
0.1007466286834605,0.1007466286834605
0.02055589408656517,0.02055589408656517
-0.05168204038501823,-0.05168204038501823
-0.12391997485660164,-0.12391997485660164
-0.1663349088582653,-0.1663349088582653
-0.19151877592175306,-0.19151877592175306
-0.20411070945349696,-0.20411070945349696
-0.2518275102053686,-0.2518275102053686
-0.3572021118657517,-0.3572021118657517
-0.5434301814668061,-0.5434301814668061
-0.7767123184759562,-0.7767123184759562
-1.0205981889855222,-1.0205981889855222
-1.1962225250861607,-1.1962225250861607
-1.2207436588058727,-1.2207436588058727
-0.9675795214834426,-0.9675795214834426
-0.3591903118970797,-0.3591903118970797
0.6355724371106881,0.6355724371106881
1.9325415908803094,1.9325415908803094
3.3448263464669536,3.3448263464669536
4.52846809845088,4.52846809845088
5.138182774724795,5.138182774724795
4.98177770559366,4.98177770559366
4.184509493031139,4.184509493031139
3.054549141893068,3.054549141893068
1.9325415908803094,1.9325415908803094
1.021283243188317,1.021283243188317
0.406266700164194,0.406266700164194
0.041100627743621,0.041100627743621
-0.1663349088582653,-0.1663349088582653
-0.317438111239192,-0.317438111239192
-0.43341644639999105,-0.43341644639999105
-0.5136071809968864,-0.5136071809968864
-0.5474065815294621,-0.5474065815294621
-0.567951315186518,-0.567951315186518
-0.5858451154684698,-0.5858451154684698
-0.6110289825319576,-0.6110289825319576
-0.6242836494074775,-0.6242836494074775
-0.6302482495014614,-0.6302482495014614
-0.6242836494074775,-0.6242836494074775
-0.6269345827825815,-0.6269345827825815
-0.6242836494074775,-0.6242836494074775
-0.6322364495327895,-0.6322364495327895
-0.6242836494074775,-0.6242836494074775
-0.6156681159383895,-0.6156681159383895
-0.5858451154684698,-0.5858451154684698
-0.56264944843631,-0.56264944843631
-0.5474065815294621,-0.5474065815294621
-0.55270844827967,-0.55270844827967
-0.5474065815294621,-0.5474065815294621
-0.5321637146226142,-0.5321637146226142
-0.5096307809342304,-0.5096307809342304
-0.5069798475591265,-0.5069798475591265
-0.5096307809342304,-0.5096307809342304
-0.5142699143406624,-0.5142699143406624
-0.5096307809342304,-0.5096307809342304
-0.5116189809655585,-0.5116189809655585
-0.5096307809342304,-0.5096307809342304
-0.5116189809655585,-0.5116189809655585
-0.5096307809342304,-0.5096307809342304
-0.5142699143406624,-0.5142699143406624
-0.5096307809342304,-0.5096307809342304
-0.5069798475591265,-0.5069798475591265
-0.5096307809342304,-0.5096307809342304
-0.5328264479663902,-0.5328264479663902
-0.5474065815294621,-0.5474065815294621
-0.5533711816234461,-0.5533711816234461
-0.5474065815294621,-0.5474065815294621
-0.5513829815921181,-0.5513829815921181
-0.5474065815294621,-0.5474065815294621
-0.5467438481856861,-0.5467438481856861
-0.5474065815294621,-0.5474065815294621
-0.560661248404982,-0.560661248404982
-0.5474065815294621,-0.5474065815294621
-0.5023407141526945,-0.5023407141526945
-0.43341644639999105,-0.43341644639999105
-0.37708411217903154,-0.37708411217903154
-0.31876357792674404,-0.31876357792674404
-0.2518275102053686,-0.2518275102053686
-0.1663349088582653,-0.1663349088582653
-0.08945784098024992,-0.08945784098024992
-0.01324350644601055,-0.01324350644601055
0.05899442802557285,0.05899442802557285
0.1391851626224682,0.1391851626224682
0.20280756362496366,0.20280756362496366
0.25383803109571523,0.25383803109571523
0.28962563165961897,0.28962563165961897
0.3300523656299546,0.3300523656299546
0.3572244327247704,0.3572244327247704
0.3684908995689623,0.3684908995689623
0.35059709928701044,0.35059709928701044
0.3300523656299546,0.3300523656299546
0.3081821652853468,0.3081821652853468
0.2916138316909469,0.2916138316909469
0.25715169781459524,0.25715169781459524
0.21539949715670756,0.21539949715670756
0.16967089643616393,0.16967089643616393
0.1391851626224682,0.1391851626224682
0.10339756205856449,0.10339756205856449
0.06297082808822882,0.06297082808822882
0.013928560648805224,0.013928560648805224
-0.01324350644601055,-0.01324350644601055
-0.03378824010306638,-0.03378824010306638
-0.05168204038501823,-0.05168204038501823
-0.08084230751116199,-0.08084230751116199
-0.08945784098024992,-0.08945784098024992
-0.08813237429269793,-0.08813237429269793
-0.08945784098024992,-0.08945784098024992
-0.1166299080750657,-0.1166299080750657
-0.1278963749192576,-0.1278963749192576
-0.1166299080750657,-0.1166299080750657
-0.08945784098024992,-0.08945784098024992
-0.07885410747983401,-0.07885410747983401
-0.05168204038501823,-0.05168204038501823
-0.0006515729142666548,-0.0006515729142666548
0.06297082808822882,0.06297082808822882
0.0901428951830446,0.0901428951830446
0.1007466286834605,0.1007466286834605
0.12195409568429233,0.12195409568429233
0.17762369656147586,0.17762369656147586
0.22666596400089947,0.22666596400089947
0.25383803109571523,0.25383803109571523
0.2525125644081632,0.2525125644081632
0.25383803109571523,0.25383803109571523
0.24522249762662732,0.24522249762662732
0.21539949715670756,0.21539949715670756
0.15442802952931606,0.15442802952931606
0.1007466286834605,0.1007466286834605
0.07092362821354076,0.07092362821354076
0.06297082808822882,0.06297082808822882
0.043751561118724976,0.043751561118724976
0.024532294149221135,0.024532294149221135
-0.008604373039578589,-0.008604373039578589
-0.05168204038501823,-0.05168204038501823
-0.13187277498191358,-0.13187277498191358
-0.20411070945349696,-0.20411070945349696
-0.2597803103306805,-0.2597803103306805
-0.28032504398773633,-0.28032504398773633
-0.30153251098856815,-0.30153251098856815
-0.31876357792674404,-0.31876357792674404
-0.3485865783966638,-0.3485865783966638
-0.3949779124609834,-0.3949779124609834
-0.5083053142466785,-0.5083053142466785
-0.7004979839417168,-0.7004979839417168
-0.9576385213268027,-0.9576385213268027
-1.1962225250861607,-1.1962225250861607
-1.3552785275923995,-1.3552785275923995
-1.3493139274984154,-1.3493139274984154
-1.0789187232378097,-1.0789187232378097
-0.43341644639999105,-0.43341644639999105
0.5547189691700167,0.5547189691700167
1.741674387872823,1.741674387872823
2.945860873513805,2.945860873513805
3.993642290023652,3.993642290023652
4.570883032452543,4.570883032452543
4.375376696038625,4.375376696038625
3.4336326145329368,3.4336326145329368
2.238061662361043,2.238061662361043
1.2770983138858507,1.2770983138858507
0.6733482377059198,0.6733482377059198
0.2578144311583712,0.2578144311583712
-0.05168204038501823,-0.05168204038501823
-0.23989831001740067,-0.23989831001740067
-0.31876357792674404,-0.31876357792674404
-0.37907231221035953,-0.37907231221035953
-0.43341644639999105,-0.43341644639999105
-0.46257671352613483,-0.46257671352613483
-0.4711922469952228,-0.4711922469952228
-0.5063171142153504,-0.5063171142153504
-0.5474065815294621,-0.5474065815294621
-0.564637648467638,-0.564637648467638
-0.5474065815294621,-0.5474065815294621
-0.5427674481230301,-0.5427674481230301
-0.5474065815294621,-0.5474065815294621
-0.560661248404982,-0.560661248404982
-0.5474065815294621,-0.5474065815294621
-0.5341519146539422,-0.5341519146539422
-0.5096307809342304,-0.5096307809342304
-0.49571338071493454,-0.49571338071493454
-0.4711922469952228,-0.4711922469952228
-0.4519729800257189,-0.4519729800257189
-0.43341644639999105,-0.43341644639999105
-0.4320909797124391,-0.4320909797124391
-0.43341644639999105,-0.43341644639999105
-0.43871831315019905,-0.43871831315019905
-0.43341644639999105,-0.43341644639999105
-0.42281271289957517,-0.42281271289957517
-0.3949779124609834,-0.3949779124609834
-0.3684685787099436,-0.3684685787099436
-0.3572021118657517,-0.3572021118657517
-0.3856996456481195,-0.3856996456481195
-0.43341644639999105,-0.43341644639999105
-0.48378418052696665,-0.48378418052696665
-0.5096307809342304,-0.5096307809342304
-0.5189090477470943,-0.5189090477470943
-0.5096307809342304,-0.5096307809342304
-0.5056543808715744,-0.5056543808715744
-0.5096307809342304,-0.5096307809342304
-0.5321637146226142,-0.5321637146226142
-0.5474065815294621,-0.5474065815294621
-0.555359381654774,-0.555359381654774
-0.5474065815294621,-0.5474065815294621
-0.5474065815294621,-0.5474065815294621
-0.5474065815294621,-0.5474065815294621
-0.5540339149672221,-0.5540339149672221
-0.5474065815294621,-0.5474065815294621
-0.5368028480290462,-0.5368028480290462
-0.5096307809342304,-0.5096307809342304
-0.4784823137767587,-0.4784823137767587
-0.43341644639999105,-0.43341644639999105
-0.38437417896056747,-0.38437417896056747
-0.31876357792674404,-0.31876357792674404
-0.2478511101427126,-0.2478511101427126
-0.1663349088582653,-0.1663349088582653
-0.0914460410115779,-0.0914460410115779
-0.01324350644601055,-0.01324350644601055
0.06031989471312484,0.06031989471312484
0.1391851626224682,0.1391851626224682
0.20347029696873967,0.20347029696873967
0.25383803109571523,0.25383803109571523
0.277696431471651,0.277696431471651
0.2916138316909469,0.2916138316909469
0.2929392983784989,0.2929392983784989
0.2916138316909469,0.2916138316909469
0.27438276475277107,0.27438276475277107
0.25383803109571523,0.25383803109571523
0.22799143068845146,0.22799143068845146
0.21539949715670756,0.21539949715670756
0.19949389690608368,0.19949389690608368
0.17762369656147586,0.17762369656147586
0.1371969625911402,0.1371969625911402
0.1007466286834605,0.1007466286834605
0.06164536140067683,0.06164536140067683
0.024532294149221135,0.024532294149221135
-0.02318450660265047,-0.02318450660265047
-0.05168204038501823,-0.05168204038501823
-0.062285773885434145,-0.062285773885434145
-0.05168204038501823,-0.05168204038501823
-0.05168204038501823,-0.05168204038501823
-0.05168204038501823,-0.05168204038501823
-0.05632117379145019,-0.05632117379145019
-0.05168204038501823,-0.05168204038501823
-0.05499570710389821,-0.05499570710389821
-0.05168204038501823,-0.05168204038501823
-0.04439197360348229,-0.04439197360348229
-0.01324350644601055,-0.01324350644601055
0.02188136077411716,0.02188136077411716
0.06297082808822882,0.06297082808822882
0.09610749527702854,0.09610749527702854
0.1391851626224682,0.1391851626224682
0.17762369656147586,0.17762369656147586
0.21539949715670756,0.21539949715670756
0.24522249762662732,0.24522249762662732
0.2916138316909469,0.2916138316909469
0.3393306324428185,0.3393306324428185
0.3684908995689623,0.3684908995689623
0.34463249919302646,0.34463249919302646
0.2916138316909469,0.2916138316909469
0.22931689737600344,0.22931689737600344
0.17762369656147586,0.17762369656147586
0.12791869577827628,0.12791869577827628
0.1007466286834605,0.1007466286834605
0.09345656190192457,0.09345656190192457
0.1007466286834605,0.1007466286834605
0.0768882283075247,0.0768882283075247
0.024532294149221135,0.024532294149221135
-0.05897210716655417,-0.05897210716655417
-0.1278963749192576,-0.1278963749192576
-0.19483244264063304,-0.19483244264063304
-0.24254924339250464,-0.24254924339250464
-0.2809877773315123,-0.2809877773315123
-0.28032504398773633,-0.28032504398773633
-0.2571293769555765,-0.2571293769555765
-0.24254924339250464,-0.24254924339250464
-0.32671637805205594,-0.32671637805205594
-0.5474065815294621,-0.5474065815294621
-0.8787732534174594,-0.8787732534174594
-1.1962225250861607,-1.1962225250861607
-1.413599061844687,-1.413599061844687
-1.4633040626278866,-1.4633040626278866
-1.289667926558576,-1.289667926558576
-0.7767123184759562,-0.7767123184759562
0.11598949559030838,0.11598949559030838
1.3221641812626184,1.3221641812626184
2.6403408020330716,2.6403408020330716
3.802775087016166,3.802775087016166
4.450928297229089,4.450928297229089
4.336938162099617,4.336938162099617
3.5217761492551443,3.5217761492551443
2.4289288653685293,2.4289288653685293
1.4679655168933372,1.4679655168933372
0.7880011061791669,0.7880011061791669
0.3075194319415708,0.3075194319415708
-0.01324350644601055,-0.01324350644601055
-0.18489144248399314,-0.18489144248399314
-0.24254924339250464,-0.24254924339250464
-0.27966231064396035,-0.27966231064396035
-0.31876357792674404,-0.31876357792674404
-0.3578648452095277,-0.3578648452095277
-0.3949779124609834,-0.3949779124609834
-0.4546239134008229,-0.4546239134008229
-0.5096307809342304,-0.5096307809342304
-0.5414419814354782,-0.5414419814354782
-0.5474065815294621,-0.5474065815294621
-0.556684848342326,-0.556684848342326
-0.5474065815294621,-0.5474065815294621
-0.5208972477784224,-0.5208972477784224
-0.4711922469952228,-0.4711922469952228
-0.44733384661928693,-0.44733384661928693
-0.43341644639999105,-0.43341644639999105
-0.4261263796184551,-0.4261263796184551
-0.3949779124609834,-0.3949779124609834
-0.3684685787099436,-0.3684685787099436
-0.3572021118657517,-0.3572021118657517
-0.37642137883525556,-0.37642137883525556
-0.3949779124609834,-0.3949779124609834
-0.4042561792738473,-0.4042561792738473
