ECG,PPG
-0.714830483758986,-0.714830483758986
-0.8343764755316149,-0.8343764755316149
-0.714830483758986,-0.714830483758986
-0.6153609180855771,-0.6153609180855771
-0.6445629924117156,-0.6445629924117156
-0.6911037983689985,-0.6911037983689985
-0.6673771129790111,-0.6673771129790111
-0.616273482908269,-0.616273482908269
-0.5980221864544325,-0.5980221864544325
-0.6044101402132752,-0.6044101402132752
-0.5980221864544325,-0.5980221864544325
-0.5733829362417533,-0.5733829362417533
-0.5514813804971495,-0.5514813804971495
-0.5405306026248475,-0.5405306026248475
-0.5277546951071621,-0.5277546951071621
-0.5049405745398665,-0.5049405745398665
-0.48121388914987906,-0.48121388914987906
-0.4620500278733507,-0.4620500278733507
-0.43467308319259595,-0.43467308319259595
-0.39543279581684754,-0.39543279581684754
-0.36531815666801737,-0.36531815666801737
-0.34797942503687274,-0.34797942503687274
-0.3187773507107344,-0.3187773507107344
-0.26493602617191675,-0.26493602617191675
-0.22569573879616833,-0.22569573879616833
-0.21565752574655828,-0.21565752574655828
-0.2019690534061809,-0.2019690534061809
-0.15542824744889788,-0.15542824744889788
-0.10888744149161489,-0.10888744149161489
-0.09246127468316206,-0.09246127468316206
-0.0860733209243193,-0.0860733209243193
-0.05869637624356459,-0.05869637624356459
-0.03953251496703629,-0.03953251496703629
-0.05504611695279729,-0.05504611695279729
-0.0860733209243193,-0.0860733209243193
-0.09246127468316206,-0.09246127468316206
-0.0860733209243193,-0.0860733209243193
-0.09246127468316206,-0.09246127468316206
-0.10888744149161489,-0.10888744149161489
-0.11162513595969037,-0.11162513595969037
-0.10888744149161489,-0.10888744149161489
-0.1253136083000677,-0.1253136083000677
-0.15542824744889788,-0.15542824744889788
-0.16911671978927525,-0.16911671978927525
-0.15542824744889788,-0.15542824744889788
-0.13443925652698596,-0.13443925652698596
-0.1326141268816023,-0.1326141268816023
-0.14630259922197966,-0.14630259922197966
-0.15542824744889788,-0.15542824744889788
-0.1481277288673633,-0.1481277288673633
-0.1326141268816023,-0.1326141268816023
-0.11892565454122495,-0.11892565454122495
-0.10888744149161489,-0.10888744149161489
-0.10432461737815578,-0.10432461737815578
-0.10888744149161489,-0.10888744149161489
-0.1171005248958413,-0.1171005248958413
-0.10888744149161489,-0.10888744149161489
-0.07694767269740106,-0.07694767269740106
-0.03953251496703629,-0.03953251496703629
-0.0066801813501306305,-0.0066801813501306305
0.030734976380234147,0.030734976380234147
0.07545065269213351,0.07545065269213351
0.10100246772750458,0.10100246772750458
0.0982647732594291,0.0982647732594291
0.10100246772750458,0.10100246772750458
0.1329422365217184,0.1329422365217184
0.1703573942520832,0.1703573942520832
0.1822207369470769,0.1822207369470769
0.1703573942520832,0.1703573942520832
0.15210609779824671,0.15210609779824671
0.12381658829480019,0.12381658829480019
0.08366373609635992,0.08366373609635992
0.05354909694752974,0.05354909694752974
0.04624857836599515,0.04624857836599515
0.030734976380234147,0.030734976380234147
-0.012155570286281572,-0.012155570286281572
-0.06234663553433188,-0.06234663553433188
-0.09063614503777842,-0.09063614503777842
-0.10888744149161489,-0.10888744149161489
-0.13443925652698596,-0.13443925652698596
-0.15542824744889788,-0.15542824744889788
-0.15725337709428155,-0.15725337709428155
-0.15542824744889788,-0.15542824744889788
-0.1672915901438916,-0.1672915901438916
-0.1791549328388853,-0.1791549328388853
-0.1782423680161935,-0.1782423680161935
-0.1791549328388853,-0.1791549328388853
-0.18736801624311172,-0.18736801624311172
-0.1791549328388853,-0.1791549328388853
-0.1481277288673633,-0.1481277288673633
-0.1326141268816023,-0.1326141268816023
-0.15360311780351424,-0.15360311780351424
-0.1791549328388853,-0.1791549328388853
-0.18098006248426896,-0.18098006248426896
-0.1791549328388853,-0.1791549328388853
-0.2019690534061809,-0.2019690534061809
-0.22569573879616833,-0.22569573879616833
-0.22204547950540104,-0.22204547950540104
-0.2019690534061809,-0.2019690534061809
-0.2056193126969482,-0.2056193126969482
-0.22569573879616833,-0.22569573879616833
-0.23664651666847022,-0.23664651666847022
-0.22569573879616833,-0.22569573879616833
-0.21930778503732556,-0.21930778503732556
-0.22569573879616833,-0.22569573879616833
-0.22934599808693562,-0.22934599808693562
-0.2019690534061809,-0.2019690534061809
-0.1517779881581306,-0.1517779881581306
-0.0860733209243193,-0.0860733209243193
0.0015329020540957839,0.0015329020540957839
0.1475432736847876,0.1475432736847876
0.347394969854297,0.347394969854297
0.5664105273003347,0.5664105273003347
0.7699124827606114,0.7699124827606114
0.9852777809158818,0.9852777809158818
1.258134662900737,1.258134662900737
1.590308258360561,1.590308258360561
1.9352577613380704,1.9352577613380704
2.242792106585215,2.242792106585215
2.501047951407001,2.501047951407001
2.7082001661580453,2.7082001661580453
2.8523854081433533,2.8523854081433533
2.918090075377165,2.918090075377165
2.937253936653693,2.937253936653693
2.9646308813344477,2.9646308813344477
3.014821946582498,3.014821946582498
3.0339858078590263,3.0339858078590263
2.9746690943840575,2.9746690943840575
2.8250084634625985,2.8250084634625985
2.5913918688534916,2.5913918688534916
2.2656062271525106,2.2656062271525106
1.8841541312673282,1.8841541312673282
1.5209533318359825,1.5209533318359825
1.2106812921207624,1.2106812921207624
0.8921961690013158,0.8921961690013158
0.5070938138253661,0.5070938138253661
0.10100246772750458,0.10100246772750458
-0.2329962573777029,-0.2329962573777029
-0.4583997685825834,-0.4583997685825834
-0.6098855291494262,-0.6098855291494262
-0.714830483758986,-0.714830483758986
-0.7860105399289482,-0.7860105399289482
-0.8307262162408475,-0.8307262162408475
-0.8590157257442941,-0.8590157257442941
-0.854452901630835,-0.854452901630835
-0.8270759569500803,-0.8270759569500803
-0.8079120956735519,-0.8079120956735519
-0.8188628735458539,-0.8188628735458539
-0.8307262162408475,-0.8307262162408475
-0.823425697659313,-0.823425697659313
-0.8079120956735519,-0.8079120956735519
-0.8079120956735519,-0.8079120956735519
-0.8079120956735519,-0.8079120956735519
-0.7951361881558664,-0.7951361881558664
-0.7841854102835646,-0.7841854102835646
-0.7878356695743318,-0.7878356695743318
-0.7841854102835646,-0.7841854102835646
-0.7659341138297281,-0.7659341138297281
-0.761371289716269,-0.761371289716269
-0.7787100213474136,-0.7787100213474136
-0.7841854102835646,-0.7841854102835646
-0.7577210304255017,-0.7577210304255017
-0.7376446043262815,-0.7376446043262815
-0.7495079470212752,-0.7495079470212752
-0.761371289716269,-0.761371289716269
-0.7385571691489734,-0.7385571691489734
-0.714830483758986,-0.714830483758986
-0.714830483758986,-0.714830483758986
-0.714830483758986,-0.714830483758986
-0.6874535390782313,-0.6874535390782313
-0.6673771129790111,-0.6673771129790111
-0.6810655853193884,-0.6810655853193884
-0.6911037983689985,-0.6911037983689985
-0.6600765943974765,-0.6600765943974765
-0.6208363070217281,-0.6208363070217281
-0.6153609180855771,-0.6153609180855771
-0.6208363070217281,-0.6208363070217281
-0.5961970568090489,-0.5961970568090489
-0.5514813804971495,-0.5514813804971495
-0.5149787875894766,-0.5149787875894766
-0.48121388914987906,-0.48121388914987906
-0.43376051836990415,-0.43376051836990415
-0.38813227723531296,-0.38813227723531296
-0.3580176380864828,-0.3580176380864828
-0.3187773507107344,-0.3187773507107344
-0.24850985936346393,-0.24850985936346393
-0.1791549328388853,-0.1791549328388853
-0.14447746957659602,-0.14447746957659602
-0.1326141268816023,-0.1326141268816023
-0.1052371822008476,-0.1052371822008476
-0.06234663553433188,-0.06234663553433188
-0.0285817370947344,-0.0285817370947344
-0.015805829577048867,-0.015805829577048867
-0.012155570286281572,-0.012155570286281572
-0.015805829577048867,-0.015805829577048867
-0.0322319963855017,-0.0322319963855017
-0.06234663553433188,-0.06234663553433188
-0.08424819127893565,-0.08424819127893565
-0.0860733209243193,-0.0860733209243193
-0.0705597189385583,-0.0705597189385583
-0.06234663553433188,-0.06234663553433188
-0.06964715411586647,-0.06964715411586647
-0.0860733209243193,-0.0860733209243193
-0.09793666361931301,-0.09793666361931301
-0.10888744149161489,-0.10888744149161489
-0.12166334900930041,-0.12166334900930041
-0.1326141268816023,-0.1326141268816023
-0.13443925652698596,-0.13443925652698596
-0.1326141268816023,-0.1326141268816023
-0.1253136083000677,-0.1253136083000677
-0.10888744149161489,-0.10888744149161489
-0.0897235802150866,-0.0897235802150866
-0.0860733209243193,-0.0860733209243193
-0.10067435808738848,-0.10067435808738848
-0.10888744149161489,-0.10888744149161489
-0.09884922844200483,-0.09884922844200483
-0.0860733209243193,-0.0860733209243193
-0.07329741340663377,-0.07329741340663377
-0.03953251496703629,-0.03953251496703629
0.016133939217164963,0.016133939217164963
0.05354909694752974,0.05354909694752974
0.06815013411059892,0.06815013411059892
0.10100246772750458,0.10100246772750458
0.16123174602516496,0.16123174602516496
0.1940840796420706,0.1940840796420706
0.1703573942520832,0.1703573942520832
0.1475432736847876,0.1475432736847876
0.1630568756705486,0.1630568756705486
0.1703573942520832,0.1703573942520832
0.13385480134441025,0.13385480134441025
0.10100246772750458,0.10100246772750458
0.10739042148634734,0.10739042148634734
0.10100246772750458,0.10100246772750458
0.04077318942984421,0.04077318942984421
-0.015805829577048867,-0.015805829577048867
-0.017630959222432515,-0.017630959222432515
-0.015805829577048867,-0.015805829577048867
-0.06143407071164006,-0.06143407071164006
-0.10888744149161489,-0.10888744149161489
-0.10249948773277213,-0.10249948773277213
-0.0860733209243193,-0.0860733209243193
-0.11527539525045766,-0.11527539525045766
-0.15542824744889788,-0.15542824744889788
-0.15269055298082243,-0.15269055298082243
-0.1326141268816023,-0.1326141268816023
-0.14173977510852054,-0.14173977510852054
-0.15542824744889788,-0.15542824744889788
-0.1280513027681432,-0.1280513027681432
-0.0860733209243193,-0.0860733209243193
-0.08789845056970295,-0.08789845056970295
-0.1326141268816023,-0.1326141268816023
-0.16911671978927525,-0.16911671978927525
-0.1791549328388853,-0.1791549328388853
-0.18645545142041992,-0.18645545142041992
-0.2019690534061809,-0.2019690534061809
-0.2129198312784828,-0.2129198312784828
-0.2019690534061809,-0.2019690534061809
-0.18645545142041992,-0.18645545142041992
-0.1791549328388853,-0.1791549328388853
-0.18371775695234444,-0.18371775695234444
-0.1791549328388853,-0.1791549328388853
-0.16546646049850797,-0.16546646049850797
-0.15542824744889788,-0.15542824744889788
-0.159991071562357,-0.159991071562357
-0.15542824744889788,-0.15542824744889788
-0.13808951581775325,-0.13808951581775325
-0.10888744149161489,-0.10888744149161489
-0.06599689482509917,-0.06599689482509917
0.030734976380234147,0.030734976380234147
0.19043382035130332,0.19043382035130332
0.38024730347120267,0.38024730347120267
0.5673230921230265,0.5673230921230265
0.7753878716967624,0.7753878716967624
1.0217803738235547,1.0217803738235547
1.2882493020495673,1.2882493020495673
1.5674941377932654,1.5674941377932654
1.8932797794942464,1.8932797794942464
2.2573931437482844,2.2573931437482844
2.568577748286196,2.568577748286196
2.763866620342246,2.763866620342246
2.8715492694198814,2.8715492694198814
2.9390790662990764,2.9390790662990764
2.9646308813344477,2.9646308813344477
2.9737565295613657,2.9737565295613657
3.0339858078590263,3.0339858078590263
3.127067419773592,3.127067419773592
3.1042532992062966,3.1042532992062966
2.8925382603417935,2.8925382603417935
2.5923044336761834,2.5923044336761834
2.2984585607694163,2.2984585607694163
1.963547270841517,1.963547270841517
1.5465051468713533,1.5465051468713533
1.1486268841777183,1.1486268841777183
0.8575187057390264,0.8575187057390264
0.5892246478676303,0.5892246478676303
0.23149923737243538,0.23149923737243538
-0.15542824744889788,-0.15542824744889788
-0.43193538872452053,-0.43193538872452053
-0.574295501064445,-0.574295501064445
-0.6746776315605457,-0.6746776315605457
-0.761371289716269,-0.761371289716269
-0.8006115770920174,-0.8006115770920174
-0.7841854102835646,-0.7841854102835646
-0.7695843731204953,-0.7695843731204953
-0.7841854102835646,-0.7841854102835646
-0.8106497901416274,-0.8106497901416274
-0.8079120956735519,-0.8079120956735519
-0.7823602806381809,-0.7823602806381809
-0.761371289716269,-0.761371289716269
-0.7677592434751117,-0.7677592434751117
-0.7841854102835646,-0.7841854102835646
-0.7860105399289482,-0.7860105399289482
-0.761371289716269,-0.761371289716269
-0.7312566505674387,-0.7312566505674387
-0.714830483758986,-0.714830483758986
-0.7057048355320676,-0.7057048355320676
-0.6911037983689985,-0.6911037983689985
-0.6664645481563193,-0.6664645481563193
-0.6445629924117156,-0.6445629924117156
-0.6253991311351872,-0.6253991311351872
-0.5980221864544325,-0.5980221864544325
-0.5469185563836904,-0.5469185563836904
-0.48121388914987906,-0.48121388914987906
-0.4218971756749104,-0.4218971756749104
-0.38813227723531296,-0.38813227723531296
-0.37261867524955194,-0.37261867524955194
-0.36531815666801737,-0.36531815666801737
-0.36531815666801737,-0.36531815666801737
-0.38813227723531296,-0.38813227723531296
-0.43376051836990415,-0.43376051836990415
-0.48121388914987906,-0.48121388914987906
-0.5113285282987092,-0.5113285282987092
-0.5277546951071621,-0.5277546951071621
-0.5396180378021558,-0.5396180378021558
-0.5514813804971495,-0.5514813804971495
-0.5606070287240678,-0.5606070287240678
-0.574295501064445,-0.574295501064445
-0.5925467975182815,-0.5925467975182815
-0.5980221864544325,-0.5980221864544325
-0.5688201121282941,-0.5688201121282941
-0.5049405745398665,-0.5049405745398665
-0.4209846108522186,-0.4209846108522186
-0.34159147127802997,-0.34159147127802997
-0.28683758191652053,-0.28683758191652053
-0.2722365447534513,-0.2722365447534513
-0.28501245227113686,-0.28501245227113686
-0.2950506653207469,-0.2950506653207469
-0.2731491095761432,-0.2731491095761432
-0.22569573879616833,-0.22569573879616833
-0.18554288659772808,-0.18554288659772808
-0.1791549328388853,-0.1791549328388853
-0.19466853482464633,-0.19466853482464633
-0.2019690534061809,-0.2019690534061809
-0.1901057107111872,-0.1901057107111872
-0.1791549328388853,-0.1791549328388853
-0.19193084035657085,-0.19193084035657085
-0.22569573879616833,-0.22569573879616833
-0.2576355075903822,-0.2576355075903822
-0.2722365447534513,-0.2722365447534513
-0.26767372063999223,-0.26767372063999223
-0.24850985936346393,-0.24850985936346393
-0.23117112773231926,-0.23117112773231926
-0.22569573879616833,-0.22569573879616833
-0.23117112773231926,-0.23117112773231926
-0.22569573879616833,-0.22569573879616833
-0.21018213681040732,-0.21018213681040732
-0.2019690534061809,-0.2019690534061809
-0.21657009056925008,-0.21657009056925008
-0.22569573879616833,-0.22569573879616833
-0.20653187751964003,-0.20653187751964003
-0.15542824744889788,-0.15542824744889788
-0.07968536716547653,-0.07968536716547653
0.030734976380234147,0.030734976380234147
0.17948304247900143,0.17948304247900143
0.35652061808121527,0.35652061808121527
0.5627602680095674,0.5627602680095674
0.8219286776540453,0.8219286776540453
1.1413263655961836,1.1413263655961836
1.4744125258786993,1.4744125258786993
1.7682583987854665,1.7682583987854665
2.0100880767988,2.0100880767988
2.2336664583582966,2.2336664583582966
2.4526820158043345,2.4526820158043345
2.6297195914065483,2.6297195914065483
2.7082001661580453,2.7082001661580453
2.671697573250372,2.671697573250372
2.5457636277189004,2.5457636277189004
2.3687260521166866,2.3687260521166866
2.149710494670649,2.149710494670649
1.8868918257354037,1.8868918257354037
1.590308258360561,1.590308258360561
1.2928121261630263,1.2928121261630263
1.0318185868731649,1.0318185868731649
0.8575187057390264,0.8575187057390264
0.7753878716967624,0.7753878716967624
0.7051203803494919,0.7051203803494919
0.5198697213430516,0.5198697213430516
0.18769612588322784,0.18769612588322784
-0.1791549328388853,-0.1791549328388853
-0.44836155553297335,-0.44836155553297335
-0.5980221864544325,-0.5980221864544325
-0.6901912335463067,-0.6901912335463067
-0.761371289716269,-0.761371289716269
-0.8033492715600928,-0.8033492715600928
-0.8079120956735519,-0.8079120956735519
-0.7960487529785583,-0.7960487529785583
-0.7841854102835646,-0.7841854102835646
-0.7869231047516401,-0.7869231047516401
-0.8079120956735519,-0.8079120956735519
-0.8398518644677658,-0.8398518644677658
-0.854452901630835,-0.854452901630835
-0.838939299645074,-0.838939299645074
-0.8079120956735519,-0.8079120956735519
-0.7741471972339545,-0.7741471972339545
-0.7376446043262815,-0.7376446043262815
-0.7075299651774514,-0.7075299651774514
-0.714830483758986,-0.714830483758986
-0.7631964193616526,-0.7631964193616526
-0.8079120956735519,-0.8079120956735519
-0.8033492715600928,-0.8033492715600928
-0.761371289716269,-0.761371289716269
-0.7166556134043696,-0.7166556134043696
-0.6911037983689985,-0.6911037983689985
-0.6755901963832375,-0.6755901963832375
-0.6673771129790111,-0.6673771129790111
-0.6609891592201683,-0.6609891592201683
-0.6445629924117156,-0.6445629924117156
-0.6171860477309608,-0.6171860477309608
-0.5980221864544325,-0.5980221864544325
-0.5825085844686715,-0.5825085844686715
-0.5514813804971495,-0.5514813804971495
-0.5104159634760174,-0.5104159634760174
-0.5049405745398665,-0.5049405745398665
-0.5304923895752375,-0.5304923895752375
-0.5277546951071621,-0.5277546951071621
-0.4629625926960425,-0.4629625926960425
-0.38813227723531296,-0.38813227723531296
-0.34889198985956454,-0.34889198985956454
-0.3187773507107344,-0.3187773507107344
-0.258548072413074,-0.258548072413074
-0.2019690534061809,-0.2019690534061809
-0.18463032177503624,-0.18463032177503624
-0.1791549328388853,-0.1791549328388853
-0.13352669170429413,-0.13352669170429413
-0.06234663553433188,-0.06234663553433188
-0.005767616527438807,-0.005767616527438807
0.030734976380234147,0.030734976380234147
0.06997526375598256,0.06997526375598256
0.10100246772750458,0.10100246772750458
0.09461451396866181,0.09461451396866181
0.05354909694752974,0.05354909694752974
0.01248367992639767,0.01248367992639767
-0.015805829577048867,-0.015805829577048867
-0.04500790390318723,-0.04500790390318723
-0.0860733209243193,-0.0860733209243193
-0.12075078418660859,-0.12075078418660859
-0.1326141268816023,-0.1326141268816023
-0.13352669170429413,-0.13352669170429413
-0.15542824744889788,-0.15542824744889788
-0.191018275533879,-0.191018275533879
-0.2019690534061809,-0.2019690534061809
-0.1818926273069608,-0.1818926273069608
-0.1791549328388853,-0.1791549328388853
-0.2092695719877155,-0.2092695719877155
-0.22569573879616833,-0.22569573879616833
-0.19193084035657085,-0.19193084035657085
-0.15542824744889788,-0.15542824744889788
-0.16546646049850797,-0.16546646049850797
-0.2019690534061809,-0.2019690534061809
-0.22022034986001737,-0.22022034986001737
-0.22569573879616833,-0.22569573879616833
-0.2329962573777029,-0.2329962573777029
-0.22569573879616833,-0.22569573879616833
-0.19284340517926268,-0.19284340517926268
-0.1791549328388853,-0.1791549328388853
-0.20470674787425638,-0.20470674787425638
-0.22569573879616833,-0.22569573879616833
-0.20379418305156455,-0.20379418305156455
-0.1791549328388853,-0.1791549328388853
-0.18828058106580356,-0.18828058106580356
-0.2019690534061809,-0.2019690534061809
-0.1818926273069608,-0.1818926273069608
-0.15542824744889788,-0.15542824744889788
-0.16090363638504884,-0.16090363638504884
-0.1791549328388853,-0.1791549328388853
-0.1791549328388853,-0.1791549328388853
-0.1791549328388853,-0.1791549328388853
-0.19558109964733814,-0.19558109964733814
-0.2019690534061809,-0.2019690534061809
-0.17641723837080983,-0.17641723837080983
-0.15542824744889788,-0.15542824744889788
-0.16637902532119977,-0.16637902532119977
-0.1791549328388853,-0.1791549328388853
-0.16364133085312432,-0.16364133085312432
-0.15542824744889788,-0.15542824744889788
-0.18828058106580356,-0.18828058106580356
-0.22569573879616833,-0.22569573879616833
-0.21748265539194192,-0.21748265539194192
-0.1791549328388853,-0.1791549328388853
-0.15634081227158972,-0.15634081227158972
-0.15542824744889788,-0.15542824744889788
-0.1481277288673633,-0.1481277288673633
-0.1326141268816023,-0.1326141268816023
-0.13352669170429413,-0.13352669170429413
-0.15542824744889788,-0.15542824744889788
-0.16364133085312432,-0.16364133085312432
-0.1326141268816023,-0.1326141268816023
-0.07786023752009288,-0.07786023752009288
-0.03953251496703629,-0.03953251496703629
-0.026756607449350753,-0.026756607449350753
-0.015805829577048867,-0.015805829577048867
0.014308809571781317,0.014308809571781317
0.05354909694752974,0.05354909694752974
0.09005168985520269,0.09005168985520269
0.12381658829480019,0.12381658829480019
0.15758148673439767,0.15758148673439767
0.1703573942520832,0.1703573942520832
0.1511935329755549,0.1511935329755549
0.12381658829480019,0.12381658829480019
0.11104068077711464,0.11104068077711464
0.10100246772750458,0.10100246772750458
0.07910091198290081,0.07910091198290081
0.05354909694752974,0.05354909694752974
0.0289098467348505,0.0289098467348505
-0.015805829577048867,-0.015805829577048867
-0.07512254305201742,-0.07512254305201742
-0.10888744149161489,-0.10888744149161489
-0.10614974702353942,-0.10614974702353942
-0.10888744149161489,-0.10888744149161489
-0.13900208064044506,-0.13900208064044506
-0.15542824744889788,-0.15542824744889788
-0.13170156205891048,-0.13170156205891048
-0.10888744149161489,-0.10888744149161489
-0.12075078418660859,-0.12075078418660859
-0.1326141268816023,-0.1326141268816023
-0.1015869229100803,-0.1015869229100803
-0.06234663553433188,-0.06234663553433188
-0.06873458929317465,-0.06873458929317465
-0.10888744149161489,-0.10888744149161489
-0.13443925652698596,-0.13443925652698596
-0.1326141268816023,-0.1326141268816023
-0.1362643861723696,-0.1362643861723696
-0.15542824744889788,-0.15542824744889788
-0.17550467354811802,-0.17550467354811802
-0.1791549328388853,-0.1791549328388853
-0.1709418494346589,-0.1709418494346589
-0.15542824744889788,-0.15542824744889788
-0.14904029369005514,-0.14904029369005514
-0.15542824744889788,-0.15542824744889788
-0.17550467354811802,-0.17550467354811802
-0.1791549328388853,-0.1791549328388853
-0.15542824744889788,-0.15542824744889788
-0.10888744149161489,-0.10888744149161489
-0.05960894106625641,-0.05960894106625641
0.007008290990246727,0.007008290990246727
0.11651606971326559,0.11651606971326559
0.2871656915566366,0.2871656915566366
0.4943179063076806,0.4943179063076806
0.7060329451721837,0.7060329451721837
0.9031469468736176,0.9031469468736176
1.1020860782204351,1.1020860782204351
1.3274895894253158,1.3274895894253158
1.590308258360561,1.590308258360561
1.880503871976561,1.880503871976561
2.1725246152379447,2.1725246152379447
2.454507145449718,2.454507145449718
2.7082001661580453,2.7082001661580453
2.9144398160863974,2.9144398160863974
3.0577124932490136,3.0577124932490136
3.1690454016174163,3.1690454016174163
3.2904165230354288,3.2904165230354288
3.4108750796307494,3.4108750796307494
3.4537656262972654,3.4537656262972654
3.377110181191152,3.377110181191152
3.197334911120863,3.197334911120863
2.9235654643133153,2.9235654643133153
2.522036942328913,2.522036942328913
2.0237765491391775,2.0237765491391775
1.543767452403278,1.543767452403278
1.1559274027592528,1.1559274027592528
0.7991145570867497,0.7991145570867497
0.3957609054569637,0.3957609054569637
-0.015805829577048867,-0.015805829577048867
-0.3388537768099545,-0.3388537768099545
-0.5514813804971495,-0.5514813804971495
-0.7011420114186085,-0.7011420114186085
-0.8079120956735519,-0.8079120956735519
-0.8562780312762186,-0.8562780312762186
-0.854452901630835,-0.854452901630835
-0.8462398182266085,-0.8462398182266085
-0.854452901630835,-0.854452901630835
-0.8708790684392878,-0.8708790684392878
-0.8772670221981306,-0.8772670221981306
-0.8790921518435142,-0.8790921518435142
-0.8772670221981306,-0.8772670221981306
-0.880004716666206,-0.880004716666206
-0.8772670221981306,-0.8772670221981306
-0.869966503616596,-0.869966503616596
-0.854452901630835,-0.854452901630835
-0.8407644292904576,-0.8407644292904576
-0.8307262162408475,-0.8307262162408475
-0.8216005680139293,-0.8216005680139293
-0.8079120956735519,-0.8079120956735519
-0.7914859288650992,-0.7914859288650992
-0.7841854102835646,-0.7841854102835646
-0.7850979751062563,-0.7850979751062563
-0.7841854102835646,-0.7841854102835646
-0.7732346324112627,-0.7732346324112627
-0.761371289716269,-0.761371289716269
-0.7495079470212752,-0.7495079470212752
-0.7376446043262815,-0.7376446043262815
-0.7212184375178287,-0.7212184375178287
-0.714830483758986,-0.714830483758986
-0.709355094822835,-0.709355094822835
-0.6911037983689985,-0.6911037983689985
-0.6591640295747847,-0.6591640295747847
-0.6445629924117156,-0.6445629924117156
-0.6500383813478664,-0.6500383813478664
-0.6445629924117156,-0.6445629924117156
-0.6144483532628853,-0.6144483532628853
-0.5980221864544325,-0.5980221864544325
-0.6117106587948098,-0.6117106587948098
-0.6208363070217281,-0.6208363070217281
-0.5971096216317406,-0.5971096216317406
-0.574295501064445,-0.574295501064445
-0.5834211492913634,-0.5834211492913634
-0.5980221864544325,-0.5980221864544325
-0.579770890000596,-0.579770890000596
-0.5514813804971495,-0.5514813804971495
-0.5460059915609985,-0.5460059915609985
-0.5514813804971495,-0.5514813804971495
-0.5341426488660048,-0.5341426488660048
-0.5049405745398665,-0.5049405745398665
-0.48942697255410544,-0.48942697255410544
-0.48121388914987906,-0.48121388914987906
-0.45383694446912426,-0.45383694446912426
-0.41185896262530036,-0.41185896262530036
-0.37261867524955194,-0.37261867524955194
-0.34159147127802997,-0.34159147127802997
-0.3133019617745834,-0.3133019617745834
-0.2950506653207469,-0.2950506653207469
-0.2859250170938287,-0.2859250170938287
-0.2722365447534513,-0.2722365447534513
-0.24485960007269664,-0.24485960007269664
-0.22569573879616833,-0.22569573879616833
-0.2238706091507847,-0.2238706091507847
-0.22569573879616833,-0.22569573879616833
-0.20744444234233186,-0.20744444234233186
-0.1791549328388853,-0.1791549328388853
-0.1590785067396652,-0.1590785067396652
-0.15542824744889788,-0.15542824744889788
-0.15542824744889788,-0.15542824744889788
-0.15542824744889788,-0.15542824744889788
-0.15542824744889788,-0.15542824744889788
-0.15542824744889788,-0.15542824744889788
-0.15360311780351424,-0.15360311780351424
-0.15542824744889788,-0.15542824744889788
-0.16546646049850797,-0.16546646049850797
-0.1791549328388853,-0.1791549328388853
-0.1782423680161935,-0.1782423680161935
-0.15542824744889788,-0.15542824744889788
-0.13078899723621865,-0.13078899723621865
-0.1326141268816023,-0.1326141268816023
-0.15269055298082243,-0.15269055298082243
-0.15542824744889788,-0.15542824744889788
-0.13078899723621865,-0.13078899723621865
-0.10888744149161489,-0.10888744149161489
-0.10249948773277213,-0.10249948773277213
-0.0860733209243193,-0.0860733209243193
-0.04500790390318723,-0.04500790390318723
-0.015805829577048867,-0.015805829577048867
-0.017630959222432515,-0.017630959222432515
-0.015805829577048867,-0.015805829577048867
0.01248367992639767,0.01248367992639767
0.030734976380234147,0.030734976380234147
0.009745985458322198,0.009745985458322198
-0.015805829577048867,-0.015805829577048867
-0.0066801813501306305,-0.0066801813501306305
0.007008290990246727,0.007008290990246727
-0.014893264754357044,-0.014893264754357044
-0.06234663553433188,-0.06234663553433188
-0.09337383950585389,-0.09337383950585389
-0.10888744149161489,-0.10888744149161489
-0.12440104347737589,-0.12440104347737589
-0.1326141268816023,-0.1326141268816023
-0.11892565454122495,-0.11892565454122495
-0.10888744149161489,-0.10888744149161489
-0.12622617312275952,-0.12622617312275952
-0.15542824744889788,-0.15542824744889788
-0.1791549328388853,-0.1791549328388853
-0.2019690534061809,-0.2019690534061809
-0.22660830361886014,-0.22660830361886014
-0.22569573879616833,-0.22569573879616833
-0.19649366447002997,-0.19649366447002997
-0.1791549328388853,-0.1791549328388853
-0.2010564885834891,-0.2010564885834891
-0.22569573879616833,-0.22569573879616833
-0.2211329146827092,-0.2211329146827092
-0.2019690534061809,-0.2019690534061809
-0.2092695719877155,-0.2092695719877155
-0.22569573879616833,-0.22569573879616833
-0.2247831739734765,-0.2247831739734765
-0.2019690534061809,-0.2019690534061809
-0.18371775695234444,-0.18371775695234444
-0.15542824744889788,-0.15542824744889788
-0.0897235802150866,-0.0897235802150866
0.030734976380234147,0.030734976380234147
0.17126995907477502,0.17126995907477502
0.3099798121239322,0.3099798121239322
0.4605530078680832,0.4605530078680832
0.6594921392149007,0.6594921392149007
0.9004092524055421,0.9004092524055421
1.1486268841777183,1.1486268841777183
1.4023199048860453,1.4023199048860453
1.7071165556651144,1.7071165556651144
2.0621042716922338,2.0621042716922338
2.382414524457064,2.382414524457064
2.605992906016561,2.605992906016561
2.754740972115328,2.754740972115328
2.8715492694198814,2.8715492694198814
2.9409041959444604,2.9409041959444604
2.9755816592067497,2.9755816592067497
3.0339858078590263,3.0339858078590263
3.1161166419012902,3.1161166419012902
3.1042532992062966,3.1042532992062966
2.9299534180721585,2.9299534180721585
2.6616593602007623,2.6616593602007623
2.367813487293995,2.367813487293995
2.0100880767988,2.0100880767988
1.5820951749563346,1.5820951749563346
1.1951676901350012,1.1951676901350012
0.9095349006324605,0.9095349006324605
0.6129513332576176,0.6129513332576176
0.2086851168051398,0.2086851168051398
-0.2019690534061809,-0.2019690534061809
-0.4684379816321935,-0.4684379816321935
-0.5980221864544325,-0.5980221864544325
-0.6984043169505331,-0.6984043169505331
-0.7841854102835646,-0.7841854102835646
-0.8161251790777784,-0.8161251790777784
-0.8079120956735519,-0.8079120956735519
-0.8152126142550865,-0.8152126142550865
-0.8307262162408475,-0.8307262162408475
-0.8243382624820048,-0.8243382624820048
-0.8079120956735519,-0.8079120956735519
-0.8161251790777784,-0.8161251790777784
-0.8307262162408475,-0.8307262162408475
-0.8252508273046966,-0.8252508273046966
-0.8079120956735519,-0.8079120956735519
-0.8051744012054765,-0.8051744012054765
-0.8079120956735519,-0.8079120956735519
-0.7978738826239419,-0.7978738826239419
-0.7841854102835646,-0.7841854102835646
-0.7832728454608727,-0.7832728454608727
-0.7841854102835646,-0.7841854102835646
-0.7723220675885708,-0.7723220675885708
-0.761371289716269,-0.761371289716269
-0.7604587248935771,-0.7604587248935771
-0.761371289716269,-0.761371289716269
-0.7412948636170488,-0.7412948636170488
-0.714830483758986,-0.714830483758986
-0.703879705886684,-0.703879705886684
-0.714830483758986,-0.714830483758986
-0.7221310023405205,-0.7221310023405205
-0.714830483758986,-0.714830483758986
-0.6974917521278413,-0.6974917521278413
-0.6911037983689985,-0.6911037983689985
-0.6929289280143822,-0.6929289280143822
-0.6911037983689985,-0.6911037983689985
-0.6792404556740048,-0.6792404556740048
-0.6673771129790111,-0.6673771129790111
-0.6591640295747847,-0.6591640295747847
-0.6445629924117156,-0.6445629924117156
-0.6126232236175017,-0.6126232236175017
-0.574295501064445,-0.574295501064445
-0.5396180378021558,-0.5396180378021558
-0.5049405745398665,-0.5049405745398665
-0.4666128519868098,-0.4666128519868098
-0.43467308319259595,-0.43467308319259595
-0.40729613851184127,-0.40729613851184127
-0.36531815666801737,-0.36531815666801737
-0.30235118390228155,-0.30235118390228155
-0.24850985936346393,-0.24850985936346393
-0.2211329146827092,-0.2211329146827092
-0.2019690534061809,-0.2019690534061809
-0.1672915901438916,-0.1672915901438916
-0.1326141268816023,-0.1326141268816023
-0.11436283042776584,-0.11436283042776584
-0.10888744149161489,-0.10888744149161489
-0.10432461737815578,-0.10432461737815578
-0.10888744149161489,-0.10888744149161489
-0.12440104347737589,-0.12440104347737589
-0.1326141268816023,-0.1326141268816023
-0.12622617312275952,-0.12622617312275952
-0.1326141268816023,-0.1326141268816023
-0.1590785067396652,-0.1590785067396652
-0.1791549328388853,-0.1791549328388853
-0.16820415496658342,-0.16820415496658342
-0.15542824744889788,-0.15542824744889788
-0.17276697908004254,-0.17276697908004254
-0.2019690534061809,-0.2019690534061809
-0.20379418305156455,-0.20379418305156455
-0.1791549328388853,-0.1791549328388853
-0.16364133085312432,-0.16364133085312432
-0.1791549328388853,-0.1791549328388853
-0.20014392376079726,-0.20014392376079726
-0.2019690534061809,-0.2019690534061809
-0.18736801624311172,-0.18736801624311172
-0.1791549328388853,-0.1791549328388853
-0.1818926273069608,-0.1818926273069608
-0.1791549328388853,-0.1791549328388853
-0.16455389567581613,-0.16455389567581613
-0.15542824744889788,-0.15542824744889788
-0.1590785067396652,-0.1590785067396652
-0.15542824744889788,-0.15542824744889788
-0.13900208064044506,-0.13900208064044506
-0.1326141268816023,-0.1326141268816023
-0.14721516404467147,-0.14721516404467147
-0.15542824744889788,-0.15542824744889788
-0.13443925652698596,-0.13443925652698596
-0.10888744149161489,-0.10888744149161489
-0.11162513595969037,-0.11162513595969037
-0.1326141268816023,-0.1326141268816023
-0.13352669170429413,-0.13352669170429413
-0.10888744149161489,-0.10888744149161489
-0.08151049681086019,-0.08151049681086019
-0.06234663553433188,-0.06234663553433188
-0.042270209435111755,-0.042270209435111755
-0.015805829577048867,-0.015805829577048867
0.01704650403985679,0.01704650403985679
0.05354909694752974,0.05354909694752974
0.09278938432327816,0.09278938432327816
0.12381658829480019,0.12381658829480019
0.15393122744363036,0.15393122744363036
0.1940840796420706,0.1940840796420706
0.23332436701781903,0.23332436701781903
0.24062488559935363,0.24062488559935363
0.21416050574129075,0.21416050574129075
0.1940840796420706,0.1940840796420706
0.19864690375552974,0.19864690375552974
0.1940840796420706,0.1940840796420706
0.15301866262093855,0.15301866262093855
0.10100246772750458,0.10100246772750458
0.06449987481983163,0.06449987481983163
0.030734976380234147,0.030734976380234147
-0.017630959222432515,-0.017630959222432515
-0.06234663553433188,-0.06234663553433188
-0.0860733209243193,-0.0860733209243193
-0.10888744149161489,-0.10888744149161489
-0.14173977510852054,-0.14173977510852054
-0.15542824744889788,-0.15542824744889788
-0.1326141268816023,-0.1326141268816023
-0.10888744149161489,-0.10888744149161489
-0.11801308971853312,-0.11801308971853312
-0.1326141268816023,-0.1326141268816023
-0.11527539525045766,-0.11527539525045766
-0.0860733209243193,-0.0860733209243193
-0.08516075610162747,-0.08516075610162747
-0.10888744149161489,-0.10888744149161489
-0.1280513027681432,-0.1280513027681432
-0.1326141268816023,-0.1326141268816023
-0.1408272102858287,-0.1408272102858287
-0.15542824744889788,-0.15542824744889788
-0.17002928461196706,-0.17002928461196706
-0.1791549328388853,-0.1791549328388853
-0.19284340517926268,-0.19284340517926268
-0.2019690534061809,-0.2019690534061809
-0.19923135893810545,-0.19923135893810545
-0.1791549328388853,-0.1791549328388853
-0.16181620120774065,-0.16181620120774065
-0.15542824744889788,-0.15542824744889788
-0.159991071562357,-0.159991071562357
-0.15542824744889788,-0.15542824744889788
-0.14721516404467147,-0.14721516404467147
-0.1326141268816023,-0.1326141268816023
-0.1015869229100803,-0.1015869229100803
-0.015805829577048867,-0.015805829577048867
0.12929197723095112,0.12929197723095112
0.3099798121239322,0.3099798121239322
0.5034435545345989,0.5034435545345989
0.7288470657394793,0.7288470657394793
0.9989662532562592,0.9989662532562592
1.2882493020495673,1.2882493020495673
1.5811826101336428,1.5811826101336428
1.8932797794942464,1.8932797794942464
2.2135900322590767,2.2135900322590767
2.47549613637163,2.47549613637163
2.657096536087303,2.657096536087303
2.801281778072611,2.801281778072611
2.9281282884267745,2.9281282884267745
2.9874450019017433,2.9874450019017433
3.0056962983555797,3.0056962983555797
3.080526613816309,3.080526613816309
3.2046354297023973,3.2046354297023973
3.197334911120863,3.197334911120863
2.9682811406252148,2.9682811406252148
2.6388452396334667,2.6388452396334667
2.326748070272863,2.326748070272863
1.963547270841517,1.963547270841517
1.4963140816233031,1.4963140816233031
1.0555452722631522,1.0555452722631522
0.7507486214840831,0.7507486214840831
0.47332891538576866,0.47332891538576866
0.08822656020981905,0.08822656020981905
-0.3187773507107344,-0.3187773507107344
-0.5779457603552124,-0.5779457603552124
-0.6911037983689985,-0.6911037983689985
-0.7814477158154891,-0.7814477158154891
-0.8772670221981306,-0.8772670221981306
-0.9274580874461809,-0.9274580874461809
-0.9238078281554136,-0.9238078281554136
-0.9210701336873381,-0.9210701336873381
-0.9238078281554136,-0.9238078281554136
-0.9146821799284953,-0.9146821799284953
-0.900993707588118,-0.900993707588118
-0.9110319206377281,-0.9110319206377281
-0.9238078281554136,-0.9238078281554136
-0.9101193558150362,-0.9101193558150362
-0.8772670221981306,-0.8772670221981306
-0.8781795870208224,-0.8781795870208224
-0.9238078281554136,-0.9238078281554136
-0.9648732451765456,-0.9648732451765456
-0.947534513545401,-0.947534513545401
-0.8927806241838916,-0.8927806241838916
-0.8772670221981306,-0.8772670221981306
-0.9174198743965708,-0.9174198743965708
-0.947534513545401,-0.947534513545401
-0.9128570502831117,-0.9128570502831117
-0.854452901630835,-0.854452901630835
-0.8206880031912375,-0.8206880031912375
-0.8079120956735519,-0.8079120956735519
-0.7887482343970237,-0.7887482343970237
-0.7841854102835646,-0.7841854102835646
-0.8033492715600928,-0.8033492715600928
-0.8079120956735519,-0.8079120956735519
-0.7686718082978036,-0.7686718082978036
-0.7376446043262815,-0.7376446043262815
-0.7531582063120426,-0.7531582063120426
-0.7841854102835646,-0.7841854102835646
-0.7805351509927972,-0.7805351509927972
-0.761371289716269,-0.761371289716269
-0.7449451229078161,-0.7449451229078161
-0.714830483758986,-0.714830483758986
-0.6619017240428602,-0.6619017240428602
-0.6445629924117156,-0.6445629924117156
-0.6765027612059293,-0.6765027612059293
-0.6911037983689985,-0.6911037983689985
-0.6308745200713382,-0.6308745200713382
-0.5514813804971495,-0.5514813804971495
-0.5168039172348602,-0.5168039172348602
-0.5049405745398665,-0.5049405745398665
-0.45657463893719974,-0.45657463893719974
-0.38813227723531296,-0.38813227723531296
-0.34889198985956454,-0.34889198985956454
-0.34159147127802997,-0.34159147127802997
-0.3196899155334262,-0.3196899155334262
-0.2722365447534513,-0.2722365447534513
-0.22660830361886014,-0.22660830361886014
-0.2019690534061809,-0.2019690534061809
-0.18645545142041992,-0.18645545142041992
-0.1791549328388853,-0.1791549328388853
-0.1901057107111872,-0.1901057107111872
-0.22569573879616833,-0.22569573879616833
-0.2539852482996149,-0.2539852482996149
-0.24850985936346393,-0.24850985936346393
-0.22204547950540104,-0.22204547950540104
-0.22569573879616833,-0.22569573879616833
-0.2731491095761432,-0.2731491095761432
-0.3187773507107344,-0.3187773507107344
-0.30600144319304884,-0.30600144319304884
-0.24850985936346393,-0.24850985936346393
-0.20744444234233186,-0.20744444234233186
-0.22569573879616833,-0.22569573879616833
-0.2859250170938287,-0.2859250170938287
-0.34159147127802997,-0.34159147127802997
-0.35254224915033183,-0.35254224915033183
-0.3187773507107344,-0.3187773507107344
-0.2767993688669105,-0.2767993688669105
-0.2722365447534513,-0.2722365447534513
-0.3005260542568979,-0.3005260542568979
-0.3187773507107344,-0.3187773507107344
-0.3014386190795897,-0.3014386190795897
-0.2722365447534513,-0.2722365447534513
-0.2512475538315394,-0.2512475538315394
-0.22569573879616833,-0.22569573879616833
-0.1782423680161935,-0.1782423680161935
-0.1326141268816023,-0.1326141268816023
-0.10432461737815578,-0.10432461737815578
-0.0860733209243193,-0.0860733209243193
-0.06417176517971553,-0.06417176517971553
-0.06234663553433188,-0.06234663553433188
-0.08789845056970295,-0.08789845056970295
-0.10888744149161489,-0.10888744149161489
-0.09976179326469665,-0.09976179326469665
-0.0860733209243193,-0.0860733209243193
-0.09154870986047024,-0.09154870986047024
-0.10888744149161489,-0.10888744149161489
-0.12257591383199223,-0.12257591383199223
-0.15542824744889788,-0.15542824744889788
-0.21657009056925008,-0.21657009056925008
-0.2722365447534513,-0.2722365447534513
-0.289575276384596,-0.289575276384596
-0.2950506653207469,-0.2950506653207469
-0.3178647858880425,-0.3178647858880425
-0.34159147127802997,-0.34159147127802997
-0.3370286471645708,-0.3370286471645708
-0.3187773507107344,-0.3187773507107344
-0.3187773507107344,-0.3187773507107344
-0.34159147127802997,-0.34159147127802997
-0.3607553325545583,-0.3607553325545583
-0.36531815666801737,-0.36531815666801737
-0.3589302029091746,-0.3589302029091746
-0.34159147127802997,-0.34159147127802997
-0.3142145265972752,-0.3142145265972752
-0.2950506653207469,-0.2950506653207469
-0.30600144319304884,-0.30600144319304884
-0.34159147127802997,-0.34159147127802997
-0.37626893454031923,-0.37626893454031923
-0.38813227723531296,-0.38813227723531296
-0.38721971241262115,-0.38721971241262115
-0.38813227723531296,-0.38813227723531296
-0.39543279581684754,-0.39543279581684754
-0.38813227723531296,-0.38813227723531296
-0.36531815666801737,-0.36531815666801737
-0.34159147127802997,-0.34159147127802997
-0.34524173056879726,-0.34524173056879726
-0.36531815666801737,-0.36531815666801737
-0.3853945827672375,-0.3853945827672375
-0.38813227723531296,-0.38813227723531296
-0.37626893454031923,-0.37626893454031923
-0.34159147127802997,-0.34159147127802997
-0.2977883597888224,-0.2977883597888224
-0.24850985936346393,-0.24850985936346393
-0.18371775695234444,-0.18371775695234444
-0.06234663553433188,-0.06234663553433188
0.12016632900403289,0.12016632900403289
0.3337064975139197,0.3337064975139197
0.5527220549599573,0.5527220549599573
0.7991145570867497,0.7991145570867497
1.082922216943907,1.082922216943907
1.3813309139641332,1.3813309139641332
1.683389870275127,1.683389870275127
2.0100880767988,2.0100880767988
2.3532124501309255,2.3532124501309255
2.6388452396334667,2.6388452396334667
2.8158828152356805,2.8158828152356805
2.918090075377165,2.918090075377165
3.0175596410505734,3.0175596410505734
3.127067419773592,3.127067419773592
3.2256244206243094,3.2256244206243094
3.2904165230354288,3.2904165230354288
3.300454736085039,3.300454736085039
3.197334911120863,3.197334911120863
2.957330362752913,2.957330362752913
2.615118554243479,2.615118554243479
2.2309287638902213,2.2309287638902213
1.8239248529696679,1.8239248529696679
1.414183247581039,1.414183247581039
1.0318185868731649,1.0318185868731649
0.6667926577964353,0.6667926577964353
0.2634390061666492,0.2634390061666492
-0.17550467354811802,-0.17550467354811802
-0.5514813804971495,-0.5514813804971495
-0.7823602806381809,-0.7823602806381809
-0.900993707588118,-0.900993707588118
-0.9913376250346085,-0.9913376250346085
-1.0634302460272627,-1.0634302460272627
-1.0862443665945583,-1.0862443665945583
-1.0634302460272627,-1.0634302460272627
-1.0497417736868853,-1.0497417736868853
-1.0634302460272627,-1.0634302460272627
-1.0789438480130236,-1.0789438480130236
-1.0634302460272627,-1.0634302460272627
-1.035140736523816,-1.035140736523816
-1.0168894400699795,-1.0168894400699795
-1.019627134538055,-1.019627134538055
-1.0168894400699795,-1.0168894400699795
-1.004113532552294,-1.004113532552294
-0.994075319502684,-0.994075319502684
-0.9949878843253759,-0.9949878843253759
-0.994075319502684,-0.994075319502684
-0.9803868471623066,-0.9803868471623066
-0.9703486341126966,-0.9703486341126966
-0.9721737637580803,-0.9721737637580803
-0.9703486341126966,-0.9703486341126966
-0.9539224673042438,-0.9539224673042438
-0.947534513545401,-0.947534513545401
-0.9612229858857784,-0.9612229858857784
-0.9703486341126966,-0.9703486341126966
-0.9502722080134764,-0.9502722080134764
-0.9238078281554136,-0.9238078281554136
-0.9110319206377281,-0.9110319206377281
-0.900993707588118,-0.900993707588118
-0.8736167629073632,-0.8736167629073632
-0.854452901630835,-0.854452901630835
-0.8535403368081431,-0.8535403368081431
-0.854452901630835,-0.854452901630835
-0.8380267348223821,-0.8380267348223821
-0.8307262162408475,-0.8307262162408475
-0.8343764755316149,-0.8343764755316149
-0.8079120956735519,-0.8079120956735519
-0.7285189560993632,-0.7285189560993632
-0.6445629924117156,-0.6445629924117156
-0.5925467975182815,-0.5925467975182815
-0.5514813804971495,-0.5514813804971495
-0.4949023614902564,-0.4949023614902564
-0.4583997685825834,-0.4583997685825834
-0.4647877223414262,-0.4647877223414262
-0.48121388914987906,-0.48121388914987906
-0.46935054645488533,-0.46935054645488533
-0.4583997685825834,-0.4583997685825834
-0.4730008057456526,-0.4730008057456526
-0.48121388914987906,-0.48121388914987906
-0.4282851294337532,-0.4282851294337532
-0.34159147127802997,-0.34159147127802997
-0.2950506653207469,-0.2950506653207469
-0.3187773507107344,-0.3187773507107344
-0.35254224915033183,-0.35254224915033183
-0.34159147127802997,-0.34159147127802997
-0.2950506653207469,-0.2950506653207469
-0.2722365447534513,-0.2722365447534513
-0.28409988744844505,-0.28409988744844505
-0.2950506653207469,-0.2950506653207469
-0.28044962815767777,-0.28044962815767777
-0.2722365447534513,-0.2722365447534513
-0.2932255356753633,-0.2932255356753633
-0.3187773507107344,-0.3187773507107344
-0.3196899155334262,-0.3196899155334262
-0.3187773507107344,-0.3187773507107344
-0.3406789064553381,-0.3406789064553381
-0.36531815666801737,-0.36531815666801737
-0.3607553325545583,-0.3607553325545583
-0.34159147127802997,-0.34159147127802997
-0.3397663416326463,-0.3397663416326463
-0.34159147127802997,-0.34159147127802997
-0.3315532582284199,-0.3315532582284199
-0.3187773507107344,-0.3187773507107344
-0.32790299893765257,-0.32790299893765257
-0.34159147127802997,-0.34159147127802997
-0.34615429539148906,-0.34615429539148906
-0.34159147127802997,-0.34159147127802997
-0.3406789064553381,-0.3406789064553381
-0.3187773507107344,-0.3187773507107344
-0.26219833170384127,-0.26219833170384127
-0.1791549328388853,-0.1791549328388853
-0.08059793198816836,-0.08059793198816836
0.05354909694752974,0.05354909694752974
0.23697462630858634,0.23697462630858634
0.44960222999578126,0.44960222999578126
0.6640549633283598,0.6640549633283598
0.8921961690013158,0.8921961690013158
1.1632279213407875,1.1632279213407875
1.4744125258786993,1.4744125258786993
1.797460473111605,1.797460473111605
2.1031696887133657,2.1031696887133657
2.3878899133932148,2.3878899133932148
2.6388452396334667,2.6388452396334667
2.827746157930674,2.827746157930674
2.918090075377165,2.918090075377165
2.907139297504863,2.907139297504863
2.8250084634625985,2.8250084634625985
2.723713768143806,2.723713768143806
2.615118554243479,2.615118554243479
2.46545792332202,2.46545792332202
2.2190654211952276,2.2190654211952276
1.8832415664446365,1.8832415664446365
1.5209533318359825,1.5209533318359825
1.2061184680073032,1.2061184680073032
0.9387369749585988,0.9387369749585988
0.6585795743922088,0.6585795743922088
0.3099798121239322,0.3099798121239322
-0.08059793198816836,-0.08059793198816836
-0.43467308319259595,-0.43467308319259595
-0.6920163631916904,-0.6920163631916904
-0.854452901630835,-0.854452901630835
-0.9493596431907847,-0.9493596431907847
-0.994075319502684,-0.994075319502684
-1.0068512270203696,-1.0068512270203696
-1.0168894400699795,-1.0168894400699795
-1.0433538199280425,-1.0433538199280425
-1.0634302460272627,-1.0634302460272627
-1.0606925515591872,-1.0606925515591872
-1.040616125459967,-1.040616125459967
-1.0278402179422814,-1.0278402179422814
-1.0168894400699795,-1.0168894400699795
-1.0032009677296023,-1.0032009677296023
-0.994075319502684,-0.994075319502684
-0.9959004491480676,-0.9959004491480676
-0.994075319502684,-0.994075319502684
-0.9794742823396149,-0.9794742823396149
-0.9703486341126966,-0.9703486341126966
-0.9812994119849985,-0.9812994119849985
-0.994075319502684,-0.994075319502684
-0.9858622360984576,-0.9858622360984576
-0.9703486341126966,-0.9703486341126966
-0.9584852914177029,-0.9584852914177029
-0.947534513545401,-0.947534513545401
-0.9292832170915645,-0.9292832170915645
-0.9238078281554136,-0.9238078281554136
-0.9311083467369482,-0.9311083467369482
-0.9238078281554136,-0.9238078281554136
-0.8873052352477406,-0.8873052352477406
-0.854452901630835,-0.854452901630835
-0.8498900775173759,-0.8498900775173759
-0.854452901630835,-0.854452901630835
-0.8298136514181558,-0.8298136514181558
-0.7841854102835646,-0.7841854102835646
-0.7431199932624325,-0.7431199932624325
-0.714830483758986,-0.714830483758986
-0.6810655853193884,-0.6810655853193884
-0.6445629924117156,-0.6445629924117156
-0.6025850105678916,-0.6025850105678916
-0.5514813804971495,-0.5514813804971495
-0.48851440773141364,-0.48851440773141364
-0.43467308319259595,-0.43467308319259595
-0.398170490284923,-0.398170490284923
-0.36531815666801737,-0.36531815666801737
-0.31147683212919974,-0.31147683212919974
-0.24850985936346393,-0.24850985936346393
-0.20014392376079726,-0.20014392376079726
-0.1791549328388853,-0.1791549328388853
-0.17367954390273438,-0.17367954390273438
-0.1791549328388853,-0.1791549328388853
-0.19466853482464633,-0.19466853482464633
-0.22569573879616833,-0.22569573879616833
-0.2539852482996149,-0.2539852482996149
-0.2722365447534513,-0.2722365447534513
-0.2859250170938287,-0.2859250170938287
-0.3187773507107344,-0.3187773507107344
-0.3616678973772501,-0.3616678973772501
-0.38813227723531296,-0.38813227723531296
-0.38813227723531296,-0.38813227723531296
-0.38813227723531296,-0.38813227723531296
-0.40273331439838217,-0.40273331439838217
-0.41185896262530036,-0.41185896262530036
-0.398170490284923,-0.398170490284923
-0.38813227723531296,-0.38813227723531296
-0.4054710088664576,-0.4054710088664576
-0.43467308319259595,-0.43467308319259595
-0.4428861665968224,-0.4428861665968224
-0.43467308319259595,-0.43467308319259595
-0.43102282390182867,-0.43102282390182867
-0.43467308319259595,-0.43467308319259595
-0.4355856480152878,-0.4355856480152878
-0.43467308319259595,-0.43467308319259595
-0.4364982128379796,-0.4364982128379796
-0.43467308319259595,-0.43467308319259595
-0.43011025907913686,-0.43011025907913686
-0.43467308319259595,-0.43467308319259595
-0.444711296242206,-0.444711296242206
-0.43467308319259595,-0.43467308319259595
-0.403645879221074,-0.403645879221074
-0.38813227723531296,-0.38813227723531296
-0.40912126815722494,-0.40912126815722494
-0.43467308319259595,-0.43467308319259595
-0.4246348701429859,-0.4246348701429859
-0.38813227723531296,-0.38813227723531296
-0.36440559184532556,-0.36440559184532556
-0.36531815666801737,-0.36531815666801737
-0.3625804621999419,-0.3625804621999419
-0.34159147127802997,-0.34159147127802997
-0.3178647858880425,-0.3178647858880425
-0.3187773507107344,-0.3187773507107344
-0.3352035175191872,-0.3352035175191872
-0.34159147127802997,-0.34159147127802997
-0.32790299893765257,-0.32790299893765257
-0.3187773507107344,-0.3187773507107344
-0.3215150451788098,-0.3215150451788098
-0.3187773507107344,-0.3187773507107344
-0.3014386190795897,-0.3014386190795897
-0.2950506653207469,-0.2950506653207469
-0.31056426730650794,-0.31056426730650794
-0.3187773507107344,-0.3187773507107344
-0.2959632301434388,-0.2959632301434388
-0.2722365447534513,-0.2722365447534513
-0.2758868040442186,-0.2758868040442186
-0.2950506653207469,-0.2950506653207469
-0.29961348943420607,-0.29961348943420607
-0.2950506653207469,-0.2950506653207469
-0.2968757949661306,-0.2968757949661306
-0.2950506653207469,-0.2950506653207469
-0.27953706333498596,-0.27953706333498596
-0.2722365447534513,-0.2722365447534513
-0.28501245227113686,-0.28501245227113686
-0.2950506653207469,-0.2950506653207469
-0.28318732262575325,-0.28318732262575325
-0.2722365447534513,-0.2722365447534513
-0.2749742392215268,-0.2749742392215268
-0.2722365447534513,-0.2722365447534513
-0.24577216489538845,-0.24577216489538845
-0.22569573879616833,-0.22569573879616833
-0.22934599808693562,-0.22934599808693562
-0.22569573879616833,-0.22569573879616833
-0.18371775695234444,-0.18371775695234444
-0.1326141268816023,-0.1326141268816023
-0.10341205255546396,-0.10341205255546396
-0.0860733209243193,-0.0860733209243193
-0.05230842248472182,-0.05230842248472182
-0.015805829577048867,-0.015805829577048867
0.008833420635630375,0.008833420635630375
0.030734976380234147,0.030734976380234147
0.057199356238297035,0.057199356238297035
0.05354909694752974,0.05354909694752974
0.009745985458322198,0.009745985458322198
-0.03953251496703629,-0.03953251496703629
-0.05504611695279729,-0.05504611695279729
-0.06234663553433188,-0.06234663553433188
-0.09154870986047024,-0.09154870986047024
-0.1326141268816023,-0.1326141268816023
-0.15725337709428155,-0.15725337709428155
-0.1791549328388853,-0.1791549328388853
-0.22022034986001737,-0.22022034986001737
-0.2722365447534513,-0.2722365447534513
-0.2977883597888224,-0.2977883597888224
-0.2950506653207469,-0.2950506653207469
-0.2950506653207469,-0.2950506653207469
-0.3187773507107344,-0.3187773507107344
-0.3434166009234136,-0.3434166009234136
-0.34159147127802997,-0.34159147127802997
-0.32242761000150166,-0.32242761000150166
-0.3187773507107344,-0.3187773507107344
-0.32881556376034443,-0.32881556376034443
-0.3187773507107344,-0.3187773507107344
-0.2786244985122941,-0.2786244985122941
-0.24850985936346393,-0.24850985936346393
-0.2631108965265331,-0.2631108965265331
-0.2950506653207469,-0.2950506653207469
-0.3123893969518916,-0.3123893969518916
-0.3187773507107344,-0.3187773507107344
-0.33429095269649534,-0.33429095269649534
-0.34159147127802997,-0.34159147127802997
-0.33064069340572805,-0.33064069340572805
-0.3187773507107344,-0.3187773507107344
-0.33064069340572805,-0.33064069340572805
-0.34159147127802997,-0.34159147127802997
-0.3352035175191872,-0.3352035175191872
-0.3187773507107344,-0.3187773507107344
-0.3133019617745834,-0.3133019617745834
-0.2950506653207469,-0.2950506653207469
-0.24942242418615573,-0.24942242418615573
-0.1791549328388853,-0.1791549328388853
-0.08881101539239478,-0.08881101539239478
0.05354909694752974,0.05354909694752974
0.2552259227624228,0.2552259227624228
0.47332891538576866,0.47332891538576866
0.6658800929737435,0.6658800929737435
0.8693820484340202,0.8693820484340202
1.1513645786457938,1.1513645786457938
1.5209533318359825,1.5209533318359825
1.8987551684303974,1.8987551684303974
2.196251300627932,2.196251300627932
2.4116165987832026,2.4116165987832026
2.5923044336761834,2.5923044336761834
2.7437901942430263,2.7437901942430263
2.8250084634625985,2.8250084634625985
2.8615110563702717,2.8615110563702717
2.9409041959444604,2.9409041959444604
3.072313530412083,3.072313530412083
3.127067419773592,3.127067419773592
3.0257727244547996,3.0257727244547996
2.8250084634625985,2.8250084634625985
2.595042128144259,2.595042128144259
2.289332912542498,2.289332912542498
1.8640777051681081,1.8640777051681081
1.404145034531429,1.404145034531429
1.026343197937014,1.026343197937014
0.7060329451721837,0.7060329451721837
0.3510452291450643,0.3510452291450643
-0.03953251496703629,-0.03953251496703629
-0.3799191938310866,-0.3799191938310866
-0.6208363070217281,-0.6208363070217281
-0.7805351509927972,-0.7805351509927972
-0.8772670221981306,-0.8772670221981306
-0.9256329578007972,-0.9256329578007972
-0.947534513545401,-0.947534513545401
-0.9657858099992375,-0.9657858099992375
-0.9703486341126966,-0.9703486341126966
-0.9657858099992375,-0.9657858099992375
-0.9703486341126966,-0.9703486341126966
-0.9922501898573004,-0.9922501898573004
-0.994075319502684,-0.994075319502684
-0.9621355507084702,-0.9621355507084702
-0.9238078281554136,-0.9238078281554136
-0.9155947447511872,-0.9155947447511872
-0.9238078281554136,-0.9238078281554136
-0.9256329578007972,-0.9256329578007972
-0.9238078281554136,-0.9238078281554136
-0.9283706522688727,-0.9283706522688727
-0.9238078281554136,-0.9238078281554136
-0.8991685779427343,-0.8991685779427343
-0.8772670221981306,-0.8772670221981306
-0.8745293277300551,-0.8745293277300551
-0.8772670221981306,-0.8772670221981306
-0.8654036795031369,-0.8654036795031369
-0.854452901630835,-0.854452901630835
-0.854452901630835,-0.854452901630835
-0.854452901630835,-0.854452901630835
-0.8316387810635394,-0.8316387810635394
-0.8079120956735519,-0.8079120956735519
-0.8015241419147092,-0.8015241419147092
-0.8079120956735519,-0.8079120956735519
-0.7996990122693255,-0.7996990122693255
-0.7841854102835646,-0.7841854102835646
-0.771409502765879,-0.771409502765879
-0.761371289716269,-0.761371289716269
-0.7449451229078161,-0.7449451229078161
-0.7376446043262815,-0.7376446043262815
-0.740382298794357,-0.740382298794357
-0.7376446043262815,-0.7376446043262815
-0.7157430485816778,-0.7157430485816778
-0.6911037983689985,-0.6911037983689985
-0.6774153260286212,-0.6774153260286212
-0.6673771129790111,-0.6673771129790111
-0.6454755572344073,-0.6454755572344073
-0.6208363070217281,-0.6208363070217281
-0.600759880922508,-0.600759880922508
-0.574295501064445,-0.574295501064445
-0.5295798247525457,-0.5295798247525457
-0.48121388914987906,-0.48121388914987906
-0.4428861665968224,-0.4428861665968224
-0.41185896262530036,-0.41185896262530036
-0.3753563697176274,-0.3753563697176274
-0.34159147127802997,-0.34159147127802997
-0.3178647858880425,-0.3178647858880425
-0.2950506653207469,-0.2950506653207469
-0.26037320205845765,-0.26037320205845765
-0.22569573879616833,-0.22569573879616833
-0.21200726645579096,-0.21200726645579096
-0.22569573879616833,-0.22569573879616833
-0.23664651666847022,-0.23664651666847022
-0.22569573879616833,-0.22569573879616833
-0.20288161822887274,-0.20288161822887274
-0.2019690534061809,-0.2019690534061809
-0.2211329146827092,-0.2211329146827092
-0.22569573879616833,-0.22569573879616833
-0.2010564885834891,-0.2010564885834891
-0.1791549328388853,-0.1791549328388853
-0.1782423680161935,-0.1782423680161935
-0.1791549328388853,-0.1791549328388853
-0.16911671978927525,-0.16911671978927525
-0.1791549328388853,-0.1791549328388853
-0.21200726645579096,-0.21200726645579096
-0.22569573879616833,-0.22569573879616833
-0.19831879411541362,-0.19831879411541362
-0.1791549328388853,-0.1791549328388853
-0.2010564885834891,-0.2010564885834891
-0.22569573879616833,-0.22569573879616833
-0.20835700716502367,-0.20835700716502367
-0.1791549328388853,-0.1791549328388853
-0.1709418494346589,-0.1709418494346589
-0.15542824744889788,-0.15542824744889788
-0.09976179326469665,-0.09976179326469665
-0.03953251496703629,-0.03953251496703629
-0.017630959222432515,-0.017630959222432515
-0.015805829577048867,-0.015805829577048867
0.011571115103705846,0.011571115103705846
0.05354909694752974,0.05354909694752974
0.07636321751482533,0.07636321751482533
0.07727578233751715,0.07727578233751715
0.07271295822405804,0.07271295822405804
0.05354909694752974,0.05354909694752974
0.015221374394473141,0.015221374394473141
-0.015805829577048867,-0.015805829577048867
-0.010330440640897925,-0.010330440640897925
0.007008290990246727,0.007008290990246727
-0.0066801813501306305,-0.0066801813501306305
-0.06234663553433188,-0.06234663553433188
-0.12166334900930041,-0.12166334900930041
-0.15542824744889788,-0.15542824744889788
-0.18098006248426896,-0.18098006248426896
-0.22569573879616833,-0.22569573879616833
-0.2704114151080677,-0.2704114151080677
-0.2722365447534513,-0.2722365447534513
-0.2357339518457784,-0.2357339518457784
-0.22569573879616833,-0.22569573879616833
-0.2631108965265331,-0.2631108965265331
-0.2950506653207469,-0.2950506653207469
-0.2786244985122941,-0.2786244985122941
-0.24850985936346393,-0.24850985936346393
-0.2402967759592375,-0.2402967759592375
-0.22569573879616833,-0.22569573879616833
-0.18828058106580356,-0.18828058106580356
-0.1791549328388853,-0.1791549328388853
-0.22660830361886014,-0.22660830361886014
-0.2722365447534513,-0.2722365447534513
-0.26493602617191675,-0.26493602617191675
-0.24850985936346393,-0.24850985936346393
-0.27953706333498596,-0.27953706333498596
-0.3187773507107344,-0.3187773507107344
-0.3160396562426589,-0.3160396562426589
-0.2950506653207469,-0.2950506653207469
-0.30600144319304884,-0.30600144319304884
-0.3187773507107344,-0.3187773507107344
-0.3005260542568979,-0.3005260542568979
-0.2722365447534513,-0.2722365447534513
-0.28044962815767777,-0.28044962815767777
-0.2950506653207469,-0.2950506653207469
-0.2758868040442186,-0.2758868040442186
-0.22569573879616833,-0.22569573879616833
-0.17732980319350167,-0.17732980319350167
-0.10888744149161489,-0.10888744149161489
0.0006203372314039601,0.0006203372314039601
0.1475432736847876,0.1475432736847876
0.32549341410969324,0.32549341410969324
0.5664105273003347,0.5664105273003347
0.8593438353844101,0.8593438353844101
1.1486268841777183,1.1486268841777183
1.425134025453341,1.425134025453341
1.7536573616223974,1.7536573616223974
2.128721503748737,2.128721503748737
2.428955330414347,2.428955330414347
2.6069054708392527,2.6069054708392527
2.754740972115328,2.754740972115328
2.9290408532494663,2.9290408532494663
3.0339858078590263,3.0339858078590263
3.03581093750441,3.03581093750441
3.0577124932490136,3.0577124932490136
3.169957966440108,3.169957966440108
3.2210615965108502,3.2210615965108502
3.0796140489936175,3.0796140489936175
2.8250084634625985,2.8250084634625985
2.5612772297046615,2.5612772297046615
2.2190654211952276,2.2190654211952276
1.7472694078635547,1.7472694078635547
1.2882493020495673,1.2882493020495673
0.9761521326889635,0.9761521326889635
0.7060329451721837,0.7060329451721837
0.31728033070546685,0.31728033070546685
-0.1326141268816023,-0.1326141268816023
-0.465700287164118,-0.465700287164118
-0.6445629924117156,-0.6445629924117156
-0.7741471972339545,-0.7741471972339545
-0.900993707588118,-0.900993707588118
-0.9822119768076903,-0.9822119768076903
-0.994075319502684,-0.994075319502684
-0.9858622360984576,-0.9858622360984576
-0.994075319502684,-0.994075319502684
-1.0141517456019042,-1.0141517456019042
-1.0168894400699795,-1.0168894400699795
-0.999550708438835,-0.999550708438835
-0.9703486341126966,-0.9703486341126966
-0.9511847728361683,-0.9511847728361683
-0.947534513545401,-0.947534513545401
-0.9648732451765456,-0.9648732451765456
-0.994075319502684,-0.994075319502684
-1.019627134538055,-1.019627134538055
-1.0168894400699795,-1.0168894400699795
-0.9776491526942311,-0.9776491526942311
-0.9238078281554136,-0.9238078281554136
-0.8936931890065833,-0.8936931890065833
-0.900993707588118,-0.900993707588118
-0.9201575688646463,-0.9201575688646463
-0.9238078281554136,-0.9238078281554136
-0.9046439668788853,-0.9046439668788853
-0.8772670221981306,-0.8772670221981306
-0.8444146885812249,-0.8444146885812249
-0.8079120956735519,-0.8079120956735519
-0.7777974565247218,-0.7777974565247218
-0.7841854102835646,-0.7841854102835646
-0.8170377439004702,-0.8170377439004702
-0.8307262162408475,-0.8307262162408475
-0.7933110585104828,-0.7933110585104828
-0.7376446043262815,-0.7376446043262815
-0.7084425300001431,-0.7084425300001431
-0.714830483758986,-0.714830483758986
-0.7221310023405205,-0.7221310023405205
-0.714830483758986,-0.714830483758986
-0.6920163631916904,-0.6920163631916904
-0.6673771129790111,-0.6673771129790111
-0.6436504275890237,-0.6436504275890237
-0.6208363070217281,-0.6208363070217281
-0.5934593623409734,-0.5934593623409734
-0.5514813804971495,-0.5514813804971495
-0.4912521021994891,-0.4912521021994891
-0.43467308319259595,-0.43467308319259595
-0.4009081847529985,-0.4009081847529985
-0.38813227723531296,-0.38813227723531296
-0.36714328631340104,-0.36714328631340104
-0.3187773507107344,-0.3187773507107344
-0.2521601186542312,-0.2521601186542312
-0.2019690534061809,-0.2019690534061809
-0.1818926273069608,-0.1818926273069608
-0.1791549328388853,-0.1791549328388853
-0.16820415496658342,-0.16820415496658342
-0.15542824744889788,-0.15542824744889788
-0.17002928461196706,-0.17002928461196706
-0.22569573879616833,-0.22569573879616833
-0.2749742392215268,-0.2749742392215268
-0.2722365447534513,-0.2722365447534513
-0.23117112773231926,-0.23117112773231926
-0.22569573879616833,-0.22569573879616833
-0.2731491095761432,-0.2731491095761432
-0.3187773507107344,-0.3187773507107344
-0.3196899155334262,-0.3196899155334262
-0.3187773507107344,-0.3187773507107344
-0.3470668602141809,-0.3470668602141809
-0.36531815666801737,-0.36531815666801737
-0.33429095269649534,-0.33429095269649534
-0.2950506653207469,-0.2950506653207469
-0.2959632301434388,-0.2959632301434388
-0.3187773507107344,-0.3187773507107344
-0.32790299893765257,-0.32790299893765257
-0.34159147127802997,-0.34159147127802997
-0.37626893454031923,-0.37626893454031923
-0.38813227723531296,-0.38813227723531296
-0.3406789064553381,-0.3406789064553381
-0.2722365447534513,-0.2722365447534513
-0.2357339518457784,-0.2357339518457784
-0.22569573879616833,-0.22569573879616833
-0.20379418305156455,-0.20379418305156455
-0.1791549328388853,-0.1791549328388853
-0.16911671978927525,-0.16911671978927525
-0.15542824744889788,-0.15542824744889788
-0.10614974702353942,-0.10614974702353942
-0.03953251496703629,-0.03953251496703629
-0.003029922059363335,-0.003029922059363335
-0.015805829577048867,-0.015805829577048867
-0.05230842248472182,-0.05230842248472182
-0.0860733209243193,-0.0860733209243193
-0.10341205255546396,-0.10341205255546396
-0.10888744149161489,-0.10888744149161489
-0.11345026560507401,-0.11345026560507401
-0.1326141268816023,-0.1326141268816023
-0.16546646049850797,-0.16546646049850797
-0.2019690534061809,-0.2019690534061809
-0.2284334332642438,-0.2284334332642438
-0.24850985936346393,-0.24850985936346393
-0.2713239799307595,-0.2713239799307595
-0.2950506653207469,-0.2950506653207469
-0.30417631354766517,-0.30417631354766517
-0.2950506653207469,-0.2950506653207469
-0.28409988744844505,-0.28409988744844505
-0.2950506653207469,-0.2950506653207469
-0.3169522210653507,-0.3169522210653507
-0.3187773507107344,-0.3187773507107344
-0.2932255356753633,-0.2932255356753633
-0.2722365447534513,-0.2722365447534513
-0.26493602617191675,-0.26493602617191675
-0.24850985936346393,-0.24850985936346393
-0.22295804432809285,-0.22295804432809285
-0.22569573879616833,-0.22569573879616833
-0.2594606372357658,-0.2594606372357658
-0.2722365447534513,-0.2722365447534513
-0.24212190560462116,-0.24212190560462116
-0.22569573879616833,-0.22569573879616833
-0.26037320205845765,-0.26037320205845765
-0.2950506653207469,-0.2950506653207469
-0.28866271156190415,-0.28866271156190415
-0.2722365447534513,-0.2722365447534513
-0.28866271156190415,-0.28866271156190415
-0.2950506653207469,-0.2950506653207469
-0.26037320205845765,-0.26037320205845765
-0.22569573879616833,-0.22569573879616833
-0.23847164631385387,-0.23847164631385387
-0.24850985936346393,-0.24850985936346393
-0.20744444234233186,-0.20744444234233186
-0.1326141268816023,-0.1326141268816023
-0.05960894106625641,-0.05960894106625641
0.05354909694752974,0.05354909694752974
0.23879975595397,0.23879975595397
0.44960222999578126,0.44960222999578126
0.6385031482929887,0.6385031482929887
0.8456553630440328,0.8456553630440328
1.1175996802061963,1.1175996802061963
1.4278717199214164,1.4278717199214164
1.735406065168561,1.735406065168561
2.056628882756083,2.056628882756083
2.397015561620133,2.397015561620133
2.6853860455907497,2.6853860455907497
2.868811574951806,2.868811574951806
2.9874450019017433,2.9874450019017433
3.102428169560913,3.102428169560913
3.197334911120863,3.197334911120863
3.2703400969362084,3.2703400969362084
3.360684014382699,3.360684014382699
3.450115367006498,3.450115367006498
3.407224820339982,3.407224820339982
3.148968975518196,3.148968975518196
2.754740972115328,2.754740972115328
2.346824496372083,2.346824496372083
1.9398205854515296,1.9398205854515296
1.5200407670132905,1.5200407670132905
1.1249001987877307,1.1249001987877307
0.782688390278297,0.782688390278297
0.42678810942848566,0.42678810942848566
0.00792085581293855,0.00792085581293855
-0.38813227723531296,-0.38813227723531296
-0.6445629924117156,-0.6445629924117156
-0.761371289716269,-0.761371289716269
-0.8380267348223821,-0.8380267348223821
-0.9238078281554136,-0.9238078281554136
-0.9876873657438412,-0.9876873657438412
-0.994075319502684,-0.994075319502684
-0.9749114582261558,-0.9749114582261558
-0.9703486341126966,-0.9703486341126966
-0.9876873657438412,-0.9876873657438412
-0.994075319502684,-0.994075319502684
-0.9831245416303821,-0.9831245416303821
-0.9703486341126966,-0.9703486341126966
-0.973086328580772,-0.973086328580772
-0.9703486341126966,-0.9703486341126966
-0.9493596431907847,-0.9493596431907847
-0.9238078281554136,-0.9238078281554136
-0.9183324392192627,-0.9183324392192627
-0.9238078281554136,-0.9238078281554136
-0.9247203929781054,-0.9247203929781054
-0.9238078281554136,-0.9238078281554136
-0.9274580874461809,-0.9274580874461809
-0.9238078281554136,-0.9238078281554136
-0.900993707588118,-0.900993707588118
-0.8772670221981306,-0.8772670221981306
-0.864491114680445,-0.864491114680445
-0.854452901630835,-0.854452901630835
-0.8298136514181558,-0.8298136514181558
-0.8079120956735519,-0.8079120956735519
-0.802436706737401,-0.802436706737401
-0.8079120956735519,-0.8079120956735519
-0.7996990122693255,-0.7996990122693255
-0.7841854102835646,-0.7841854102835646
-0.7704969379431872,-0.7704969379431872
-0.761371289716269,-0.761371289716269
-0.7476828173758916,-0.7476828173758916
-0.7376446043262815,-0.7376446043262815
-0.7285189560993632,-0.7285189560993632
-0.714830483758986,-0.714830483758986
-0.6892786687236149,-0.6892786687236149
-0.6673771129790111,-0.6673771129790111
-0.6491258165251746,-0.6491258165251746
-0.6208363070217281,-0.6208363070217281
-0.5733829362417533,-0.5733829362417533
-0.5277546951071621,-0.5277546951071621
-0.5003777504264073,-0.5003777504264073
-0.48121388914987906,-0.48121388914987906
-0.4437987314195142,-0.4437987314195142
-0.38813227723531296,-0.38813227723531296
-0.33429095269649534,-0.33429095269649534
-0.2950506653207469,-0.2950506653207469
-0.26037320205845765,-0.26037320205845765
-0.22569573879616833,-0.22569573879616833
-0.20014392376079726,-0.20014392376079726
-0.2019690534061809,-0.2019690534061809
-0.21930778503732556,-0.21930778503732556
-0.22569573879616833,-0.22569573879616833
-0.21748265539194192,-0.21748265539194192
-0.22569573879616833,-0.22569573879616833
-0.2539852482996149,-0.2539852482996149
-0.2722365447534513,-0.2722365447534513
-0.26037320205845765,-0.26037320205845765
-0.24850985936346393,-0.24850985936346393
-0.2594606372357658,-0.2594606372357658
-0.2722365447534513,-0.2722365447534513
-0.26037320205845765,-0.26037320205845765
-0.24850985936346393,-0.24850985936346393
-0.258548072413074,-0.258548072413074
-0.2722365447534513,-0.2722365447534513
-0.2631108965265331,-0.2631108965265331
-0.24850985936346393,-0.24850985936346393
-0.24850985936346393,-0.24850985936346393
-0.24850985936346393,-0.24850985936346393
-0.2329962573777029,-0.2329962573777029
-0.22569573879616833,-0.22569573879616833
-0.24668472971808028,-0.24668472971808028
-0.2722365447534513,-0.2722365447534513
-0.2631108965265331,-0.2631108965265331
-0.22569573879616833,-0.22569573879616833
-0.18098006248426896,-0.18098006248426896
-0.1326141268816023,-0.1326141268816023
-0.07786023752009288,-0.07786023752009288
-0.03953251496703629,-0.03953251496703629
-0.026756607449350753,-0.026756607449350753
-0.015805829577048867,-0.015805829577048867
0.01704650403985679,0.01704650403985679
0.05354909694752974,0.05354909694752974
0.07271295822405804,0.07271295822405804
0.07727578233751715,0.07727578233751715
0.07545065269213351,0.07545065269213351
0.05354909694752974,0.05354909694752974
0.013396244749089493,0.013396244749089493
-0.015805829577048867,-0.015805829577048867
-0.014893264754357044,-0.014893264754357044
-0.015805829577048867,-0.015805829577048867
-0.05230842248472182,-0.05230842248472182
-0.10888744149161489,-0.10888744149161489
-0.14447746957659602,-0.14447746957659602
-0.15542824744889788,-0.15542824744889788
-0.17002928461196706,-0.17002928461196706
-0.2019690534061809,-0.2019690534061809
-0.22752086844155198,-0.22752086844155198
-0.22569573879616833,-0.22569573879616833
-0.20653187751964003,-0.20653187751964003
-0.2019690534061809,-0.2019690534061809
-0.22295804432809285,-0.22295804432809285
-0.24850985936346393,-0.24850985936346393
-0.2503349890088476,-0.2503349890088476
-0.22569573879616833,-0.22569573879616833
-0.1937559700019545,-0.1937559700019545
-0.1791549328388853,-0.1791549328388853
-0.191018275533879,-0.191018275533879
-0.22569573879616833,-0.22569573879616833
-0.2539852482996149,-0.2539852482996149
-0.24850985936346393,-0.24850985936346393
-0.22569573879616833,-0.22569573879616833
-0.22569573879616833,-0.22569573879616833
-0.2567229427676903,-0.2567229427676903
-0.2722365447534513,-0.2722365447534513
-0.2512475538315394,-0.2512475538315394
-0.22569573879616833,-0.22569573879616833
-0.23390882220039474,-0.23390882220039474
-0.24850985936346393,-0.24850985936346393
-0.24212190560462116,-0.24212190560462116
-0.22569573879616833,-0.22569573879616833
-0.23482138702308655,-0.23482138702308655
-0.24850985936346393,-0.24850985936346393
-0.2357339518457784,-0.2357339518457784
-0.1791549328388853,-0.1791549328388853
-0.09337383950585389,-0.09337383950585389
0.030734976380234147,0.030734976380234147
0.1931715148193788,0.1931715148193788
0.38024730347120267,0.38024730347120267
0.5764487403499448,0.5764487403499448
0.7991145570867497,0.7991145570867497
1.0509824481496932,1.0509824481496932
1.311063422616863,1.311063422616863
1.5866579990697938,1.5866579990697938
1.917006464884234,1.917006464884234
2.2847700884290387,2.2847700884290387
2.5923044336761834,2.5923044336761834
2.7739048333918563,2.7739048333918563
2.8715492694198814,2.8715492694198814
2.9500298441713784,2.9500298441713784
3.0111716872917307,3.0111716872917307
3.0586250580717054,3.0586250580717054
3.127067419773592,3.127067419773592
3.197334911120863,3.197334911120863
3.1507941051635795,3.1507941051635795
2.9299534180721585,2.9299534180721585
2.615118554243479,2.615118554243479
2.3011962552374916,2.3011962552374916
1.963547270841517,1.963547270841517
1.5665815729705737,1.5665815729705737
1.171441004745014,1.171441004745014
0.8401799741078818,0.8401799741078818
0.5198697213430516,0.5198697213430516
0.13933019028056118,0.13933019028056118
-0.24850985936346393,-0.24850985936346393
-0.5341426488660048,-0.5341426488660048
-0.6911037983689985,-0.6911037983689985
-0.7850979751062563,-0.7850979751062563
-0.854452901630835,-0.854452901630835
-0.8882178000704325,-0.8882178000704325
-0.8772670221981306,-0.8772670221981306
-0.8635785498577532,-0.8635785498577532
-0.8772670221981306,-0.8772670221981306
-0.9110319206377281,-0.9110319206377281
-0.9238078281554136,-0.9238078281554136
-0.9128570502831117,-0.9128570502831117
-0.900993707588118,-0.900993707588118
-0.9046439668788853,-0.9046439668788853
-0.900993707588118,-0.900993707588118
-0.8763544573754387,-0.8763544573754387
-0.854452901630835,-0.854452901630835
-0.8599282905669859,-0.8599282905669859
-0.8772670221981306,-0.8772670221981306
-0.8745293277300551,-0.8745293277300551
-0.854452901630835,-0.854452901630835
-0.8380267348223821,-0.8380267348223821
-0.8307262162408475,-0.8307262162408475
-0.8188628735458539,-0.8188628735458539
-0.8079120956735519,-0.8079120956735519
-0.8042618363827847,-0.8042618363827847
-0.8079120956735519,-0.8079120956735519
-0.8006115770920174,-0.8006115770920174
-0.7841854102835646,-0.7841854102835646
-0.7686718082978036,-0.7686718082978036
-0.761371289716269,-0.761371289716269
-0.7513330766666589,-0.7513330766666589
-0.7376446043262815,-0.7376446043262815
-0.7212184375178287,-0.7212184375178287
-0.714830483758986,-0.714830483758986
-0.7139179189362941,-0.7139179189362941
-0.714830483758986,-0.714830483758986
-0.7057048355320676,-0.7057048355320676
-0.6911037983689985,-0.6911037983689985
-0.6710273722697784,-0.6710273722697784
-0.6445629924117156,-0.6445629924117156
-0.6089729643267344,-0.6089729643267344
-0.574295501064445,-0.574295501064445
-0.5414431674475394,-0.5414431674475394
-0.5049405745398665,-0.5049405745398665
-0.4583997685825834,-0.4583997685825834
-0.41185896262530036,-0.41185896262530036
-0.3662307214907092,-0.3662307214907092
-0.3187773507107344,-0.3187773507107344
-0.26584859099460856,-0.26584859099460856
-0.22569573879616833,-0.22569573879616833
-0.20014392376079726,-0.20014392376079726
-0.1791549328388853,-0.1791549328388853
-0.1517779881581306,-0.1517779881581306
-0.1326141268816023,-0.1326141268816023
-0.128963867590835,-0.128963867590835
-0.1326141268816023,-0.1326141268816023
-0.128963867590835,-0.128963867590835
-0.1326141268816023,-0.1326141268816023
-0.14447746957659602,-0.14447746957659602
-0.15542824744889788,-0.15542824744889788
-0.159991071562357,-0.159991071562357
-0.1791549328388853,-0.1791549328388853
-0.21018213681040732,-0.21018213681040732
-0.22569573879616833,-0.22569573879616833
-0.21748265539194192,-0.21748265539194192
-0.22569573879616833,-0.22569573879616833
-0.2576355075903822,-0.2576355075903822
-0.2722365447534513,-0.2722365447534513
-0.24485960007269664,-0.24485960007269664
-0.22569573879616833,-0.22569573879616833
-0.2475972945407721,-0.2475972945407721
-0.2722365447534513,-0.2722365447534513
-0.2558103779449985,-0.2558103779449985
-0.22569573879616833,-0.22569573879616833
-0.22204547950540104,-0.22204547950540104
-0.22569573879616833,-0.22569573879616833
-0.19193084035657085,-0.19193084035657085
-0.1326141268816023,-0.1326141268816023
-0.08059793198816836,-0.08059793198816836
-0.03953251496703629,-0.03953251496703629
0.010658550281014022,0.010658550281014022
0.05354909694752974,0.05354909694752974
0.07088782857867439,0.07088782857867439
0.07727578233751715,0.07727578233751715
0.10374016219558005,0.10374016219558005
0.1475432736847876,0.1475432736847876
0.1822207369470769,0.1822207369470769
0.1940840796420706,0.1940840796420706
0.1822207369470769,0.1822207369470769
0.1475432736847876,0.1475432736847876
0.0982647732594291,0.0982647732594291
0.05354909694752974,0.05354909694752974
0.02252189297600773,0.02252189297600773
-0.015805829577048867,-0.015805829577048867
-0.06599689482509917,-0.06599689482509917
-0.10888744149161489,-0.10888744149161489
-0.1326141268816023,-0.1326141268816023
-0.15542824744889788,-0.15542824744889788
-0.19193084035657085,-0.19193084035657085
-0.22569573879616833,-0.22569573879616833
-0.23390882220039474,-0.23390882220039474
-0.22569573879616833,-0.22569573879616833
-0.2211329146827092,-0.2211329146827092
-0.22569573879616833,-0.22569573879616833
-0.22752086844155198,-0.22752086844155198
-0.22569573879616833,-0.22569573879616833
-0.2247831739734765,-0.2247831739734765
-0.22569573879616833,-0.22569573879616833
-0.21657009056925008,-0.21657009056925008
-0.2019690534061809,-0.2019690534061809
-0.20288161822887274,-0.20288161822887274
-0.22569573879616833,-0.22569573879616833
-0.2503349890088476,-0.2503349890088476
-0.24850985936346393,-0.24850985936346393
-0.22934599808693562,-0.22934599808693562
-0.22569573879616833,-0.22569573879616833
-0.2503349890088476,-0.2503349890088476
-0.2722365447534513,-0.2722365447534513
-0.2667611558173004,-0.2667611558173004
-0.24850985936346393,-0.24850985936346393
-0.2548978131223067,-0.2548978131223067
-0.2722365447534513,-0.2722365447534513
-0.26767372063999223,-0.26767372063999223
-0.22569573879616833,-0.22569573879616833
-0.19284340517926268,-0.19284340517926268
-0.2019690534061809,-0.2019690534061809
-0.23847164631385387,-0.23847164631385387
-0.22569573879616833,-0.22569573879616833
-0.12257591383199223,-0.12257591383199223
0.05354909694752974,0.05354909694752974
0.24427514489012092,0.24427514489012092
0.42678810942848566,0.42678810942848566
0.616601592548385,0.616601592548385
0.8456553630440328,0.8456553630440328
1.11942480985158,1.11942480985158
1.4278717199214164,1.4278717199214164
1.7545699264450894,1.7545699264450894
2.0794430033233784,2.0794430033233784
2.3842396541024478,2.3842396541024478
2.6388452396334667,2.6388452396334667
2.8195330745264475,2.8195330745264475
2.918090075377165,2.918090075377165
2.9664560109798312,2.9664560109798312
3.0111716872917307,3.0111716872917307
3.07596378970285,3.07596378970285
3.127067419773592,3.127067419773592
3.1051658640289883,3.1051658640289883
2.9646308813344477,2.9646308813344477
2.724626332966498,2.724626332966498
2.428955330414347,2.428955330414347
2.1059073831814414,2.1059073831814414
1.7536573616223974,1.7536573616223974
1.3922816918364351,1.3922816918364351
1.0555452722631522,1.0555452722631522
0.7480109270160076,0.7480109270160076
0.42678810942848566,0.42678810942848566
0.06997526375598256,0.06997526375598256
-0.2722365447534513,-0.2722365447534513
-0.5304923895752375,-0.5304923895752375
-0.6911037983689985,-0.6911037983689985
-0.7914859288650992,-0.7914859288650992
-0.854452901630835,-0.854452901630835
-0.8827424111342815,-0.8827424111342815
-0.8772670221981306,-0.8772670221981306
-0.8626659850350614,-0.8626659850350614
-0.854452901630835,-0.854452901630835
-0.8553654664535268,-0.8553654664535268
-0.854452901630835,-0.854452901630835
-0.8535403368081431,-0.8535403368081431
-0.854452901630835,-0.854452901630835
-0.864491114680445,-0.864491114680445
-0.8772670221981306,-0.8772670221981306
-0.8845675407796652,-0.8845675407796652
-0.8772670221981306,-0.8772670221981306
-0.8626659850350614,-0.8626659850350614
-0.854452901630835,-0.854452901630835
-0.8535403368081431,-0.8535403368081431
-0.854452901630835,-0.854452901630835
-0.8517152071627595,-0.8517152071627595
-0.854452901630835,-0.854452901630835
-0.8508026423400676,-0.8508026423400676
-0.8307262162408475,-0.8307262162408475
-0.8042618363827847,-0.8042618363827847
-0.8079120956735519,-0.8079120956735519
-0.8371141699996903,-0.8371141699996903
-0.854452901630835,-0.854452901630835
-0.8316387810635394,-0.8316387810635394
-0.8079120956735519,-0.8079120956735519
-0.812474919787011,-0.812474919787011
-0.8307262162408475,-0.8307262162408475
-0.8261633921273884,-0.8261633921273884
-0.8079120956735519,-0.8079120956735519
-0.8015241419147092,-0.8015241419147092
-0.8079120956735519,-0.8079120956735519
-0.8015241419147092,-0.8015241419147092
-0.7841854102835646,-0.7841854102835646
-0.7631964193616526,-0.7631964193616526
-0.7376446043262815,-0.7376446043262815
-0.7020545762413004,-0.7020545762413004
-0.6673771129790111,-0.6673771129790111
-0.6372624738301809,-0.6372624738301809
-0.5980221864544325,-0.5980221864544325
-0.5396180378021558,-0.5396180378021558
-0.48121388914987906,-0.48121388914987906
-0.43467308319259595,-0.43467308319259595
-0.38813227723531296,-0.38813227723531296
-0.32790299893765257,-0.32790299893765257
-0.2722365447534513,-0.2722365447534513
-0.23938421113654568,-0.23938421113654568
-0.22569573879616833,-0.22569573879616833
-0.21200726645579096,-0.21200726645579096
-0.2019690534061809,-0.2019690534061809
-0.20014392376079726,-0.20014392376079726
-0.2019690534061809,-0.2019690534061809
-0.19923135893810545,-0.19923135893810545
-0.2019690534061809,-0.2019690534061809
-0.21383239610117463,-0.21383239610117463
-0.22569573879616833,-0.22569573879616833
-0.23117112773231926,-0.23117112773231926
-0.24850985936346393,-0.24850985936346393
-0.2767993688669105,-0.2767993688669105
-0.2950506653207469,-0.2950506653207469
-0.29231297085267144,-0.29231297085267144
-0.2950506653207469,-0.2950506653207469
-0.3187773507107344,-0.3187773507107344
-0.34159147127802997,-0.34159147127802997
-0.3434166009234136,-0.3434166009234136
-0.34159147127802997,-0.34159147127802997
-0.35345481397302364,-0.35345481397302364
-0.36531815666801737,-0.36531815666801737
-0.3561925084410991,-0.3561925084410991
-0.34159147127802997,-0.34159147127802997
-0.34159147127802997,-0.34159147127802997
-0.34159147127802997,-0.34159147127802997
-0.3169522210653507,-0.3169522210653507
-0.2722365447534513,-0.2722365447534513
-0.2238706091507847,-0.2238706091507847
-0.1791549328388853,-0.1791549328388853
-0.12987643241352684,-0.12987643241352684
-0.0860733209243193,-0.0860733209243193
-0.056871246598180936,-0.056871246598180936
-0.03953251496703629,-0.03953251496703629
-0.016718394399740693,-0.016718394399740693
0.007008290990246727,0.007008290990246727
0.01795906886254861,0.01795906886254861
0.007008290990246727,0.007008290990246727
-0.014893264754357044,-0.014893264754357044
-0.03953251496703629,-0.03953251496703629
-0.06052150588894823,-0.06052150588894823
-0.0860733209243193,-0.0860733209243193
-0.11801308971853312,-0.11801308971853312
-0.15542824744889788,-0.15542824744889788
-0.19193084035657085,-0.19193084035657085
-0.22569573879616833,-0.22569573879616833
-0.258548072413074,-0.258548072413074
-0.2950506653207469,-0.2950506653207469
-0.33337838787380353,-0.33337838787380353
-0.36531815666801737,-0.36531815666801737
-0.37626893454031923,-0.37626893454031923
-0.36531815666801737,-0.36531815666801737
-0.34615429539148906,-0.34615429539148906
-0.34159147127802997,-0.34159147127802997
-0.3552799436184073,-0.3552799436184073
-0.36531815666801737,-0.36531815666801737
-0.35710507326379093,-0.35710507326379093
-0.34159147127802997,-0.34159147127802997
-0.336116082341879,-0.336116082341879
-0.34159147127802997,-0.34159147127802997
-0.35162968432764,-0.35162968432764
-0.36531815666801737,-0.36531815666801737
-0.3808317586537784,-0.3808317586537784
-0.38813227723531296,-0.38813227723531296
-0.38721971241262115,-0.38721971241262115
-0.38813227723531296,-0.38813227723531296
-0.39543279581684754,-0.39543279581684754
-0.38813227723531296,-0.38813227723531296
-0.37170611042686014,-0.37170611042686014
-0.36531815666801737,-0.36531815666801737
-0.38813227723531296,-0.38813227723531296
-0.41185896262530036,-0.41185896262530036
-0.41185896262530036,-0.41185896262530036
-0.38813227723531296,-0.38813227723531296
-0.3744438048949356,-0.3744438048949356
-0.36531815666801737,-0.36531815666801737
-0.33429095269649534,-0.33429095269649534
-0.24850985936346393,-0.24850985936346393
-0.11983821936391677,-0.11983821936391677
0.030734976380234147,0.030734976380234147
0.2050348575143725,0.2050348575143725
0.42678810942848566,0.42678810942848566
0.6832188246048881,0.6832188246048881
0.9387369749585988,0.9387369749585988
1.2006430790711522,1.2006430790711522
1.5209533318359825,1.5209533318359825
1.8923672146715547,1.8923672146715547
2.2190654211952276,2.2190654211952276
2.4526820158043345,2.4526820158043345
2.6388452396334667,2.6388452396334667
2.801281778072611,2.801281778072611
2.8715492694198814,2.8715492694198814
2.848735148852586,2.848735148852586
2.847822584029894,2.847822584029894
2.9226528994906236,2.9226528994906236
2.9409041959444604,2.9409041959444604
2.8003692132499194,2.8003692132499194
2.568577748286196,2.568577748286196
2.3276606350955547,2.3276606350955547
2.0100880767988,2.0100880767988
1.5811826101336428,1.5811826101336428
1.171441004745014,1.171441004745014
0.8903710393559321,0.8903710393559321
0.6357654538249132,0.6357654538249132
0.27530234886164295,0.27530234886164295
-0.1326141268816023,-0.1326141268816023
-0.4419736017741306,-0.4419736017741306
-0.6445629924117156,-0.6445629924117156
-0.8225131328366211,-0.8225131328366211
-0.9703486341126966,-0.9703486341126966
-1.030577912410357,-1.030577912410357
-1.0168894400699795,-1.0168894400699795
-1.0141517456019042,-1.0141517456019042
-1.040616125459967,-1.040616125459967
-1.0643428108499544,-1.0643428108499544
-1.0634302460272627,-1.0634302460272627
-1.0552171626230362,-1.0552171626230362
-1.040616125459967,-1.040616125459967
-1.0178020048926715,-1.0178020048926715
-0.994075319502684,-0.994075319502684
-0.9876873657438412,-0.9876873657438412
-0.994075319502684,-0.994075319502684
-0.9931627546799922,-0.9931627546799922
-0.9703486341126966,-0.9703486341126966
-0.9219826985100299,-0.9219826985100299
-0.854452901630835,-0.854452901630835
-0.7777974565247218,-0.7777974565247218
-0.714830483758986,-0.714830483758986
-0.682890714964772,-0.682890714964772
-0.6911037983689985,-0.6911037983689985
-0.7102676596455268,-0.7102676596455268
-0.714830483758986,-0.714830483758986
-0.709355094822835,-0.709355094822835
-0.7376446043262815,-0.7376446043262815
-0.7996990122693255,-0.7996990122693255
-0.854452901630835,-0.854452901630835
-0.869966503616596,-0.869966503616596
-0.8772670221981306,-0.8772670221981306
-0.8991685779427343,-0.8991685779427343
-0.9238078281554136,-0.9238078281554136
-0.93202091155964,-0.93202091155964
-0.947534513545401,-0.947534513545401
-0.973086328580772,-0.973086328580772
-0.9703486341126966,-0.9703486341126966
-0.9137696151058036,-0.9137696151058036
-0.854452901630835,-0.854452901630835
-0.838939299645074,-0.838939299645074
-0.854452901630835,-0.854452901630835
-0.8508026423400676,-0.8508026423400676
-0.8307262162408475,-0.8307262162408475
-0.8106497901416274,-0.8106497901416274
-0.7841854102835646,-0.7841854102835646
-0.7312566505674387,-0.7312566505674387
-0.6673771129790111,-0.6673771129790111
-0.616273482908269,-0.616273482908269
-0.574295501064445,-0.574295501064445
-0.5259295654617784,-0.5259295654617784
-0.48121388914987906,-0.48121388914987906
-0.45383694446912426,-0.45383694446912426
-0.43467308319259595,-0.43467308319259595
-0.40912126815722494,-0.40912126815722494
-0.38813227723531296,-0.38813227723531296
-0.3844820179445457,-0.3844820179445457
-0.38813227723531296,-0.38813227723531296
-0.38721971241262115,-0.38721971241262115
-0.38813227723531296,-0.38813227723531296
-0.40729613851184127,-0.40729613851184127
-0.43467308319259595,-0.43467308319259595
-0.4547495092918161,-0.4547495092918161
-0.4583997685825834,-0.4583997685825834
-0.45201181482374064,-0.45201181482374064
-0.43467308319259595,-0.43467308319259595
-0.41003383297991675,-0.41003383297991675
-0.38813227723531296,-0.38813227723531296
-0.3790066290083947,-0.3790066290083947
-0.36531815666801737,-0.36531815666801737
-0.30782657283843246,-0.30782657283843246
-0.1791549328388853,-0.1791549328388853
0.013396244749089493,0.013396244749089493
0.24062488559935363,0.24062488559935363
0.4906676470169133,0.4906676470169133
0.7753878716967624,0.7753878716967624
1.087485041057366,1.087485041057366
1.3813309139641332,1.3813309139641332
1.6240731568001585,1.6240731568001585
1.8239248529696679,1.8239248529696679
2.0100880767988,2.0100880767988
2.1725246152379447,2.1725246152379447
2.278382134670196,2.278382134670196
2.289332912542498,2.289332912542498
2.194426170982548,2.194426170982548
2.0100880767988,2.0100880767988
1.8047609916931395,1.8047609916931395
1.637761629140536,1.637761629140536
1.481713044460234,1.481713044460234
1.2417084960922842,1.2417084960922842
0.9113600302778441,0.9113600302778441
0.6129513332576176,0.6129513332576176
0.4605530078680832,0.4605530078680832
0.40306142403849826,0.40306142403849826
0.29994159907432216,0.29994159907432216
0.07727578233751715,0.07727578233751715
-0.21200726645579096,-0.21200726645579096
-0.48121388914987906,-0.48121388914987906
-0.682890714964772,-0.682890714964772
-0.8079120956735519,-0.8079120956735519
-0.8717916332619796,-0.8717916332619796
-0.900993707588118,-0.900993707588118
-0.916507309573879,-0.916507309573879
-0.9238078281554136,-0.9238078281554136
-0.9247203929781054,-0.9247203929781054
-0.9238078281554136,-0.9238078281554136
-0.9265455226234891,-0.9265455226234891
-0.9238078281554136,-0.9238078281554136
-0.9146821799284953,-0.9146821799284953
-0.900993707588118,-0.900993707588118
-0.8891303648931242,-0.8891303648931242
-0.8772670221981306,-0.8772670221981306
-0.8635785498577532,-0.8635785498577532
-0.854452901630835,-0.854452901630835
-0.8526277719854514,-0.8526277719854514
-0.854452901630835,-0.854452901630835
-0.8535403368081431,-0.8535403368081431
-0.854452901630835,-0.854452901630835
-0.8553654664535268,-0.8553654664535268
-0.854452901630835,-0.854452901630835
-0.8435021237585331,-0.8435021237585331
-0.8307262162408475,-0.8307262162408475
-0.817950308723162,-0.817950308723162
-0.8079120956735519,-0.8079120956735519
-0.7951361881558664,-0.7951361881558664
-0.7841854102835646,-0.7841854102835646
-0.7750597620566463,-0.7750597620566463
-0.761371289716269,-0.761371289716269
-0.7239561319859041,-0.7239561319859041
-0.6673771129790111,-0.6673771129790111
-0.6153609180855771,-0.6153609180855771
-0.5980221864544325,-0.5980221864544325
-0.6034975753905835,-0.6034975753905835
-0.5980221864544325,-0.5980221864544325
-0.5578693342559923,-0.5578693342559923
-0.5049405745398665,-0.5049405745398665
-0.45748720375989155,-0.45748720375989155
-0.41185896262530036,-0.41185896262530036
-0.35254224915033183,-0.35254224915033183
-0.2950506653207469,-0.2950506653207469
-0.2548978131223067,-0.2548978131223067
-0.22569573879616833,-0.22569573879616833
-0.18919314588849537,-0.18919314588849537
-0.15542824744889788,-0.15542824744889788
-0.1362643861723696,-0.1362643861723696
-0.1326141268816023,-0.1326141268816023
-0.12987643241352684,-0.12987643241352684
-0.1326141268816023,-0.1326141268816023
-0.14721516404467147,-0.14721516404467147
-0.1791549328388853,-0.1791549328388853
-0.22022034986001737,-0.22022034986001737
-0.2722365447534513,-0.2722365447534513
-0.3187773507107344,-0.3187773507107344
-0.34159147127802997,-0.34159147127802997
-0.3324658230511117,-0.3324658230511117
-0.3187773507107344,-0.3187773507107344
-0.32972812858303624,-0.32972812858303624
-0.36531815666801737,-0.36531815666801737
-0.39178253652608025,-0.39178253652608025
-0.38813227723531296,-0.38813227723531296
-0.36805585113609285,-0.36805585113609285
-0.36531815666801737,-0.36531815666801737
-0.3936076661714639,-0.3936076661714639
-0.43467308319259595,-0.43467308319259595
-0.45292437964643245,-0.45292437964643245
-0.43467308319259595,-0.43467308319259595
-0.39452023099415573,-0.39452023099415573
-0.36531815666801737,-0.36531815666801737
-0.37079354560416833,-0.37079354560416833
-0.41185896262530036,-0.41185896262530036
-0.4465364258875897,-0.4465364258875897
-0.43467308319259595,-0.43467308319259595
-0.3808317586537784,-0.3808317586537784
-0.34159147127802997,-0.34159147127802997
-0.35254224915033183,-0.35254224915033183
-0.38813227723531296,-0.38813227723531296
-0.40273331439838217,-0.40273331439838217
-0.38813227723531296,-0.38813227723531296
-0.3634930270226337,-0.3634930270226337
-0.34159147127802997,-0.34159147127802997
-0.33064069340572805,-0.33064069340572805
-0.34159147127802997,-0.34159147127802997
-0.36988098078147646,-0.36988098078147646
-0.38813227723531296,-0.38813227723531296
-0.3799191938310866,-0.3799191938310866
-0.36531815666801737,-0.36531815666801737
-0.3561925084410991,-0.3561925084410991
-0.34159147127802997,-0.34159147127802997
-0.3187773507107344,-0.3187773507107344
-0.3187773507107344,-0.3187773507107344
-0.3470668602141809,-0.3470668602141809
-0.36531815666801737,-0.36531815666801737
-0.3434166009234136,-0.3434166009234136
-0.3187773507107344,-0.3187773507107344
-0.3242527396468853,-0.3242527396468853
-0.34159147127802997,-0.34159147127802997
-0.3352035175191872,-0.3352035175191872
-0.3187773507107344,-0.3187773507107344
-0.32242761000150166,-0.32242761000150166
-0.34159147127802997,-0.34159147127802997
-0.34159147127802997,-0.34159147127802997
-0.3187773507107344,-0.3187773507107344
-0.2987009246115142,-0.2987009246115142
-0.2950506653207469,-0.2950506653207469
-0.28501245227113686,-0.28501245227113686
-0.24850985936346393,-0.24850985936346393
-0.1937559700019545,-0.1937559700019545
-0.15542824744889788,-0.15542824744889788
-0.1481277288673633,-0.1481277288673633
-0.15542824744889788,-0.15542824744889788
-0.14447746957659602,-0.14447746957659602
-0.10888744149161489,-0.10888744149161489
-0.07238484858394194,-0.07238484858394194
-0.06234663553433188,-0.06234663553433188
-0.07329741340663377,-0.07329741340663377
-0.0860733209243193,-0.0860733209243193
-0.09246127468316206,-0.09246127468316206
-0.10888744149161489,-0.10888744149161489
-0.13535182134967777,-0.13535182134967777
-0.15542824744889788,-0.15542824744889788
-0.16090363638504884,-0.16090363638504884
-0.1791549328388853,-0.1791549328388853
-0.2357339518457784,-0.2357339518457784
-0.3187773507107344,-0.3187773507107344
-0.37170611042686014,-0.37170611042686014
-0.36531815666801737,-0.36531815666801737
-0.32881556376034443,-0.32881556376034443
-0.3187773507107344,-0.3187773507107344
-0.3370286471645708,-0.3370286471645708
-0.34159147127802997,-0.34159147127802997
-0.3215150451788098,-0.3215150451788098
-0.3187773507107344,-0.3187773507107344
-0.34797942503687274,-0.34797942503687274
-0.36531815666801737,-0.36531815666801737
-0.34159147127802997,-0.34159147127802997
-0.3187773507107344,-0.3187773507107344
-0.336116082341879,-0.336116082341879
-0.36531815666801737,-0.36531815666801737
-0.3744438048949356,-0.3744438048949356
-0.38813227723531296,-0.38813227723531296
-0.4246348701429859,-0.4246348701429859
-0.43467308319259595,-0.43467308319259595
-0.39178253652608025,-0.39178253652608025
-0.34159147127802997,-0.34159147127802997
-0.3370286471645708,-0.3370286471645708
-0.34159147127802997,-0.34159147127802997
-0.32516530446957714,-0.32516530446957714
-0.3187773507107344,-0.3187773507107344
-0.3589302029091746,-0.3589302029091746
-0.38813227723531296,-0.38813227723531296
-0.3607553325545583,-0.3607553325545583
-0.2950506653207469,-0.2950506653207469
-0.22569573879616833,-0.22569573879616833
-0.10888744149161489,-0.10888744149161489
0.07362552304674987,0.07362552304674987
0.2634390061666492,0.2634390061666492
0.4167498963788756,0.4167498963788756
0.5892246478676303,0.5892246478676303
0.8264915017675044,0.8264915017675044
1.0783593928304478,1.0783593928304478
1.3138011170849384,1.3138011170849384
1.590308258360561,1.590308258360561
1.9407331502742213,1.9407331502742213
2.2656062271525106,2.2656062271525106
2.49557256247085,2.49557256247085
2.6853860455907497,2.6853860455907497
2.894363389987177,2.894363389987177
3.0577124932490136,3.0577124932490136
3.1425810217593533,3.1425810217593533
3.2210615965108502,3.2210615965108502
3.3104929491346486,3.3104929491346486
3.267602402468133,3.267602402468133
3.012996816937114,3.012996816937114
2.6616593602007623,2.6616593602007623
2.321272681336712,2.321272681336712
1.917006464884234,1.917006464884234
1.4068827289995043,1.4068827289995043
0.9387369749585988,0.9387369749585988
0.6312026297114541,0.6312026297114541
0.35652061808121527,0.35652061808121527
-0.042270209435111755,-0.042270209435111755
-0.48121388914987906,-0.48121388914987906
-0.7659341138297281,-0.7659341138297281
-0.8772670221981306,-0.8772670221981306
-0.9502722080134764,-0.9502722080134764
-1.040616125459967,-1.040616125459967
-1.1026705334030111,-1.1026705334030111
-1.1099710519845456,-1.1099710519845456
-1.0999328389349357,-1.0999328389349357
-1.08715693141725,-1.08715693141725
-1.0725558942541809,-1.0725558942541809
-1.0634302460272627,-1.0634302460272627
-1.076206153544948,-1.076206153544948
-1.08715693141725,-1.08715693141725
-1.0743810238995646,-1.0743810238995646
-1.040616125459967,-1.040616125459967
-1.0168894400699795,-1.0168894400699795
-1.0168894400699795,-1.0168894400699795
-1.025102523474206,-1.025102523474206
-1.0168894400699795,-1.0168894400699795
-0.9922501898573004,-0.9922501898573004
-0.9703486341126966,-0.9703486341126966
-0.9584852914177029,-0.9584852914177029
-0.947534513545401,-0.947534513545401
-0.9301957819142563,-0.9301957819142563
-0.9238078281554136,-0.9238078281554136
-0.9274580874461809,-0.9274580874461809
-0.9238078281554136,-0.9238078281554136
-0.8982560131200426,-0.8982560131200426
-0.8772670221981306,-0.8772670221981306
-0.8681413739712124,-0.8681413739712124
-0.854452901630835,-0.854452901630835
-0.823425697659313,-0.823425697659313
-0.8079120956735519,-0.8079120956735519
-0.8115623549643193,-0.8115623549643193
-0.8079120956735519,-0.8079120956735519
-0.7832728454608727,-0.7832728454608727
-0.7841854102835646,-0.7841854102835646
-0.8170377439004702,-0.8170377439004702
-0.8307262162408475,-0.8307262162408475
-0.7987864474466337,-0.7987864474466337
-0.7841854102835646,-0.7841854102835646
-0.8216005680139293,-0.8216005680139293
-0.854452901630835,-0.854452901630835
-0.817950308723162,-0.817950308723162
-0.761371289716269,-0.761371289716269
-0.7467702525531997,-0.7467702525531997
-0.761371289716269,-0.761371289716269
-0.7476828173758916,-0.7476828173758916
-0.714830483758986,-0.714830483758986
-0.6965791873051494,-0.6965791873051494
-0.6911037983689985,-0.6911037983689985
-0.6582514647520928,-0.6582514647520928
-0.5980221864544325,-0.5980221864544325
-0.5368803433340803,-0.5368803433340803
-0.48121388914987906,-0.48121388914987906
-0.41368409227068403,-0.41368409227068403
-0.34159147127802997,-0.34159147127802997
-0.30326374872497336,-0.30326374872497336
-0.3187773507107344,-0.3187773507107344
-0.34615429539148906,-0.34615429539148906
-0.34159147127802997,-0.34159147127802997
-0.3196899155334262,-0.3196899155334262
-0.34159147127802997,-0.34159147127802997
-0.4045584440437658,-0.4045584440437658
-0.43467308319259595,-0.43467308319259595
-0.39269510134877206,-0.39269510134877206
-0.34159147127802997,-0.34159147127802997
-0.336116082341879,-0.336116082341879
-0.34159147127802997,-0.34159147127802997
-0.2968757949661306,-0.2968757949661306
-0.22569573879616833,-0.22569573879616833
-0.18371775695234444,-0.18371775695234444
-0.1791549328388853,-0.1791549328388853
-0.1709418494346589,-0.1709418494346589
-0.15542824744889788,-0.15542824744889788
-0.1517779881581306,-0.1517779881581306
-0.15542824744889788,-0.15542824744889788
-0.14630259922197966,-0.14630259922197966
-0.1326141268816023,-0.1326141268816023
-0.1362643861723696,-0.1362643861723696
-0.15542824744889788,-0.15542824744889788
-0.16637902532119977,-0.16637902532119977
-0.15542824744889788,-0.15542824744889788
-0.13900208064044506,-0.13900208064044506
-0.1326141268816023,-0.1326141268816023
-0.14265233993121237,-0.14265233993121237
-0.15542824744889788,-0.15542824744889788
-0.16364133085312432,-0.16364133085312432
-0.15542824744889788,-0.15542824744889788
-0.14447746957659602,-0.14447746957659602
-0.1326141268816023,-0.1326141268816023
-0.11892565454122495,-0.11892565454122495
-0.0860733209243193,-0.0860733209243193
-0.029494301917426226,-0.029494301917426226
0.05354909694752974,0.05354909694752974
0.1630568756705486,0.1630568756705486
0.3099798121239322,0.3099798121239322
0.49523047113037244,0.49523047113037244
0.7060329451721837,0.7060329451721837
0.922310808150146,0.922310808150146
1.1486268841777183,1.1486268841777183
1.4014073400633535,1.4014073400633535
1.6843024350978189,1.6843024350978189
1.9699352246003596,1.9699352246003596
2.2190654211952276,2.2190654211952276
2.4225673766555045,2.4225673766555045
2.5923044336761834,2.5923044336761834
2.7319268515480326,2.7319268515480326
2.8250084634625985,2.8250084634625985
2.874286963887957,2.874286963887957
2.918090075377165,2.918090075377165
2.9792319184975167,2.9792319184975167
3.0111716872917307,3.0111716872917307
2.9354288070083094,2.9354288070083094
2.7082001661580453,2.7082001661580453
2.359600403889768,2.359600403889768
1.963547270841517,1.963547270841517
1.6039967307009384,1.6039967307009384
1.311063422616863,1.311063422616863
1.0272557627597056,1.0272557627597056
0.6594921392149007,0.6594921392149007
0.21051024645052344,0.21051024645052344
-0.2019690534061809,-0.2019690534061809
-0.4830390187952627,-0.4830390187952627
-0.6445629924117156,-0.6445629924117156
-0.7495079470212752,-0.7495079470212752
-0.8079120956735519,-0.8079120956735519
-0.8161251790777784,-0.8161251790777784
-0.8079120956735519,-0.8079120956735519
-0.8270759569500803,-0.8270759569500803
-0.854452901630835,-0.854452901630835
-0.8553654664535268,-0.8553654664535268
-0.8307262162408475,-0.8307262162408475
-0.8152126142550865,-0.8152126142550865
-0.8079120956735519,-0.8079120956735519
-0.7969613178012501,-0.7969613178012501
-0.7841854102835646,-0.7841854102835646
-0.7850979751062563,-0.7850979751062563
-0.7841854102835646,-0.7841854102835646
-0.7659341138297281,-0.7659341138297281
-0.7376446043262815,-0.7376446043262815
-0.7203058726951369,-0.7203058726951369
-0.714830483758986,-0.714830483758986
-0.7057048355320676,-0.7057048355320676
-0.6911037983689985,-0.6911037983689985
-0.6774153260286212,-0.6774153260286212
-0.6673771129790111,-0.6673771129790111
-0.6564263351067092,-0.6564263351067092
-0.6445629924117156,-0.6445629924117156
-0.6390876034755646,-0.6390876034755646
-0.6445629924117156,-0.6445629924117156
-0.6500383813478664,-0.6500383813478664
-0.6445629924117156,-0.6445629924117156
-0.62174887184442,-0.62174887184442
-0.5980221864544325,-0.5980221864544325
-0.5825085844686715,-0.5825085844686715
-0.574295501064445,-0.574295501064445
-0.558781899078684,-0.558781899078684
-0.5277546951071621,-0.5277546951071621
-0.4830390187952627,-0.4830390187952627
-0.43467308319259595,-0.43467308319259595
-0.3863071475899293,-0.3863071475899293
-0.34159147127802997,-0.34159147127802997
-0.2959632301434388,-0.2959632301434388
-0.24850985936346393,-0.24850985936346393
-0.20653187751964003,-0.20653187751964003
-0.1791549328388853,-0.1791549328388853
-0.15269055298082243,-0.15269055298082243
-0.10888744149161489,-0.10888744149161489
-0.051395857662029996,-0.051395857662029996
-0.015805829577048867,-0.015805829577048867
-0.012155570286281572,-0.012155570286281572
-0.015805829577048867,-0.015805829577048867
-0.009417875818206101,-0.009417875818206101
-0.015805829577048867,-0.015805829577048867
-0.04865816319395452,-0.04865816319395452
-0.0860733209243193,-0.0860733209243193
-0.10067435808738848,-0.10067435808738848
-0.10888744149161489,-0.10888744149161489
-0.12987643241352684,-0.12987643241352684
-0.15542824744889788,-0.15542824744889788
-0.16090363638504884,-0.16090363638504884
-0.15542824744889788,-0.15542824744889788
-0.16090363638504884,-0.16090363638504884
-0.1791549328388853,-0.1791549328388853
-0.18645545142041992,-0.18645545142041992
-0.1791549328388853,-0.1791549328388853
-0.17185441425735073,-0.17185441425735073
-0.1791549328388853,-0.1791549328388853
-0.18736801624311172,-0.18736801624311172
-0.1791549328388853,-0.1791549328388853
-0.159991071562357,-0.159991071562357
-0.15542824744889788,-0.15542824744889788
-0.1709418494346589,-0.1709418494346589
-0.1791549328388853,-0.1791549328388853
-0.159991071562357,-0.159991071562357
-0.1326141268816023,-0.1326141268816023
-0.12257591383199223,-0.12257591383199223
-0.1326141268816023,-0.1326141268816023
-0.13808951581775325,-0.13808951581775325
-0.1326141268816023,-0.1326141268816023
-0.12075078418660859,-0.12075078418660859
-0.10888744149161489,-0.10888744149161489
-0.10341205255546396,-0.10341205255546396
-0.10888744149161489,-0.10888744149161489
-0.1171005248958413,-0.1171005248958413
-0.10888744149161489,-0.10888744149161489
-0.08881101539239478,-0.08881101539239478
-0.0860733209243193,-0.0860733209243193
-0.10432461737815578,-0.10432461737815578
-0.10888744149161489,-0.10888744149161489
-0.08424819127893565,-0.08424819127893565
-0.06234663553433188,-0.06234663553433188
-0.0705597189385583,-0.0705597189385583
-0.0860733209243193,-0.0860733209243193
-0.07786023752009288,-0.07786023752009288
-0.06234663553433188,-0.06234663553433188
-0.06143407071164006,-0.06143407071164006
-0.06234663553433188,-0.06234663553433188
-0.04865816319395452,-0.04865816319395452
-0.03953251496703629,-0.03953251496703629
-0.044095339080495406,-0.044095339080495406
-0.03953251496703629,-0.03953251496703629
-0.011243005463589749,-0.011243005463589749
0.007008290990246727,0.007008290990246727
-0.004855051704746983,-0.004855051704746983
-0.015805829577048867,-0.015805829577048867
-0.002117357236671511,-0.002117357236671511
0.007008290990246727,0.007008290990246727
-0.007592746172822454,-0.007592746172822454
-0.015805829577048867,-0.015805829577048867
0.00792085581293855,0.00792085581293855
0.030734976380234147,0.030734976380234147
0.019784198507932258,0.019784198507932258
0.007008290990246727,0.007008290990246727
0.027997281912158674,0.027997281912158674
0.05354909694752974,0.05354909694752974
0.0480737080113788,0.0480737080113788
0.030734976380234147,0.030734976380234147
0.04168575425253603,0.04168575425253603
0.07727578233751715,0.07727578233751715
0.11195324559980646,0.11195324559980646
0.1475432736847876,0.1475432736847876
0.19590920928745426,0.19590920928745426
0.24062488559935363,0.24062488559935363
0.25887618205319013,0.25887618205319013
0.2634390061666492,0.2634390061666492
0.2816903026204857,0.2816903026204857
0.3099798121239322,0.3099798121239322
0.3300562382231524,0.3300562382231524
0.3337064975139197,0.3337064975139197
0.3273185437550769,0.3273185437550769
0.3099798121239322,0.3099798121239322
0.27895260815241024,0.27895260815241024
0.24062488559935363,0.24062488559935363
0.21051024645052344,0.21051024645052344
0.1940840796420706,0.1940840796420706
0.17583278318823414,0.17583278318823414
0.1475432736847876,0.1475432736847876
0.11560350489057376,0.11560350489057376
0.10100246772750458,0.10100246772750458
0.1019150325501964,0.1019150325501964
0.10100246772750458,0.10100246772750458
0.08822656020981905,0.08822656020981905
0.07727578233751715,0.07727578233751715
0.06997526375598256,0.06997526375598256
0.05354909694752974,0.05354909694752974
0.03894805978446056,0.03894805978446056
0.05354909694752974,0.05354909694752974
0.09735220843673728,0.09735220843673728
0.12381658829480019,0.12381658829480019
0.11104068077711464,0.11104068077711464
0.10100246772750458,0.10100246772750458
0.11560350489057376,0.11560350489057376
0.12381658829480019,0.12381658829480019
0.09005168985520269,0.09005168985520269
0.05354909694752974,0.05354909694752974
0.05446166177022156,0.05446166177022156
0.07727578233751715,0.07727578233751715
0.07362552304674987,0.07362552304674987
0.05354909694752974,0.05354909694752974
0.04533601354330333,0.04533601354330333
0.05354909694752974,0.05354909694752974
0.05354909694752974,0.05354909694752974
0.05354909694752974,0.05354909694752974
0.0672375692879071,0.0672375692879071
0.10100246772750458,0.10100246772750458
0.13659249581248573,0.13659249581248573
0.1940840796420706,0.1940840796420706
0.2871656915566366,0.2871656915566366
0.42678810942848566,0.42678810942848566
0.5974377312718567,0.5974377312718567
0.7991145570867497,0.7991145570867497
1.009917031128561,1.009917031128561
1.2179818107022968,1.2179818107022968
1.4497732756660202,1.4497732756660202
1.7536573616223974,1.7536573616223974
2.1104702072949006,2.1104702072949006
2.428955330414347,2.428955330414347
2.668959878782297,2.668959878782297
2.8715492694198814,2.8715492694198814
3.0577124932490136,3.0577124932490136
3.1745207905535673,3.1745207905535673
3.211935948283932,3.211935948283932
3.267602402468133,3.267602402468133
3.3953614776449883,3.3953614776449883
3.5003064322545483,3.5003064322545483
3.4628912745241833,3.4628912745241833
3.2904165230354288,3.2904165230354288
3.054062233958246,3.054062233958246
2.754740972115328,2.754740972115328
2.362338098357844,2.362338098357844
1.917006464884234,1.917006464884234
1.5054397298502213,1.5054397298502213
1.1486268841777183,1.1486268841777183
0.7963768626186742,0.7963768626186742
0.42678810942848566,0.42678810942848566
0.08183860645097628,0.08183860645097628
-0.1791549328388853,-0.1791549328388853
-0.34980455468225635,-0.34980455468225635
-0.4583997685825834,-0.4583997685825834
-0.5341426488660048,-0.5341426488660048
-0.574295501064445,-0.574295501064445
-0.5834211492913634,-0.5834211492913634
-0.574295501064445,-0.574295501064445
-0.5733829362417533,-0.5733829362417533
-0.574295501064445,-0.574295501064445
-0.5761206307098287,-0.5761206307098287
-0.574295501064445,-0.574295501064445
-0.579770890000596,-0.579770890000596
-0.574295501064445,-0.574295501064445
-0.5615195935467595,-0.5615195935467595
-0.5514813804971495,-0.5514813804971495
-0.5560442046106086,-0.5560442046106086
-0.5514813804971495,-0.5514813804971495
-0.5286672599298539,-0.5286672599298539
-0.5049405745398665,-0.5049405745398665
-0.5012903152490992,-0.5012903152490992
-0.5049405745398665,-0.5049405745398665
-0.4958149263129482,-0.4958149263129482
-0.48121388914987906,-0.48121388914987906
-0.47026311127757714,-0.47026311127757714
-0.4583997685825834,-0.4583997685825834
-0.4410610369514387,-0.4410610369514387
-0.43467308319259595,-0.43467308319259595
-0.4410610369514387,-0.4410610369514387
-0.43467308319259595,-0.43467308319259595
-0.3999956199303067,-0.3999956199303067
-0.36531815666801737,-0.36531815666801737
-0.35710507326379093,-0.35710507326379093
-0.36531815666801737,-0.36531815666801737
-0.3598427677318664,-0.3598427677318664
-0.34159147127802997,-0.34159147127802997
-0.32607786929226895,-0.32607786929226895
-0.3187773507107344,-0.3187773507107344
-0.3087391376611243,-0.3087391376611243
-0.2950506653207469,-0.2950506653207469
-0.28318732262575325,-0.28318732262575325
-0.2722365447534513,-0.2722365447534513
-0.2521601186542312,-0.2521601186542312
-0.22569573879616833,-0.22569573879616833
-0.20014392376079726,-0.20014392376079726
-0.1791549328388853,-0.1791549328388853
-0.15725337709428155,-0.15725337709428155
-0.1326141268816023,-0.1326141268816023
-0.10706231184623125,-0.10706231184623125
-0.0860733209243193,-0.0860733209243193
-0.057783811420872765,-0.057783811420872765
-0.015805829577048867,-0.015805829577048867
0.0289098467348505,0.0289098467348505
0.05354909694752974,0.05354909694752974
0.06084961552906433,0.06084961552906433
0.07727578233751715,0.07727578233751715
0.11560350489057376,0.11560350489057376
0.1475432736847876,0.1475432736847876
0.15301866262093855,0.15301866262093855
0.1475432736847876,0.1475432736847876
0.14936840333017126,0.14936840333017126
0.1475432736847876,0.1475432736847876
0.1320296716990266,0.1320296716990266
0.12381658829480019,0.12381658829480019
0.13659249581248573,0.13659249581248573
0.1475432736847876,0.1475432736847876
0.13659249581248573,0.13659249581248573
0.12381658829480019,0.12381658829480019
0.13111710687633477,0.13111710687633477
0.1475432736847876,0.1475432736847876
0.1548437922663222,0.1548437922663222
0.1703573942520832,0.1703573942520832
0.20685998715975615,0.20685998715975615
0.24062488559935363,0.24062488559935363
0.2470128393581964,0.2470128393581964
0.24062488559935363,0.24062488559935363
0.24062488559935363,0.24062488559935363
0.24062488559935363,0.24062488559935363
0.22511128361359262,0.22511128361359262
0.2168982002093662,0.2168982002093662
0.24062488559935363,0.24062488559935363
0.2871656915566366,0.2871656915566366
0.32184315481892595,0.32184315481892595
0.3337064975139197,0.3337064975139197
0.3391818864500706,0.3391818864500706
0.35652061808121527,0.35652061808121527
0.3811598682938945,0.3811598682938945
0.40306142403849826,0.40306142403849826
0.41766246120156747,0.41766246120156747
0.42678810942848566,0.42678810942848566
0.430438368719253,0.430438368719253
0.42678810942848566,0.42678810942848566
0.414924766733492,0.414924766733492
0.40306142403849826,0.40306142403849826
0.3930232109888882,0.3930232109888882
0.38024730347120267,0.38024730347120267
0.35925831254929075,0.35925831254929075
0.3337064975139197,0.3337064975139197
0.30267929354239764,0.30267929354239764
0.2634390061666492,0.2634390061666492
0.22146102432282533,0.22146102432282533
0.1940840796420706,0.1940840796420706
0.18860869070591968,0.18860869070591968
0.1940840796420706,0.1940840796420706
0.19499664446476245,0.19499664446476245
0.1940840796420706,0.1940840796420706
0.19043382035130332,0.19043382035130332
0.1703573942520832,0.1703573942520832
0.1320296716990266,0.1320296716990266
0.10100246772750458,0.10100246772750458
0.10008990290481275,0.10008990290481275
0.12381658829480019,0.12381658829480019
0.1438930143940203,0.1438930143940203
0.1475432736847876,0.1475432736847876
0.1320296716990266,0.1320296716990266
0.10100246772750458,0.10100246772750458
0.06541243964252345,0.06541243964252345
0.05354909694752974,0.05354909694752974
0.06632500446521528,0.06632500446521528
0.07727578233751715,0.07727578233751715
0.06541243964252345,0.06541243964252345
0.05354909694752974,0.05354909694752974
0.05354909694752974,0.05354909694752974
0.05354909694752974,0.05354909694752974
0.037122930139076915,0.037122930139076915
0.030734976380234147,0.030734976380234147
0.04716114318868697,0.04716114318868697
0.07727578233751715,0.07727578233751715
0.09643964361404546,0.09643964361404546
0.12381658829480019,0.12381658829480019
0.15758148673439767,0.15758148673439767
0.1940840796420706,0.1940840796420706
0.2397123207766618,0.2397123207766618
0.35652061808121527,0.35652061808121527
0.5600225735414919,0.5600225735414919
0.7991145570867497,0.7991145570867497
1.0163049848874037,1.0163049848874037
1.2417084960922842,1.2417084960922842
1.5209533318359825,1.5209533318359825
1.8467389735369635,1.8467389735369635
2.164311531833718,2.164311531833718
2.4526820158043345,2.4526820158043345
2.7209760736757307,2.7209760736757307
2.9646308813344477,2.9646308813344477
3.165395142326649,3.165395142326649
3.314143208425416,3.314143208425416
3.411787644453441,3.411787644453441
3.476579746864561,3.476579746864561
3.5705739236018186,3.5705739236018186
3.7330104620409634,3.7330104620409634
3.8726328799128122,3.8726328799128122
3.802365388565542,3.802365388565542
3.466541533814951,3.466541533814951
3.0111716872917307,3.0111716872917307
2.60051751708041,2.60051751708041
2.242792106585215,2.242792106585215
1.879591307153869,1.879591307153869
1.5209533318359825,1.5209533318359825
1.1924299956669258,1.1924299956669258
0.8456553630440328,0.8456553630440328
0.4340886280100203,0.4340886280100203
0.030734976380234147,0.030734976380234147
-0.2558103779449985,-0.2558103779449985
-0.41185896262530036,-0.41185896262530036
-0.5204541765256274,-0.5204541765256274
-0.6208363070217281,-0.6208363070217281
-0.6947540576597658,-0.6947540576597658
-0.714830483758986,-0.714830483758986
-0.7130053541136023,-0.7130053541136023
-0.714830483758986,-0.714830483758986
-0.7230435671632124,-0.7230435671632124
-0.714830483758986,-0.714830483758986
-0.703879705886684,-0.703879705886684
-0.714830483758986,-0.714830483758986
-0.7631964193616526,-0.7631964193616526
-0.8079120956735519,-0.8079120956735519
-0.8079120956735519,-0.8079120956735519
-0.761371289716269,-0.761371289716269
-0.7130053541136023,-0.7130053541136023
-0.6911037983689985,-0.6911037983689985
-0.6774153260286212,-0.6774153260286212
-0.6445629924117156,-0.6445629924117156
-0.610798093972118,-0.610798093972118
-0.6208363070217281,-0.6208363070217281
-0.6746776315605457,-0.6746776315605457
-0.714830483758986,-0.714830483758986
-0.6965791873051494,-0.6965791873051494
-0.6445629924117156,-0.6445629924117156
-0.5998473160998161,-0.5998473160998161
-0.574295501064445,-0.574295501064445
-0.5551316397879168,-0.5551316397879168
-0.5514813804971495,-0.5514813804971495
-0.5724703714190614,-0.5724703714190614
-0.5980221864544325,-0.5980221864544325
-0.5898091030502061,-0.5898091030502061
-0.5514813804971495,-0.5514813804971495
-0.5222793061710111,-0.5222793061710111
-0.5277546951071621,-0.5277546951071621
-0.5441808619156149,-0.5441808619156149
-0.5277546951071621,-0.5277546951071621
-0.465700287164118,-0.465700287164118
-0.38813227723531296,-0.38813227723531296
-0.336116082341879,-0.336116082341879
-0.3187773507107344,-0.3187773507107344
-0.3005260542568979,-0.3005260542568979
-0.24850985936346393,-0.24850985936346393
-0.17276697908004254,-0.17276697908004254
-0.10888744149161489,-0.10888744149161489
-0.06417176517971553,-0.06417176517971553
-0.015805829577048867,-0.015805829577048867
0.03347267084830962,0.03347267084830962
0.05354909694752974,0.05354909694752974
0.043510883897919676,0.043510883897919676
0.05354909694752974,0.05354909694752974
0.09643964361404546,0.09643964361404546
0.12381658829480019,0.12381658829480019
0.09917733808212092,0.09917733808212092
0.07727578233751715,0.07727578233751715
0.08913912503251087,0.08913912503251087
0.10100246772750458,0.10100246772750458
0.07180039340136622,0.07180039340136622
0.05354909694752974,0.05354909694752974
0.09187681950058633,0.09187681950058633
0.1703573942520832,0.1703573942520832
0.2670892654574165,0.2670892654574165
0.42678810942848566,0.42678810942848566
0.6695303522645107,0.6695303522645107
0.9387369749585988,0.9387369749585988
1.1887797363761585,1.1887797363761585
1.4744125258786993,1.4744125258786993
1.8503892328277307,1.8503892328277307
2.2656062271525106,2.2656062271525106
2.6388452396334667,2.6388452396334667
2.9646308813344477,2.9646308813344477
3.2749029210496676,3.2749029210496676
3.523120552821844,3.523120552821844
3.6335408963675544,3.6335408963675544
3.593388044169114,3.593388044169114
3.4510279318291897,3.4510279318291897
3.243875717078146,3.243875717078146
