ECG,PPG
-0.027231499648134955,-0.027231499648134955
-0.08225911900407644,-0.08225911900407644
-0.0898254166655184,-0.0898254166655184
-0.11321215489179352,-0.11321215489179352
-0.15241933368290184,-0.15241933368290184
-0.1641127027960394,-0.1641127027960394
-0.15241933368290184,-0.15241933368290184
-0.14691657174730768,-0.14691657174730768
-0.15241933368290184,-0.15241933368290184
-0.14966795271510475,-0.14966795271510475
-0.15241933368290184,-0.15241933368290184
-0.17855745287697403,-0.17855745287697403
-0.21432540545833598,-0.21432540545833598
-0.22739446505537209,-0.22739446505537209
-0.21432540545833598,-0.21432540545833598
-0.2053834173129955,-0.2053834173129955
-0.21432540545833598,-0.21432540545833598
-0.22533092932952428,-0.22533092932952428
-0.21432540545833598,-0.21432540545833598
-0.18268452432866963,-0.18268452432866963
-0.15241933368290184,-0.15241933368290184
-0.14347734553756133,-0.14347734553756133
-0.15241933368290184,-0.15241933368290184
-0.15792209561849596,-0.15792209561849596
-0.15241933368290184,-0.15241933368290184
-0.1462287265053584,-0.1462287265053584
-0.15241933368290184,-0.15241933368290184
-0.1620491670701916,-0.1620491670701916
-0.15241933368290184,-0.15241933368290184
-0.10358232150450376,-0.10358232150450376
-0.027231499648134955,-0.027231499648134955
0.04843147696628458,0.04843147696628458
0.09726848914468264,0.09726848914468264
0.12753367979045047,0.12753367979045047
0.15986240616206607,0.15986240616206607
0.21489002551800757,0.21489002551800757
0.28505024019683295,0.28505024019683295
0.35245907390786124,0.35245907390786124
0.40955022898965054,0.40955022898965054
0.4700806102811862,0.4700806102811862
0.5347380630244174,0.5347380630244174
0.5725695513316272,0.5725695513316272
0.5347380630244174,0.5347380630244174
0.41918006237694033,0.41918006237694033
0.28505024019683295,0.28505024019683295
0.19563035874342805,0.19563035874342805
0.15986240616206607,0.15986240616206607
0.13785135841968948,0.13785135841968948
0.09726848914468264,0.09726848914468264
0.016790595836618228,0.016790595836618228
-0.0898254166655184,-0.0898254166655184
-0.2026320363451984,-0.2026320363451984
-0.27691932247571943,-0.27691932247571943
-0.31337512029903064,-0.31337512029903064
-0.33951323949310286,-0.33951323949310286
-0.37596903731641407,-0.37596903731641407
-0.4021071565104863,-0.4021071565104863
-0.40279500175243554,-0.40279500175243554
-0.4021071565104863,-0.4021071565104863
-0.4254938947367614,-0.4254938947367614
-0.46401322828592045,-0.46401322828592045
-0.4853364307863478,-0.4853364307863478
-0.46401322828592045,-0.46401322828592045
-0.3470795371545448,-0.3470795371545448
-0.027231499648134955,-0.027231499648134955
0.613152420606634,0.613152420606634
1.596083271352139,1.596083271352139
2.7984367542794604,2.7984367542794604
3.9677736655932163,3.9677736655932163
4.812447622706918,4.812447622706918
5.091712790938321,5.091712790938321
4.726466967463259,4.726466967463259
3.8432736768003988,3.8432736768003988
2.7385942182298737,2.7385942182298737
1.7205832601449564,1.7205832601449564
0.9687684106944059,0.9687684106944059
0.47214414600703397,0.47214414600703397
0.12890937027434898,0.12890937027434898
-0.15241933368290184,-0.15241933368290184
-0.39178947788124724,-0.39178947788124724
-0.5892010623206874,-0.5892010623206874
-0.7350242536139322,-0.7350242536139322
-0.8388888851482718,-0.8388888851482718
-0.9090490998270971,-0.9090490998270971
-0.9633888739410893,-0.9633888739410893
-1.0039717432160962,-1.0039717432160962
-1.0259827909584727,-1.0259827909584727
-1.02873417192627,-1.02873417192627
-1.0259827909584727,-1.0259827909584727
-1.02873417192627,-1.02873417192627
-1.0259827909584727,-1.0259827909584727
-1.0246071004745743,-1.0246071004745743
-1.0259827909584727,-1.0259827909584727
-1.0356126243457626,-1.0356126243457626
-1.0259827909584727,-1.0259827909584727
-0.9943419098288064,-0.9943419098288064
-0.9633888739410893,-0.9633888739410893
-0.9578861120054951,-0.9578861120054951
-0.9633888739410893,-0.9633888739410893
-0.9455048976504083,-0.9455048976504083
-0.9014828021656551,-0.9014828021656551
-0.8567728614389527,-0.8567728614389527
-0.8388888851482718,-0.8388888851482718
-0.839576730390221,-0.839576730390221
-0.8388888851482718,-0.8388888851482718
-0.8155021469219966,-0.8155021469219966
-0.7762949681308883,-0.7762949681308883
-0.73708778933978,-0.73708778933978
-0.7137010511135049,-0.7137010511135049
-0.6903143128872298,-0.6903143128872298
-0.6517949793380707,-0.6517949793380707
-0.6057093481274698,-0.6057093481274698
-0.5892010623206874,-0.5892010623206874
-0.5974552052240786,-0.5974552052240786
-0.5892010623206874,-0.5892010623206874
-0.5341734429647459,-0.5341734429647459
-0.46401322828592045,-0.46401322828592045
-0.41930328755921803,-0.41930328755921803
-0.4021071565104863,-0.4021071565104863
-0.37872041828421116,-0.37872041828421116
-0.33951323949310286,-0.33951323949310286
-0.30030606070199456,-0.30030606070199456
-0.27691932247571943,-0.27691932247571943
-0.25422042949139356,-0.25422042949139356
-0.21432540545833598,-0.21432540545833598
-0.15379502416680035,-0.15379502416680035
-0.0898254166655184,-0.0898254166655184
-0.02654365440618569,-0.02654365440618569
0.03536241736924848,0.03536241736924848
0.082823739063748,0.082823739063748
0.09726848914468264,0.09726848914468264
0.10827401301587095,0.10827401301587095
0.15986240616206607,0.15986240616206607
0.24309168043792756,0.24309168043792756
0.28505024019683295,0.28505024019683295
0.2747325615675939,0.2747325615675939
0.28505024019683295,0.28505024019683295
0.3558983001176076,0.3558983001176076
0.40955022898965054,0.40955022898965054
0.37309443116633934,0.37309443116633934
0.28505024019683295,0.28505024019683295
0.23483753753453634,0.23483753753453634
0.22245632317944952,0.22245632317944952
0.1832491443883412,0.1832491443883412
0.09726848914468264,0.09726848914468264
0.01610275059466896,0.01610275059466896
-0.027231499648134955,-0.027231499648134955
-0.05199392835830862,-0.05199392835830862
-0.0898254166655184,-0.0898254166655184
-0.1310961311824745,-0.1310961311824745
-0.15241933368290184,-0.15241933368290184
-0.1489801074731555,-0.1489801074731555
-0.15241933368290184,-0.15241933368290184
-0.17924529811892329,-0.17924529811892329
-0.21432540545833598,-0.21432540545833598
-0.22670661981342283,-0.22670661981342283
-0.21432540545833598,-0.21432540545833598
-0.20469557207104624,-0.20469557207104624
-0.21432540545833598,-0.21432540545833598
-0.22670661981342283,-0.22670661981342283
-0.21432540545833598,-0.21432540545833598
-0.18062098860282183,-0.18062098860282183
-0.15241933368290184,-0.15241933368290184
-0.1462287265053584,-0.1462287265053584
-0.15241933368290184,-0.15241933368290184
-0.15379502416680035,-0.15379502416680035
-0.15241933368290184,-0.15241933368290184
-0.1531071789248511,-0.1531071789248511
-0.15241933368290184,-0.15241933368290184
-0.1489801074731555,-0.1489801074731555
-0.15241933368290184,-0.15241933368290184
-0.1592977861023945,-0.1592977861023945
-0.15241933368290184,-0.15241933368290184
-0.12146629779518474,-0.12146629779518474
-0.0898254166655184,-0.0898254166655184
-0.06437514271339545,-0.06437514271339545
-0.027231499648134955,-0.027231499648134955
0.036050262611197745,0.036050262611197745
0.09726848914468264,0.09726848914468264
0.13441213220994314,0.13441213220994314
0.15986240616206607,0.15986240616206607
0.21007510882436267,0.21007510882436267
0.28505024019683295,0.28505024019683295
0.3586496810854047,0.3586496810854047
0.40955022898965054,0.40955022898965054
0.44669387205491107,0.44669387205491107
0.47214414600703397,0.47214414600703397
0.46801707455533836,0.46801707455533836
0.40955022898965054,0.40955022898965054
0.3139397403587022,0.3139397403587022
0.22245632317944952,0.22245632317944952
0.15573533471037046,0.15573533471037046
0.09726848914468264,0.09726848914468264
0.0305475006756036,0.0305475006756036
-0.027231499648134955,-0.027231499648134955
-0.08157127376212717,-0.08157127376212717
-0.15241933368290184,-0.15241933368290184
-0.25422042949139356,-0.25422042949139356
-0.33951323949310286,-0.33951323949310286
-0.38147179925200825,-0.38147179925200825
-0.4021071565104863,-0.4021071565104863
-0.4344358828821019,-0.4344358828821019
-0.46401322828592045,-0.46401322828592045
-0.46676460925371754,-0.46676460925371754
-0.46401322828592045,-0.46401322828592045
-0.48808781175414484,-0.48808781175414484
-0.5266071453033039,-0.5266071453033039
-0.5327977524808473,-0.5327977524808473
-0.46401322828592045,-0.46401322828592045
-0.26316241763673404,-0.26316241763673404
0.15986240616206607,0.15986240616206607
0.8896662078702401,0.8896662078702401
1.9076771659551575,1.9076771659551575
3.0632571724299282,3.0632571724299282
4.092961499627983,4.092961499627983
4.710646526898426,4.710646526898426
4.71683713407597,4.71683713407597
4.12460238075765,4.12460238075765
3.1561162800930793,3.1561162800930793
2.131914714830619,2.131914714830619
1.283801531507171,1.283801531507171
0.6881275519791042,0.6881275519791042
0.28505024019683295,0.28505024019683295
-0.01622597577694666,-0.01622597577694666
-0.27691932247571943,-0.27691932247571943
-0.4942784189316883,-0.4942784189316883
-0.6517949793380707,-0.6517949793380707
-0.7535960751465625,-0.7535960751465625
-0.8388888851482718,-0.8388888851482718
-0.9152397070046405,-0.9152397070046405
-0.9633888739410893,-0.9633888739410893
-0.9682037906347342,-0.9682037906347342
-0.9633888739410893,-0.9633888739410893
-0.9853999216834659,-0.9853999216834659
-1.0259827909584727,-1.0259827909584727
-1.0479938387008494,-1.0479938387008494
-1.0259827909584727,-1.0259827909584727
-0.9895269931351616,-0.9895269931351616
-0.9633888739410893,-0.9633888739410893
-0.9613253382152415,-0.9613253382152415
-0.9633888739410893,-0.9633888739410893
-0.9647645644249878,-0.9647645644249878
-0.9633888739410893,-0.9633888739410893
-0.9468805881343069,-0.9468805881343069
-0.9014828021656551,-0.9014828021656551
-0.8492065637775107,-0.8492065637775107
-0.8388888851482718,-0.8388888851482718
-0.8560850161970034,-0.8560850161970034
-0.8388888851482718,-0.8388888851482718
-0.7680408252274971,-0.7680408252274971
-0.7137010511135049,-0.7137010511135049
-0.7130132058715556,-0.7130132058715556
-0.7137010511135049,-0.7137010511135049
-0.6579855865156142,-0.6579855865156142
-0.5892010623206874,-0.5892010623206874
-0.5706292407880571,-0.5706292407880571
-0.5892010623206874,-0.5892010623206874
-0.5768198479656005,-0.5768198479656005
-0.5266071453033039,-0.5266071453033039
-0.48189720457660146,-0.48189720457660146
-0.46401322828592045,-0.46401322828592045
-0.44269002578549316,-0.44269002578549316
-0.4021071565104863,-0.4021071565104863
-0.35946075150963164,-0.35946075150963164
-0.33951323949310286,-0.33951323949310286
-0.32231710844437117,-0.32231710844437117
-0.27691932247571943,-0.27691932247571943
-0.20675910779689405,-0.20675910779689405
-0.15241933368290184,-0.15241933368290184
-0.12284198827908328,-0.12284198827908328
-0.0898254166655184,-0.0898254166655184
-0.027231499648134955,-0.027231499648134955
0.03536241736924848,0.03536241736924848
0.07113036995061044,0.07113036995061044
0.09726848914468264,0.09726848914468264
0.1522961085006241,0.1522961085006241
0.22245632317944952,0.22245632317944952
0.26991764487394904,0.26991764487394904
0.28505024019683295,0.28505024019683295
0.30430990697141247,0.30430990697141247
0.3476441572142164,0.3476441572142164
0.3937297884248174,0.3937297884248174
0.40955022898965054,0.40955022898965054
0.4047353122960057,0.4047353122960057
0.40955022898965054,0.40955022898965054
0.42674636003838223,0.42674636003838223
0.40955022898965054,0.40955022898965054
0.33113587140743395,0.33113587140743395
0.22245632317944952,0.22245632317944952
0.14129058462943583,0.14129058462943583
0.09726848914468264,0.09726848914468264
0.05118285793408165,0.05118285793408165
-0.027231499648134955,-0.027231499648134955
-0.1090850834400979,-0.1090850834400979
-0.15241933368290184,-0.15241933368290184
-0.1531071789248511,-0.1531071789248511
-0.15241933368290184,-0.15241933368290184
-0.17786960763502477,-0.17786960763502477
-0.21432540545833598,-0.21432540545833598
-0.22739446505537209,-0.22739446505537209
-0.21432540545833598,-0.21432540545833598
-0.20400772682909696,-0.20400772682909696
-0.21432540545833598,-0.21432540545833598
-0.22739446505537209,-0.22739446505537209
-0.21432540545833598,-0.21432540545833598
-0.17924529811892329,-0.17924529811892329
-0.15241933368290184,-0.15241933368290184
-0.1489801074731555,-0.1489801074731555
-0.15241933368290184,-0.15241933368290184
-0.13315966690832232,-0.13315966690832232
-0.0898254166655184,-0.0898254166655184
-0.04717901166466374,-0.04717901166466374
-0.027231499648134955,-0.027231499648134955
-0.02585580916423642,-0.02585580916423642
-0.027231499648134955,-0.027231499648134955
-0.02585580916423642,-0.02585580916423642
-0.027231499648134955,-0.027231499648134955
-0.02998288061593203,-0.02998288061593203
-0.027231499648134955,-0.027231499648134955
-0.02172873771254081,-0.02172873771254081
-0.027231499648134955,-0.027231499648134955
-0.03823702351932325,-0.03823702351932325
-0.027231499648134955,-0.027231499648134955
0.02573258398195872,0.02573258398195872
0.09726848914468264,0.09726848914468264
0.14748119180697924,0.14748119180697924
0.15986240616206607,0.15986240616206607
0.17224362051715292,0.17224362051715292
0.22245632317944952,0.22245632317944952
0.3153154308426008,0.3153154308426008
0.40955022898965054,0.40955022898965054
0.46801707455533836,0.46801707455533836
0.47214414600703397,0.47214414600703397
0.42880989576423006,0.42880989576423006
0.3476441572142164,0.3476441572142164
0.24790659713157245,0.24790659713157245
0.15986240616206607,0.15986240616206607
0.11033754874171875,0.11033754874171875
0.09726848914468264,0.09726848914468264
0.08213589382179874,0.08213589382179874
0.03536241736924848,0.03536241736924848
-0.05336961884220716,-0.05336961884220716
-0.15241933368290184,-0.15241933368290184
-0.25009335803969795,-0.25009335803969795
-0.33951323949310286,-0.33951323949310286
-0.4172397518333702,-0.4172397518333702
-0.46401322828592045,-0.46401322828592045
-0.47501875215710876,-0.47501875215710876
-0.46401322828592045,-0.46401322828592045
-0.45713477586642776,-0.45713477586642776
-0.46401322828592045,-0.46401322828592045
-0.4715795259473624,-0.4715795259473624
-0.46401322828592045,-0.46401322828592045
-0.4303088114304063,-0.4303088114304063
-0.33951323949310286,-0.33951323949310286
-0.093952488117214,-0.093952488117214
0.40955022898965054,0.40955022898965054
1.1902545786020704,1.1902545786020704
2.1573649887827417,2.1573649887827417
3.2022019113036806,3.2022019113036806
4.154867571403417,4.154867571403417
4.705831610204782,4.705831610204782
4.529743228265769,4.529743228265769
3.657555461474096,3.657555461474096
2.532240645645093,2.532240645645093
1.6077766404652765,1.6077766404652765
0.971519791662203,0.971519791662203
0.48796458657186714,0.48796458657186714
0.09726848914468264,0.09726848914468264
-0.1620491670701916,-0.1620491670701916
-0.33951323949310286,-0.33951323949310286
-0.5238557643355068,-0.5238557643355068
-0.7137010511135049,-0.7137010511135049
-0.8230684445834385,-0.8230684445834385
-0.8388888851482718,-0.8388888851482718
-0.8258198255512356,-0.8258198255512356
-0.8388888851482718,-0.8388888851482718
-0.8691540757940396,-0.8691540757940396
-0.9014828021656551,-0.9014828021656551
-0.93449937377922,-0.93449937377922
-0.9633888739410893,-0.9633888739410893
-0.9764579335381254,-0.9764579335381254
-0.9633888739410893,-0.9633888739410893
-0.952383350069901,-0.952383350069901
-0.9633888739410893,-0.9633888739410893
-1.0012203622482991,-1.0012203622482991
-1.0259827909584727,-1.0259827909584727
-1.0094745051516902,-1.0094745051516902
-0.9633888739410893,-0.9633888739410893
-0.9248695403919303,-0.9248695403919303
-0.9014828021656551,-0.9014828021656551
-0.8588363971648005,-0.8588363971648005
-0.7762949681308883,-0.7762949681308883
-0.6868750866774834,-0.6868750866774834
-0.6517949793380707,-0.6517949793380707
-0.6765574080482444,-0.6765574080482444
-0.7137010511135049,-0.7137010511135049
-0.7205795035329975,-0.7205795035329975
-0.7137010511135049,-0.7137010511135049
-0.7150767415974034,-0.7150767415974034
-0.7137010511135049,-0.7137010511135049
-0.6882507771613819,-0.6882507771613819
-0.6517949793380707,-0.6517949793380707
-0.6215297886923029,-0.6215297886923029
-0.5892010623206874,-0.5892010623206874
-0.5327977524808473,-0.5327977524808473
-0.46401322828592045,-0.46401322828592045
-0.401419311268537,-0.401419311268537
-0.33951323949310286,-0.33951323949310286
-0.25215689376554573,-0.25215689376554573
-0.15241933368290184,-0.15241933368290184
-0.08638619045577205,-0.08638619045577205
-0.0898254166655184,-0.0898254166655184
-0.13247182166637303,-0.13247182166637303
-0.15241933368290184,-0.15241933368290184
-0.11046077392399645,-0.11046077392399645
-0.027231499648134955,-0.027231499648134955
0.06837898898281336,0.06837898898281336
0.15986240616206607,0.15986240616206607
0.23965245422818124,0.23965245422818124
0.28505024019683295,0.28505024019683295
0.2912408473743764,0.2912408473743764
0.28505024019683295,0.28505024019683295
0.30430990697141247,0.30430990697141247
0.3476441572142164,0.3476441572142164
0.38753918124727393,0.38753918124727393
0.40955022898965054,0.40955022898965054
0.43568834818372276,0.43568834818372276
0.47214414600703397,0.47214414600703397
0.48108613415237444,0.48108613415237444
0.40955022898965054,0.40955022898965054
0.27679609729344173,0.27679609729344173
0.15986240616206607,0.15986240616206607
0.11171323922561728,0.11171323922561728
0.09726848914468264,0.09726848914468264
0.07181821519255971,0.07181821519255971
0.03536241736924848,0.03536241736924848
0.008536452933227006,0.008536452933227006
-0.027231499648134955,-0.027231499648134955
-0.08776188093967059,-0.08776188093967059
-0.15241933368290184,-0.15241933368290184
-0.19093866723206085,-0.19093866723206085
-0.21432540545833598,-0.21432540545833598
-0.2294580007812199,-0.2294580007812199
-0.21432540545833598,-0.21432540545833598
-0.16961546473163353,-0.16961546473163353
-0.15241933368290184,-0.15241933368290184
-0.20194419110324915,-0.20194419110324915
-0.27691932247571943,-0.27691932247571943
-0.3051209773956394,-0.3051209773956394
-0.27691932247571943,-0.27691932247571943
-0.23771214368461113,-0.23771214368461113
-0.21432540545833598,-0.21432540545833598
-0.19162651247401014,-0.19162651247401014
-0.15241933368290184,-0.15241933368290184
-0.1090850834400979,-0.1090850834400979
-0.0898254166655184,-0.0898254166655184
-0.10770939295619937,-0.10770939295619937
-0.15241933368290184,-0.15241933368290184
-0.19575358392570574,-0.19575358392570574
-0.21432540545833598,-0.21432540545833598
-0.196441429167655,-0.196441429167655
-0.15241933368290184,-0.15241933368290184
-0.10839723819814864,-0.10839723819814864
-0.0898254166655184,-0.0898254166655184
-0.0918889523913662,-0.0918889523913662
-0.0898254166655184,-0.0898254166655184
-0.065750833197294,-0.065750833197294
-0.027231499648134955,-0.027231499648134955
0.02435689349806018,0.02435689349806018
0.09726848914468264,0.09726848914468264
0.1942546682595295,0.1942546682595295
0.28505024019683295,0.28505024019683295
0.351771228665912,0.351771228665912
0.40955022898965054,0.40955022898965054
0.4934673485074613,0.4934673485074613
0.5973319800418009,0.5973319800418009
0.6709314209303726,0.6709314209303726
0.659238051817235,0.659238051817235
0.5588126464926418,0.5588126464926418
0.40955022898965054,0.40955022898965054
0.2664784186642027,0.2664784186642027
0.15986240616206607,0.15986240616206607
0.10552263204807387,0.10552263204807387
0.09726848914468264,0.09726848914468264
0.08901434624129143,0.08901434624129143
0.03536241736924848,0.03536241736924848
-0.06712652368119253,-0.06712652368119253
-0.15241933368290184,-0.15241933368290184
-0.20882264352274185,-0.20882264352274185
-0.27691932247571943,-0.27691932247571943
-0.3800961087681097,-0.3800961087681097
-0.46401322828592045,-0.46401322828592045
-0.4825850498185507,-0.4825850498185507
-0.46401322828592045,-0.46401322828592045
-0.45851046635032633,-0.45851046635032633
-0.46401322828592045,-0.46401322828592045
-0.4605740020761741,-0.4605740020761741
-0.46401322828592045,-0.46401322828592045
-0.49221488320584045,-0.49221488320584045
-0.46401322828592045,-0.46401322828592045
-0.2012563458612999,-0.2012563458612999
0.40955022898965054,0.40955022898965054
1.296870591104207,1.296870591104207
2.2825528228175087,2.2825528228175087
3.265483673563013,3.265483673563013
4.154867571403417,4.154867571403417
4.6776299552848615,4.6776299552848615
4.467149311248385,4.467149311248385
3.5096687344550035,3.5096687344550035
2.2825528228175087,2.2825528228175087
1.3168181031207358,1.3168181031207358
0.7218319688346185,0.7218319688346185
0.3098126689070066,0.3098126689070066
-0.027231499648134955,-0.027231499648134955
-0.24115136989435745,-0.24115136989435745
-0.33951323949310286,-0.33951323949310286
-0.4151762161075224,-0.4151762161075224
-0.5266071453033039,-0.5266071453033039
-0.6511071340961215,-0.6511071340961215
-0.7762949681308883,-0.7762949681308883
-0.8904772782944669,-0.8904772782944669
-0.9633888739410893,-0.9633888739410893
-0.9743943978122777,-0.9743943978122777
-0.9633888739410893,-0.9633888739410893
-0.9661402549088864,-0.9661402549088864
-0.9633888739410893,-0.9633888739410893
-0.9365629095050678,-0.9365629095050678
-0.9014828021656551,-0.9014828021656551
-0.8946043497461624,-0.8946043497461624
-0.9014828021656551,-0.9014828021656551
-0.9049220283754015,-0.9049220283754015
-0.9014828021656551,-0.9014828021656551
-0.8863502068427712,-0.8863502068427712
-0.8388888851482718,-0.8388888851482718
-0.7625380632919029,-0.7625380632919029
-0.7137010511135049,-0.7137010511135049
-0.7308971821622365,-0.7308971821622365
-0.7762949681308883,-0.7762949681308883
-0.7762949681308883,-0.7762949681308883
-0.7137010511135049,-0.7137010511135049
-0.6339110030473898,-0.6339110030473898
-0.5892010623206874,-0.5892010623206874
-0.5830104551431439,-0.5830104551431439
-0.5892010623206874,-0.5892010623206874
-0.5713170860300063,-0.5713170860300063
-0.5266071453033039,-0.5266071453033039
-0.4798336688507536,-0.4798336688507536
-0.46401322828592045,-0.46401322828592045
-0.4715795259473624,-0.4715795259473624
-0.46401322828592045,-0.46401322828592045
-0.41242483513972533,-0.41242483513972533
-0.33951323949310286,-0.33951323949310286
-0.28930053683080625,-0.28930053683080625
-0.27691932247571943,-0.27691932247571943
-0.2645381081206326,-0.2645381081206326
-0.21432540545833598,-0.21432540545833598
-0.14003811932781499,-0.14003811932781499
-0.0898254166655184,-0.0898254166655184
-0.06712652368119253,-0.06712652368119253
-0.027231499648134955,-0.027231499648134955
0.06081269132137141,0.06081269132137141
0.15986240616206607,0.15986240616206607
0.23208615656673928,0.23208615656673928
0.28505024019683295,0.28505024019683295
0.34833200245616563,0.34833200245616563
0.40955022898965054,0.40955022898965054
0.4473817172968603,0.4473817172968603
0.47214414600703397,0.47214414600703397
0.5230446939112798,0.5230446939112798
0.5973319800418009,0.5973319800418009
0.6557988256074887,0.6557988256074887
0.659238051817235,0.659238051817235
0.6090253491549384,0.6090253491549384
0.5347380630244174,0.5347380630244174
0.482461824636273,0.482461824636273
0.47214414600703397,0.47214414600703397
0.4687049197972876,0.4687049197972876
0.40955022898965054,0.40955022898965054
0.2871137759226807,0.2871137759226807
0.15986240616206607,0.15986240616206607
0.08007235809595094,0.08007235809595094
0.03536241736924848,0.03536241736924848
-0.0017812256960120212,-0.0017812256960120212
-0.027231499648134955,-0.027231499648134955
-0.027231499648134955,-0.027231499648134955
-0.027231499648134955,-0.027231499648134955
-0.06850221416509107,-0.06850221416509107
-0.15241933368290184,-0.15241933368290184
-0.2335850722329155,-0.2335850722329155
-0.27691932247571943,-0.27691932247571943
-0.28517346537911065,-0.28517346537911065
-0.27691932247571943,-0.27691932247571943
-0.2549082747333428,-0.2549082747333428
-0.21432540545833598,-0.21432540545833598
-0.17167900045748136,-0.17167900045748136
-0.15241933368290184,-0.15241933368290184
-0.15585855989264816,-0.15585855989264816
-0.15241933368290184,-0.15241933368290184
-0.12146629779518474,-0.12146629779518474
-0.0898254166655184,-0.0898254166655184
-0.09945525005280816,-0.09945525005280816
-0.15241933368290184,-0.15241933368290184
-0.20400772682909696,-0.20400772682909696
-0.21432540545833598,-0.21432540545833598
-0.1881872862642638,-0.1881872862642638
-0.15241933368290184,-0.15241933368290184
-0.12146629779518474,-0.12146629779518474
-0.0898254166655184,-0.0898254166655184
-0.05336961884220716,-0.05336961884220716
-0.027231499648134955,-0.027231499648134955
-0.022416582954490078,-0.022416582954490078
-0.027231499648134955,-0.027231499648134955
-0.010723213841352513,-0.010723213841352513
0.03536241736924848,0.03536241736924848
0.08351158430569727,0.08351158430569727
0.09726848914468264,0.09726848914468264
0.08626296527349435,0.08626296527349435
0.09726848914468264,0.09726848914468264
0.1681165490654573,0.1681165490654573
0.28505024019683295,0.28505024019683295
0.4171165266510925,0.4171165266510925
0.5347380630244174,0.5347380630244174
0.6069618134290906,0.6069618134290906
0.5973319800418009,0.5973319800418009
0.5127270152820408,0.5127270152820408
0.40955022898965054,0.40955022898965054
0.33732647858497733,0.33732647858497733
0.28505024019683295,0.28505024019683295
0.22589554938919584,0.22589554938919584
0.15986240616206607,0.15986240616206607
0.08144804857984947,0.08144804857984947
-0.027231499648134955,-0.027231499648134955
-0.16892761948968427,-0.16892761948968427
-0.27691932247571943,-0.27691932247571943
-0.3236927989282697,-0.3236927989282697
-0.33951323949310286,-0.33951323949310286
-0.3869745611876024,-0.3869745611876024
-0.46401322828592045,-0.46401322828592045
-0.5383005144164414,-0.5383005144164414
-0.5892010623206874,-0.5892010623206874
-0.6070850386113683,-0.6070850386113683
-0.5892010623206874,-0.5892010623206874
-0.5644386336105136,-0.5644386336105136
-0.5892010623206874,-0.5892010623206874
-0.6552342055478171,-0.6552342055478171
-0.6517949793380707,-0.6517949793380707
-0.44200218054354384,-0.44200218054354384
0.03536241736924848,0.03536241736924848
0.7823623501261542,0.7823623501261542
1.78317717716234,1.78317717716234
2.9642074575892337,2.9642074575892337
4.092961499627983,4.092961499627983
4.813135467948867,4.813135467948867
4.842024968110737,4.842024968110737
4.1906355239847795,4.1906355239847795
3.1561162800930793,3.1561162800930793
2.114718583781887,2.114718583781887
1.283801531507171,1.283801531507171
0.6943181591566477,0.6943181591566477
0.28505024019683295,0.28505024019683295
-0.0017812256960120212,-0.0017812256960120212
-0.21432540545833598,-0.21432540545833598
-0.38147179925200825,-0.38147179925200825
-0.5266071453033039,-0.5266071453033039
-0.6566098960317156,-0.6566098960317156
-0.7762949681308883,-0.7762949681308883
-0.8643391591003946,-0.8643391591003946
-0.9014828021656551,-0.9014828021656551
-0.8966678854720103,-0.8966678854720103
-0.9014828021656551,-0.9014828021656551
-0.9351872190211693,-0.9351872190211693
-0.9633888739410893,-0.9633888739410893
-0.9489441238601547,-0.9489441238601547
-0.9014828021656551,-0.9014828021656551
-0.8822231353910757,-0.8822231353910757
-0.9014828021656551,-0.9014828021656551
-0.9228060046660824,-0.9228060046660824
-0.9014828021656551,-0.9014828021656551
-0.857460706680902,-0.857460706680902
-0.8388888851482718,-0.8388888851482718
-0.8492065637775107,-0.8492065637775107
-0.8388888851482718,-0.8388888851482718
-0.7790463490986853,-0.7790463490986853
-0.7137010511135049,-0.7137010511135049
-0.6951292295808746,-0.6951292295808746
-0.7137010511135049,-0.7137010511135049
-0.7068225986940122,-0.7068225986940122
-0.6517949793380707,-0.6517949793380707
-0.5940159790143322,-0.5940159790143322
-0.5892010623206874,-0.5892010623206874
-0.6091485743372161,-0.6091485743372161
-0.5892010623206874,-0.5892010623206874
-0.5176651571579634,-0.5176651571579634
-0.46401322828592045,-0.46401322828592045
-0.46263753780202194,-0.46263753780202194
-0.46401322828592045,-0.46401322828592045
-0.41380052562362385,-0.41380052562362385
-0.33951323949310286,-0.33951323949310286
-0.29342760828250186,-0.29342760828250186
-0.27691932247571943,-0.27691932247571943
-0.2514690485235965,-0.2514690485235965
-0.21432540545833598,-0.21432540545833598
-0.18337236957061892,-0.18337236957061892
-0.15241933368290184,-0.15241933368290184
-0.09739171432696034,-0.09739171432696034
-0.027231499648134955,-0.027231499648134955
0.038113798337045555,0.038113798337045555
0.09726848914468264,0.09726848914468264
0.16330163237181242,0.16330163237181242
0.22245632317944952,0.22245632317944952
0.2602878114866593,0.2602878114866593
0.28505024019683295,0.28505024019683295
0.33113587140743395,0.33113587140743395
0.40955022898965054,0.40955022898965054
0.4914038127816135,0.4914038127816135
0.5347380630244174,0.5347380630244174
0.5374894439922145,0.5374894439922145
0.5347380630244174,0.5347380630244174
0.5588126464926418,0.5588126464926418
0.5973319800418009,0.5973319800418009
0.6172794920583297,0.6172794920583297
0.5973319800418009,0.5973319800418009
0.5450557416536564,0.5450557416536564
0.47214414600703397,0.47214414600703397
0.38272426455362907,0.38272426455362907
0.28505024019683295,0.28505024019683295
0.20457234688876852,0.20457234688876852
0.15986240616206607,0.15986240616206607
0.13647566793579094,0.13647566793579094
0.09726848914468264,0.09726848914468264
0.03398672688534994,0.03398672688534994
-0.027231499648134955,-0.027231499648134955
-0.06368729747144619,-0.06368729747144619
-0.0898254166655184,-0.0898254166655184
-0.12284198827908328,-0.12284198827908328
-0.15241933368290184,-0.15241933368290184
-0.15860994086044525,-0.15860994086044525
-0.15241933368290184,-0.15241933368290184
-0.15035579795705403,-0.15035579795705403
-0.15241933368290184,-0.15241933368290184
-0.15035579795705403,-0.15035579795705403
-0.15241933368290184,-0.15241933368290184
-0.1592977861023945,-0.1592977861023945
-0.15241933368290184,-0.15241933368290184
-0.12146629779518474,-0.12146629779518474
-0.0898254166655184,-0.0898254166655184
-0.08225911900407644,-0.08225911900407644
-0.0898254166655184,-0.0898254166655184
-0.09257679763331546,-0.09257679763331546
-0.0898254166655184,-0.0898254166655184
-0.09051326190746765,-0.09051326190746765
-0.0898254166655184,-0.0898254166655184
-0.08569834521382277,-0.08569834521382277
-0.0898254166655184,-0.0898254166655184
-0.09807955956890961,-0.09807955956890961
-0.0898254166655184,-0.0898254166655184
-0.056120999810004235,-0.056120999810004235
-0.027231499648134955,-0.027231499648134955
-0.023792273438388613,-0.023792273438388613
-0.027231499648134955,-0.027231499648134955
-0.005220451905758364,-0.005220451905758364
0.03536241736924848,0.03536241736924848
0.07044252470866118,0.07044252470866118
0.09726848914468264,0.09726848914468264
0.1440419655972329,0.1440419655972329
0.22245632317944952,0.22245632317944952
0.3208181927781949,0.3208181927781949
0.40955022898965054,0.40955022898965054
0.464577848345592,0.464577848345592
0.47214414600703397,0.47214414600703397
0.4473817172968603,0.4473817172968603
0.40955022898965054,0.40955022898965054
0.36071321681125246,0.36071321681125246
0.28505024019683295,0.28505024019683295
0.20319665640487,0.20319665640487
0.15986240616206607,0.15986240616206607
0.14472981083918218,0.14472981083918218
0.09726848914468264,0.09726848914468264
-0.022416582954490078,-0.022416582954490078
-0.15241933368290184,-0.15241933368290184
-0.2363364532007126,-0.2363364532007126
-0.27691932247571943,-0.27691932247571943
-0.33125909658971164,-0.33125909658971164
-0.4021071565104863,-0.4021071565104863
-0.45300770441473215,-0.45300770441473215
-0.46401322828592045,-0.46401322828592045
-0.45988615683422485,-0.45988615683422485
-0.46401322828592045,-0.46401322828592045
-0.4688281449795653,-0.4688281449795653
-0.46401322828592045,-0.46401322828592045
-0.46401322828592045,-0.46401322828592045
-0.46401322828592045,-0.46401322828592045
-0.37184196586471846,-0.37184196586471846
-0.027231499648134955,-0.027231499648134955
0.6819369448015609,0.6819369448015609
1.7205832601449564,1.7205832601449564
2.9332544217015166,2.9332544217015166
4.092961499627983,4.092961499627983
4.938323301983634,4.938323301983634
5.216212779731139,5.216212779731139
4.824828837062005,4.824828837062005
3.905179748575833,3.905179748575833
2.790182611376069,2.790182611376069
1.78317717716234,1.78317717716234
1.0217324943244996,1.0217324943244996
0.47214414600703397,0.47214414600703397
0.0566856198696758,0.0566856198696758
-0.27691932247571943,-0.27691932247571943
-0.5327977524808473,-0.5327977524808473
-0.7137010511135049,-0.7137010511135049
-0.8285712065190327,-0.8285712065190327
-0.9014828021656551,-0.9014828021656551
-0.9578861120054951,-0.9578861120054951
-1.0259827909584727,-1.0259827909584727
-1.0988943866050953,-1.0988943866050953
-1.1511706249932396,-1.1511706249932396
-1.162176148864428,-1.162176148864428
-1.1511706249932396,-1.1511706249932396
-1.1491070892673918,-1.1491070892673918
-1.1511706249932396,-1.1511706249932396
-1.1360380296703556,-1.1360380296703556
-1.0885767079758562,-1.0885767079758562
-1.044554612491103,-1.044554612491103
-1.0259827909584727,-1.0259827909584727
-1.0307977076521175,-1.0307977076521175
-1.0259827909584727,-1.0259827909584727
-0.9970932907966035,-0.9970932907966035
-0.9633888739410893,-0.9633888739410893
-0.9530711953118502,-0.9530711953118502
-0.9633888739410893,-0.9633888739410893
-0.9530711953118502,-0.9530711953118502
-0.9014828021656551,-0.9014828021656551
-0.8443916470838658,-0.8443916470838658
-0.8388888851482718,-0.8388888851482718
-0.860212087648699,-0.860212087648699
-0.8388888851482718,-0.8388888851482718
-0.7625380632919029,-0.7625380632919029
-0.7137010511135049,-0.7137010511135049
-0.7198916582910483,-0.7198916582910483
-0.7137010511135049,-0.7137010511135049
-0.6476679078863752,-0.6476679078863752
-0.5892010623206874,-0.5892010623206874
-0.5878253718367888,-0.5878253718367888
-0.5892010623206874,-0.5892010623206874
-0.5300463715130502,-0.5300463715130502
-0.46401322828592045,-0.46401322828592045
-0.45575908538252924,-0.45575908538252924
-0.46401322828592045,-0.46401322828592045
-0.41655190659142094,-0.41655190659142094
-0.33951323949310286,-0.33951323949310286
-0.2954911440083497,-0.2954911440083497
-0.27691932247571943,-0.27691932247571943
-0.22808231029732137,-0.22808231029732137
-0.15241933368290184,-0.15241933368290184
-0.08432265472992424,-0.08432265472992424
-0.027231499648134955,-0.027231499648134955
0.03880164357899482,0.03880164357899482
0.09726848914468264,0.09726848914468264
0.13372428696799388,0.13372428696799388
0.15986240616206607,0.15986240616206607
0.19563035874342805,0.19563035874342805
0.22245632317944952,0.22245632317944952
0.2424038351959783,0.2424038351959783
0.28505024019683295,0.28505024019683295
0.3579618358434554,0.3579618358434554
0.40955022898965054,0.40955022898965054
0.41505299092524467,0.41505299092524467
0.40955022898965054,0.40955022898965054
0.4226192885866866,0.4226192885866866
0.40955022898965054,0.40955022898965054
0.3318237166493832,0.3318237166493832
0.22245632317944952,0.22245632317944952
0.14541765608113144,0.14541765608113144
0.09726848914468264,0.09726848914468264
0.0415530245467919,0.0415530245467919
-0.027231499648134955,-0.027231499648134955
-0.07331713085873595,-0.07331713085873595
-0.0898254166655184,-0.0898254166655184
-0.10839723819814864,-0.10839723819814864
-0.15241933368290184,-0.15241933368290184
-0.19781711965155355,-0.19781711965155355
-0.21432540545833598,-0.21432540545833598
-0.20813479828079257,-0.20813479828079257
-0.21432540545833598,-0.21432540545833598
-0.24596628658800235,-0.24596628658800235
-0.27691932247571943,-0.27691932247571943
-0.2831099296532628,-0.2831099296532628
-0.27691932247571943,-0.27691932247571943
-0.2789828582015672,-0.2789828582015672
-0.27691932247571943,-0.27691932247571943
-0.2514690485235965,-0.2514690485235965
-0.21432540545833598,-0.21432540545833598
-0.19988065537740135,-0.19988065537740135
-0.21432540545833598,-0.21432540545833598
-0.22808231029732137,-0.22808231029732137
-0.21432540545833598,-0.21432540545833598
-0.17993314336087257,-0.17993314336087257
-0.15241933368290184,-0.15241933368290184
-0.14554088126340914,-0.14554088126340914
-0.15241933368290184,-0.15241933368290184
-0.1551707146506989,-0.1551707146506989
-0.15241933368290184,-0.15241933368290184
-0.1510436431990033,-0.1510436431990033
-0.15241933368290184,-0.15241933368290184
-0.13591104787611938,-0.13591104787611938
-0.0898254166655184,-0.0898254166655184
-0.022416582954490078,-0.022416582954490078
0.03536241736924848,0.03536241736924848
0.07044252470866118,0.07044252470866118
0.09726848914468264,0.09726848914468264
0.14748119180697924,0.14748119180697924
0.22245632317944952,0.22245632317944952
0.2967436093099705,0.2967436093099705
0.3476441572142164,0.3476441572142164
0.39648116939261446,0.39648116939261446
0.47214414600703397,0.47214414600703397
0.5443678964117071,0.5443678964117071
0.5347380630244174,0.5347380630244174
0.4239949790705852,0.4239949790705852
0.28505024019683295,0.28505024019683295
0.19769389446927585,0.19769389446927585
0.15986240616206607,0.15986240616206607
0.12959721551629827,0.12959721551629827
0.09726848914468264,0.09726848914468264
0.05255854841798019,0.05255854841798019
-0.027231499648134955,-0.027231499648134955
-0.15860994086044525,-0.15860994086044525
-0.27691932247571943,-0.27691932247571943
-0.3333226323155594,-0.3333226323155594
-0.33951323949310286,-0.33951323949310286
-0.35670937054183455,-0.35670937054183455
-0.4021071565104863,-0.4021071565104863
-0.44475356151134093,-0.44475356151134093
-0.46401322828592045,-0.46401322828592045
-0.4647010735278697,-0.4647010735278697
-0.46401322828592045,-0.46401322828592045
-0.46814029973761606,-0.46814029973761606
-0.46401322828592045,-0.46401322828592045
-0.39247732312319655,-0.39247732312319655
-0.15241933368290184,-0.15241933368290184
0.37034305019854225,0.37034305019854225
1.2212076144897874,1.2212076144897874
2.3382682874153997,2.3382682874153997
3.530991936955431,3.530991936955431
4.5400609068950075,4.5400609068950075
5.091712790938321,5.091712790938321
5.0022929094849164,5.0022929094849164
4.280055405438184,4.280055405438184
3.1877571612227458,3.1877571612227458
2.0954589170073077,2.0954589170073077
1.2521606503775045,1.2521606503775045
0.659238051817235,0.659238051817235
0.21076295406631196,0.21076295406631196
-0.15241933368290184,-0.15241933368290184
-0.41380052562362385,-0.41380052562362385
-0.5892010623206874,-0.5892010623206874
-0.7212673487749468,-0.7212673487749468
-0.8388888851482718,-0.8388888851482718
-0.9207424689402347,-0.9207424689402347
-0.9633888739410893,-0.9633888739410893
-0.9888391478932123,-0.9888391478932123
-1.0259827909584727,-1.0259827909584727
-1.0665656602334797,-1.0665656602334797
-1.0885767079758562,-1.0885767079758562
-1.090640243701704,-1.090640243701704
-1.0885767079758562,-1.0885767079758562
-1.0968308508792475,-1.0968308508792475
-1.0885767079758562,-1.0885767079758562
-1.0603750530559362,-1.0603750530559362
-1.0259827909584727,-1.0259827909584727
-1.0184164932970308,-1.0184164932970308
-1.0259827909584727,-1.0259827909584727
-1.0122258861194873,-1.0122258861194873
-0.9633888739410893,-0.9633888739410893
-0.913864016520742,-0.913864016520742
-0.9014828021656551,-0.9014828021656551
-0.9104247903109957,-0.9104247903109957
-0.9014828021656551,-0.9014828021656551
-0.8629634686164961,-0.8629634686164961
-0.8388888851482718,-0.8388888851482718
-0.8409524208741195,-0.8409524208741195
-0.8388888851482718,-0.8388888851482718
-0.8079358492605546,-0.8079358492605546
-0.7762949681308883,-0.7762949681308883
-0.754971765630461,-0.754971765630461
-0.7137010511135049,-0.7137010511135049
-0.6407894554668825,-0.6407894554668825
-0.5892010623206874,-0.5892010623206874
-0.5878253718367888,-0.5878253718367888
-0.5892010623206874,-0.5892010623206874
-0.5362369786905936,-0.5362369786905936
-0.46401322828592045,-0.46401322828592045
-0.4406264900596453,-0.4406264900596453
-0.46401322828592045,-0.46401322828592045
-0.46263753780202194,-0.46263753780202194
-0.4021071565104863,-0.4021071565104863
-0.32162926320242186,-0.32162926320242186
-0.27691932247571943,-0.27691932247571943
-0.2562839652172414,-0.2562839652172414
-0.21432540545833598,-0.21432540545833598
-0.14347734553756133,-0.14347734553756133
-0.0898254166655184,-0.0898254166655184
-0.06368729747144619,-0.06368729747144619
-0.027231499648134955,-0.027231499648134955
0.040865179304842625,0.040865179304842625
0.09726848914468264,0.09726848914468264
0.12409445358070412,0.12409445358070412
0.15986240616206607,0.15986240616206607
0.23139831132479,0.23139831132479
0.28505024019683295,0.28505024019683295
0.2857380854387822,0.2857380854387822
0.28505024019683295,0.28505024019683295
0.3407657047947237,0.3407657047947237
0.40955022898965054,0.40955022898965054
0.41367730044134615,0.41367730044134615
0.3476441572142164,0.3476441572142164
0.2747325615675939,0.2747325615675939
0.22245632317944952,0.22245632317944952
0.16880439430740657,0.16880439430740657
0.09726848914468264,0.09726848914468264
0.027108274465857257,0.027108274465857257
-0.027231499648134955,-0.027231499648134955
-0.06231160698754765,-0.06231160698754765
-0.0898254166655184,-0.0898254166655184
-0.11733922634348913,-0.11733922634348913
-0.15241933368290184,-0.15241933368290184
-0.18887513150621305,-0.18887513150621305
-0.21432540545833598,-0.21432540545833598
-0.22051601263587942,-0.22051601263587942
-0.21432540545833598,-0.21432540545833598
-0.21019833400664037,-0.21019833400664037
-0.21432540545833598,-0.21432540545833598
-0.21914032215198087,-0.21914032215198087
-0.21432540545833598,-0.21432540545833598
-0.20813479828079257,-0.20813479828079257
-0.21432540545833598,-0.21432540545833598
-0.22533092932952428,-0.22533092932952428
-0.21432540545833598,-0.21432540545833598
-0.17993314336087257,-0.17993314336087257
-0.15241933368290184,-0.15241933368290184
-0.1489801074731555,-0.1489801074731555
-0.15241933368290184,-0.15241933368290184
-0.14691657174730768,-0.14691657174730768
-0.15241933368290184,-0.15241933368290184
-0.18268452432866963,-0.18268452432866963
-0.21432540545833598,-0.21432540545833598
-0.22120385787782867,-0.22120385787782867
-0.21432540545833598,-0.21432540545833598
-0.21432540545833598,-0.21432540545833598
-0.21432540545833598,-0.21432540545833598
-0.19369004819985794,-0.19369004819985794
-0.15241933368290184,-0.15241933368290184
-0.09670386908501108,-0.09670386908501108
-0.027231499648134955,-0.027231499648134955
0.04843147696628458,0.04843147696628458
0.09726848914468264,0.09726848914468264
0.10414694156417532,0.10414694156417532
0.09726848914468264,0.09726848914468264
0.13303644172604462,0.13303644172604462
0.22245632317944952,0.22245632317944952
0.3304480261654847,0.3304480261654847
0.40955022898965054,0.40955022898965054
0.4535723244744037,0.4535723244744037
0.47214414600703397,0.47214414600703397
0.464577848345592,0.464577848345592
0.40955022898965054,0.40955022898965054
0.3166911213264993,0.3166911213264993
0.22245632317944952,0.22245632317944952
0.15435964422647194,0.15435964422647194
0.09726848914468264,0.09726848914468264
0.03192319115950214,0.03192319115950214
-0.027231499648134955,-0.027231499648134955
-0.08363480948797497,-0.08363480948797497
-0.15241933368290184,-0.15241933368290184
-0.2514690485235965,-0.2514690485235965
-0.33951323949310286,-0.33951323949310286
-0.38559887070370386,-0.38559887070370386
-0.4021071565104863,-0.4021071565104863
-0.4282452757045585,-0.4282452757045585
-0.46401322828592045,-0.46401322828592045
-0.4784579783668551,-0.4784579783668551
-0.46401322828592045,-0.46401322828592045
-0.4502563234469351,-0.4502563234469351
-0.46401322828592045,-0.46401322828592045
-0.4894635022380434,-0.4894635022380434
-0.46401322828592045,-0.46401322828592045
-0.2831099296532628,-0.2831099296532628
0.15986240616206607,0.15986240616206607
0.9247463152096528,0.9247463152096528
1.970271082972541,1.970271082972541
3.152677053883333,3.152677053883333
4.217461488420801,4.217461488420801
4.8585332539175194,4.8585332539175194
4.842024968110737,4.842024968110737
4.1844449168072355,4.1844449168072355
3.1561162800930793,3.1561162800930793
2.116094274265786,2.116094274265786
1.283801531507171,1.283801531507171
0.6970695401244448,0.6970695401244448
0.28505024019683295,0.28505024019683295
-0.023104428196439344,-0.023104428196439344
-0.27691932247571943,-0.27691932247571943
-0.4873999665121956,-0.4873999665121956
-0.6517949793380707,-0.6517949793380707
-0.7618502180499537,-0.7618502180499537
-0.8388888851482718,-0.8388888851482718
-0.9021706474076044,-0.9021706474076044
-0.9633888739410893,-0.9633888739410893
-1.0074109694258424,-1.0074109694258424
-1.0259827909584727,-1.0259827909584727
-1.026670636200422,-1.026670636200422
-1.0259827909584727,-1.0259827909584727
-1.0321733981360162,-1.0321733981360162
-1.0259827909584727,-1.0259827909584727
-1.0039717432160962,-1.0039717432160962
-0.9633888739410893,-0.9633888739410893
-0.9283087666016766,-0.9283087666016766
-0.9014828021656551,-0.9014828021656551
-0.8918529687783654,-0.8918529687783654
-0.9014828021656551,-0.9014828021656551
-0.9124883260368435,-0.9124883260368435
-0.9014828021656551,-0.9014828021656551
-0.8657148495842932,-0.8657148495842932
-0.8388888851482718,-0.8388888851482718
-0.8361375041804746,-0.8361375041804746
-0.8388888851482718,-0.8388888851482718
-0.8161899921639458,-0.8161899921639458
-0.7762949681308883,-0.7762949681308883
-0.7391513250656278,-0.7391513250656278
-0.7137010511135049,-0.7137010511135049
-0.6854993961935849,-0.6854993961935849
-0.6517949793380707,-0.6517949793380707
-0.6174027172406074,-0.6174027172406074
-0.5892010623206874,-0.5892010623206874
-0.5589358716749195,-0.5589358716749195
-0.5266071453033039,-0.5266071453033039
-0.493590573689739,-0.493590573689739
-0.46401322828592045,-0.46401322828592045
-0.43306019239820337,-0.43306019239820337
-0.4021071565104863,-0.4021071565104863
-0.3690905848969214,-0.3690905848969214
-0.33951323949310286,-0.33951323949310286
-0.3106237393312336,-0.3106237393312336
-0.27691932247571943,-0.27691932247571943
-0.22395523884562574,-0.22395523884562574
-0.15241933368290184,-0.15241933368290184
-0.07813204755238083,-0.07813204755238083
-0.027231499648134955,-0.027231499648134955
0.003033690997632858,0.003033690997632858
0.03536241736924848,0.03536241736924848
0.09245357245103776,0.09245357245103776
0.15986240616206607,0.15986240616206607
0.20801157309851487,0.20801157309851487
0.22245632317944952,0.22245632317944952
0.23690107326038415,0.23690107326038415
0.28505024019683295,0.28505024019683295
0.3586496810854047,0.3586496810854047
0.40955022898965054,0.40955022898965054
0.41780437189304176,0.41780437189304176
0.40955022898965054,0.40955022898965054
0.41367730044134615,0.41367730044134615
0.40955022898965054,0.40955022898965054
0.3655281335048974,0.3655281335048974
0.28505024019683295,0.28505024019683295
0.20869941834046415,0.20869941834046415
0.15986240616206607,0.15986240616206607
0.1309729060001968,0.1309729060001968
0.09726848914468264,0.09726848914468264
0.04636794124043678,0.04636794124043678
-0.027231499648134955,-0.027231499648134955
-0.10289447626255449,-0.10289447626255449
-0.15241933368290184,-0.15241933368290184
-0.1613613218282423,-0.1613613218282423
-0.15241933368290184,-0.15241933368290184
-0.14760441698925694,-0.14760441698925694
-0.15241933368290184,-0.15241933368290184
-0.15448286940874964,-0.15448286940874964
-0.15241933368290184,-0.15241933368290184
-0.15035579795705403,-0.15035579795705403
-0.15241933368290184,-0.15241933368290184
-0.15379502416680035,-0.15379502416680035
-0.15241933368290184,-0.15241933368290184
-0.15035579795705403,-0.15035579795705403
-0.15241933368290184,-0.15241933368290184
-0.15379502416680035,-0.15379502416680035
-0.15241933368290184,-0.15241933368290184
-0.14966795271510475,-0.14966795271510475
-0.15241933368290184,-0.15241933368290184
-0.15585855989264816,-0.15585855989264816
-0.15241933368290184,-0.15241933368290184
-0.14691657174730768,-0.14691657174730768
-0.15241933368290184,-0.15241933368290184
-0.1620491670701916,-0.1620491670701916
-0.15241933368290184,-0.15241933368290184
-0.11733922634348913,-0.11733922634348913
-0.0898254166655184,-0.0898254166655184
-0.08776188093967059,-0.08776188093967059
-0.0898254166655184,-0.0898254166655184
-0.06712652368119253,-0.06712652368119253
-0.027231499648134955,-0.027231499648134955
0.007848607691277739,0.007848607691277739
0.03536241736924848,0.03536241736924848
0.06631545325696556,0.06631545325696556
0.09726848914468264,0.09726848914468264
0.12547014406460266,0.12547014406460266
0.15986240616206607,0.15986240616206607
0.21626571600190608,0.21626571600190608
0.28505024019683295,0.28505024019683295
0.3510833834239627,0.3510833834239627
0.40955022898965054,0.40955022898965054
0.45838724116804863,0.45838724116804863
0.47214414600703397,0.47214414600703397
0.43362481245787493,0.43362481245787493
0.3476441572142164,0.3476441572142164
0.24584306140572465,0.24584306140572465
0.15986240616206607,0.15986240616206607
0.11171323922561728,0.11171323922561728
0.09726848914468264,0.09726848914468264
0.06493976277306703,0.06493976277306703
-0.027231499648134955,-0.027231499648134955
-0.16961546473163353,-0.16961546473163353
-0.27691932247571943,-0.27691932247571943
-0.3195657274765741,-0.3195657274765741
-0.33951323949310286,-0.33951323949310286
-0.39385301360709507,-0.39385301360709507
-0.46401322828592045,-0.46401322828592045
-0.49221488320584045,-0.49221488320584045
-0.46401322828592045,-0.46401322828592045
-0.4364994186079497,-0.4364994186079497
-0.46401322828592045,-0.46401322828592045
-0.5176651571579634,-0.5176651571579634
-0.5266071453033039,-0.5266071453033039
-0.46951599022151463,-0.46951599022151463
-0.33951323949310286,-0.33951323949310286
-0.01622597577694666,-0.01622597577694666
0.659238051817235,0.659238051817235
1.6524865811919789,1.6524865811919789
2.7193345514552942,2.7193345514552942
3.696074795023255,3.696074795023255
4.529743228265769,4.529743228265769
4.985784623678134,4.985784623678134
4.654243217058586,4.654243217058586
3.5144836511486486,3.5144836511486486
2.1573649887827417,2.1573649887827417
1.2143291620702947,1.2143291620702947
0.7218319688346185,0.7218319688346185
0.3538347643917598,0.3538347643917598
-0.027231499648134955,-0.027231499648134955
-0.30718451312148726,-0.30718451312148726
-0.46401322828592045,-0.46401322828592045
-0.6084607290952668,-0.6084607290952668
-0.7762949681308883,-0.7762949681308883
-0.8829109806330249,-0.8829109806330249
-0.9014828021656551,-0.9014828021656551
-0.8891015878105684,-0.8891015878105684
-0.9014828021656551,-0.9014828021656551
-0.931747992811423,-0.931747992811423
-0.9633888739410893,-0.9633888739410893
-0.980585004989821,-0.980585004989821
-0.9633888739410893,-0.9633888739410893
-0.9276209213597274,-0.9276209213597274
-0.9014828021656551,-0.9014828021656551
-0.903546337891503,-0.903546337891503
-0.9014828021656551,-0.9014828021656551
-0.8774082186974308,-0.8774082186974308
-0.8388888851482718,-0.8388888851482718
-0.8051844682927576,-0.8051844682927576
-0.7762949681308883,-0.7762949681308883
-0.7446540870012219,-0.7446540870012219
-0.7137010511135049,-0.7137010511135049
-0.6848115509516357,-0.6848115509516357
-0.6517949793380707,-0.6517949793380707
-0.6125878005469625,-0.6125878005469625
-0.5892010623206874,-0.5892010623206874
-0.5878253718367888,-0.5878253718367888
-0.5892010623206874,-0.5892010623206874
-0.5644386336105136,-0.5644386336105136
-0.5266071453033039,-0.5266071453033039
-0.5087231690126229,-0.5087231690126229
-0.5266071453033039,-0.5266071453033039
-0.5438032763520356,-0.5438032763520356
-0.5266071453033039,-0.5266071453033039
-0.4846485855443985,-0.4846485855443985
-0.46401322828592045,-0.46401322828592045
-0.4715795259473624,-0.4715795259473624
-0.46401322828592045,-0.46401322828592045
-0.40967345417192824,-0.40967345417192824
-0.33951323949310286,-0.33951323949310286
-0.2954911440083497,-0.2954911440083497
-0.27691932247571943,-0.27691932247571943
-0.2514690485235965,-0.2514690485235965
-0.21432540545833598,-0.21432540545833598
-0.18062098860282183,-0.18062098860282183
-0.15241933368290184,-0.15241933368290184
-0.10289447626255449,-0.10289447626255449
-0.027231499648134955,-0.027231499648134955
0.04980716745018312,0.04980716745018312
0.09726848914468264,0.09726848914468264
0.12478229882265339,0.12478229882265339
0.15986240616206607,0.15986240616206607
0.22039278745360172,0.22039278745360172
0.28505024019683295,0.28505024019683295
0.3276966451976876,0.3276966451976876
0.3476441572142164,0.3476441572142164
0.37034305019854225,0.37034305019854225
0.40955022898965054,0.40955022898965054
0.4535723244744037,0.4535723244744037
0.47214414600703397,0.47214414600703397
0.45563586020025154,0.45563586020025154
0.40955022898965054,0.40955022898965054
0.35039553818201347,0.35039553818201347
0.28505024019683295,0.28505024019683295
0.22108063269555098,0.22108063269555098
0.15986240616206607,0.15986240616206607
0.10070771535442899,0.10070771535442899
0.03536241736924848,0.03536241736924848
-0.032046416341779835,-0.032046416341779835
-0.0898254166655184,-0.0898254166655184
-0.12765690497272816,-0.12765690497272816
-0.15241933368290184,-0.15241933368290184
-0.16273701231214086,-0.16273701231214086
-0.15241933368290184,-0.15241933368290184
-0.1180270715854384,-0.1180270715854384
-0.0898254166655184,-0.0898254166655184
-0.10014309529475741,-0.10014309529475741
-0.15241933368290184,-0.15241933368290184
-0.20400772682909696,-0.20400772682909696
-0.21432540545833598,-0.21432540545833598
-0.18474806005451744,-0.18474806005451744
-0.15241933368290184,-0.15241933368290184
-0.14347734553756133,-0.14347734553756133
-0.15241933368290184,-0.15241933368290184
-0.15654640513459744,-0.15654640513459744
-0.15241933368290184,-0.15241933368290184
-0.14966795271510475,-0.14966795271510475
-0.15241933368290184,-0.15241933368290184
-0.15379502416680035,-0.15379502416680035
-0.15241933368290184,-0.15241933368290184
-0.1510436431990033,-0.1510436431990033
-0.15241933368290184,-0.15241933368290184
-0.15241933368290184,-0.15241933368290184
-0.15241933368290184,-0.15241933368290184
-0.15173148844095255,-0.15173148844095255
-0.15241933368290184,-0.15241933368290184
-0.15241933368290184,-0.15241933368290184
-0.15241933368290184,-0.15241933368290184
-0.13591104787611938,-0.13591104787611938
-0.0898254166655184,-0.0898254166655184
-0.02172873771254081,-0.02172873771254081
0.03536241736924848,0.03536241736924848
0.06837898898281336,0.06837898898281336
0.09726848914468264,0.09726848914468264
0.15160826325867485,0.15160826325867485
0.22245632317944952,0.22245632317944952
0.2898651568904778,0.2898651568904778
0.3476441572142164,0.3476441572142164
0.408174538505752,0.408174538505752
0.47214414600703397,0.47214414600703397
0.5230446939112798,0.5230446939112798
0.5347380630244174,0.5347380630244174
0.4955308842333091,0.4955308842333091
0.40955022898965054,0.40955022898965054
0.3077491331811588,0.3077491331811588
0.22245632317944952,0.22245632317944952
0.15779887043621826,0.15779887043621826
0.09726848914468264,0.09726848914468264
0.02917181019170506,0.02917181019170506
-0.027231499648134955,-0.027231499648134955
-0.08157127376212717,-0.08157127376212717
-0.15241933368290184,-0.15241933368290184
-0.2514690485235965,-0.2514690485235965
-0.33951323949310286,-0.33951323949310286
-0.38559887070370386,-0.38559887070370386
-0.4021071565104863,-0.4021071565104863
-0.42618173997871067,-0.42618173997871067
-0.46401322828592045,-0.46401322828592045
-0.4812093593346522,-0.4812093593346522
-0.46401322828592045,-0.46401322828592045
-0.4481927877210873,-0.4481927877210873
-0.46401322828592045,-0.46401322828592045
-0.4502563234469351,-0.4502563234469351
-0.27691932247571943,-0.27691932247571943
0.1529839537425734,0.1529839537425734
0.8470198028693854,0.8470198028693854
1.770795962807253,1.770795962807253
2.8445223854900608,2.8445223854900608
3.8563427363974347,3.8563427363974347
4.467149311248385,4.467149311248385
4.429317822941176,4.429317822941176
3.7806797597830153,3.7806797597830153
2.814257194844293,2.814257194844293
1.8457710941797232,1.8457710941797232
1.06850597077705,1.06850597077705
0.5347380630244174,0.5347380630244174
0.20250881116292072,0.20250881116292072
-0.027231499648134955,-0.027231499648134955
-0.2404635246524082,-0.2404635246524082
-0.46401322828592045,-0.46401322828592045
-0.6559220507897664,-0.6559220507897664
-0.7762949681308883,-0.7762949681308883
-0.824444135067337,-0.824444135067337
-0.8388888851482718,-0.8388888851482718
-0.8423281113580181,-0.8423281113580181
-0.8388888851482718,-0.8388888851482718
-0.8299468970029312,-0.8299468970029312
-0.8388888851482718,-0.8388888851482718
-0.8732811472457351,-0.8732811472457351
-0.9014828021656551,-0.9014828021656551
-0.9076734093431986,-0.9076734093431986
-0.9014828021656551,-0.9014828021656551
-0.9062977188593,-0.9062977188593
-0.9014828021656551,-0.9014828021656551
-0.8739689924876844,-0.8739689924876844
-0.8388888851482718,-0.8388888851482718
-0.8120629207122503,-0.8120629207122503
-0.7762949681308883,-0.7762949681308883
-0.7150767415974034,-0.7150767415974034
-0.6517949793380707,-0.6517949793380707
-0.6098364195791653,-0.6098364195791653
-0.5892010623206874,-0.5892010623206874
-0.5768198479656005,-0.5768198479656005
-0.5892010623206874,-0.5892010623206874
-0.6249690149020493,-0.6249690149020493
-0.6517949793380707,-0.6517949793380707
-0.6339110030473898,-0.6339110030473898
-0.5892010623206874,-0.5892010623206874
-0.5506817287715283,-0.5506817287715283
-0.5266071453033039,-0.5266071453033039
-0.49771764514143463,-0.49771764514143463
-0.46401322828592045,-0.46401322828592045
-0.43168450191430485,-0.43168450191430485
-0.4021071565104863,-0.4021071565104863
-0.3684027396549721,-0.3684027396549721
-0.33951323949310286,-0.33951323949310286
-0.31337512029903064,-0.31337512029903064
-0.27691932247571943,-0.27691932247571943
-0.2163889411841838,-0.2163889411841838
-0.15241933368290184,-0.15241933368290184
-0.10839723819814864,-0.10839723819814864
-0.0898254166655184,-0.0898254166655184
-0.0698779046489896,-0.0698779046489896
-0.027231499648134955,-0.027231499648134955
0.05393423890187873,0.05393423890187873
0.15986240616206607,0.15986240616206607
0.25203366858326803,0.25203366858326803
0.28505024019683295,0.28505024019683295
0.277483942535391,0.277483942535391
0.28505024019683295,0.28505024019683295
0.3221938832620935,0.3221938832620935
0.3476441572142164,0.3476441572142164
0.3579618358434554,0.3579618358434554
0.40955022898965054,0.40955022898965054
0.518229777217635,0.518229777217635
0.5973319800418009,0.5973319800418009
0.5870143014125618,0.5870143014125618
0.5347380630244174,0.5347380630244174
0.5058485628625481,0.5058485628625481
0.47214414600703397,0.47214414600703397
0.3889148717311725,0.3889148717311725
0.28505024019683295,0.28505024019683295
0.21489002551800757,0.21489002551800757
0.15986240616206607,0.15986240616206607
0.07525744140230606,0.07525744140230606
-0.027231499648134955,-0.027231499648134955
-0.10358232150450376,-0.10358232150450376
-0.15241933368290184,-0.15241933368290184
-0.19162651247401014,-0.19162651247401014
-0.21432540545833598,-0.21432540545833598
-0.21226186973248817,-0.21226186973248817
-0.21432540545833598,-0.21432540545833598
-0.24390275086215454,-0.24390275086215454
-0.27691932247571943,-0.27691932247571943
-0.2831099296532628,-0.2831099296532628
-0.27691932247571943,-0.27691932247571943
-0.2796707034435165,-0.2796707034435165
-0.27691932247571943,-0.27691932247571943
-0.2507812032816472,-0.2507812032816472
-0.21432540545833598,-0.21432540545833598
-0.18474806005451744,-0.18474806005451744
-0.15241933368290184,-0.15241933368290184
-0.12765690497272816,-0.12765690497272816
-0.15241933368290184,-0.15241933368290184
-0.22464308408757502,-0.22464308408757502
-0.27691932247571943,-0.27691932247571943
-0.26385026287868335,-0.26385026287868335
-0.21432540545833598,-0.21432540545833598
-0.16067347658629305,-0.16067347658629305
-0.0898254166655184,-0.0898254166655184
-0.018289511502794467,-0.018289511502794467
-0.027231499648134955,-0.027231499648134955
-0.14554088126340914,-0.14554088126340914
-0.27691932247571943,-0.27691932247571943
-0.2996182154600453,-0.2996182154600453
-0.21432540545833598,-0.21432540545833598
-0.1070215477142501,-0.1070215477142501
-0.027231499648134955,-0.027231499648134955
0.040865179304842625,0.040865179304842625
0.09726848914468264,0.09726848914468264
0.11721600116121143,0.11721600116121143
0.09726848914468264,0.09726848914468264
0.09451710817688556,0.09451710817688556
0.15986240616206607,0.15986240616206607
0.28642593068073147,0.28642593068073147
0.40955022898965054,0.40955022898965054
0.4886524318138164,0.4886524318138164
0.5347380630244174,0.5347380630244174
0.5773844680252721,0.5773844680252721
0.5973319800418009,0.5973319800418009
0.5450557416536564,0.5450557416536564
0.40955022898965054,0.40955022898965054
0.2561607400349637,0.2561607400349637
0.15986240616206607,0.15986240616206607
0.12684583454850118,0.12684583454850118
0.09726848914468264,0.09726848914468264
0.018166286320516766,0.018166286320516766
-0.0898254166655184,-0.0898254166655184
-0.19575358392570574,-0.19575358392570574
-0.27691932247571943,-0.27691932247571943
-0.3477673823964941,-0.3477673823964941
-0.4021071565104863,-0.4021071565104863
-0.4392507995757468,-0.4392507995757468
-0.46401322828592045,-0.46401322828592045
-0.4763944426410073,-0.4763944426410073
-0.46401322828592045,-0.46401322828592045
-0.4440657162693917,-0.4440657162693917
-0.46401322828592045,-0.46401322828592045
-0.5355491334486444,-0.5355491334486444
-0.5892010623206874,-0.5892010623206874
-0.524543609577456,-0.524543609577456
-0.27691932247571943,-0.27691932247571943
0.2052601921307178,0.2052601921307178
0.971519791662203,0.971519791662203
2.0101661070055985,2.0101661070055985
3.1561162800930793,3.1561162800930793
4.132856523661041,4.132856523661041
4.654243217058586,4.654243217058586
4.550378585524247,4.550378585524247
3.8432736768003988,3.8432736768003988
2.782616313714627,2.782616313714627
1.7205832601449564,1.7205832601449564
0.9013595769833777,0.9013595769833777
0.3476441572142164,0.3476441572142164
-0.023792273438388613,-0.023792273438388613
-0.27691932247571943,-0.27691932247571943
-0.44612925199523945,-0.44612925199523945
-0.5892010623206874,-0.5892010623206874
-0.7302093369202873,-0.7302093369202873
-0.8388888851482718,-0.8388888851482718
-0.8829109806330249,-0.8829109806330249
-0.9014828021656551,-0.9014828021656551
-0.9324358380533723,-0.9324358380533723
-0.9633888739410893,-0.9633888739410893
-0.9654524096669371,-0.9654524096669371
-0.9633888739410893,-0.9633888739410893
-0.9909026836190601,-0.9909026836190601
-1.0259827909584727,-1.0259827909584727
-1.0390518505555089,-1.0390518505555089
-1.0259827909584727,-1.0259827909584727
-1.006035278941944,-1.006035278941944
-0.9633888739410893,-0.9633888739410893
-0.913864016520742,-0.913864016520742
-0.9014828021656551,-0.9014828021656551
-0.9386264452309157,-0.9386264452309157
-0.9633888739410893,-0.9633888739410893
-0.9207424689402347,-0.9207424689402347
-0.8388888851482718,-0.8388888851482718
-0.7666651347435985,-0.7666651347435985
-0.7137010511135049,-0.7137010511135049
-0.667615419902904,-0.667615419902904
-0.6517949793380707,-0.6517949793380707
-0.677933098532143,-0.677933098532143
-0.7137010511135049,-0.7137010511135049
-0.7198916582910483,-0.7198916582910483
-0.7137010511135049,-0.7137010511135049
-0.7185159678071498,-0.7185159678071498
-0.7137010511135049,-0.7137010511135049
-0.6648640389351068,-0.6648640389351068
-0.5892010623206874,-0.5892010623206874
-0.5211043833677097,-0.5211043833677097
-0.46401322828592045,-0.46401322828592045
-0.40073146602658777,-0.40073146602658777
-0.33951323949310286,-0.33951323949310286
-0.2968668344922482,-0.2968668344922482
-0.27691932247571943,-0.27691932247571943
-0.27210440578207457,-0.27210440578207457
-0.27691932247571943,-0.27691932247571943
-0.2514690485235965,-0.2514690485235965
-0.15241933368290184,-0.15241933368290184
-0.0031569161799105583,-0.0031569161799105583
0.09726848914468264,0.09726848914468264
0.1089618582578202,0.1089618582578202
0.09726848914468264,0.09726848914468264
0.14335412035528364,0.14335412035528364
0.22245632317944952,0.22245632317944952
0.2706054901158983,0.2706054901158983
0.28505024019683295,0.28505024019683295
0.32425741898794125,0.32425741898794125
0.40955022898965054,0.40955022898965054
0.5154783962498379,0.5154783962498379
0.5973319800418009,0.5973319800418009
0.6289728611714672,0.6289728611714672
0.5973319800418009,0.5973319800418009
0.528547455846874,0.528547455846874
0.47214414600703397,0.47214414600703397
0.44600602681296175,0.44600602681296175
0.40955022898965054,0.40955022898965054
0.3297601809235354,0.3297601809235354
0.22245632317944952,0.22245632317944952
0.12478229882265339,0.12478229882265339
0.03536241736924848,0.03536241736924848
-0.05956022601975058,-0.05956022601975058
-0.15241933368290184,-0.15241933368290184
-0.22326739360367648,-0.22326739360367648
-0.27691932247571943,-0.27691932247571943
-0.31819003699267556,-0.31819003699267556
-0.33951323949310286,-0.33951323949310286
-0.33951323949310286,-0.33951323949310286
-0.33951323949310286,-0.33951323949310286
-0.34639169191259556,-0.34639169191259556
-0.33951323949310286,-0.33951323949310286
-0.306496667879538,-0.306496667879538
-0.27691932247571943,-0.27691932247571943
-0.27416794150792234,-0.27416794150792234
-0.27691932247571943,-0.27691932247571943
-0.25284473900749505,-0.25284473900749505
-0.21432540545833598,-0.21432540545833598
-0.1991928101354521,-0.1991928101354521
-0.21432540545833598,-0.21432540545833598
-0.22877015553927063,-0.22877015553927063
-0.21432540545833598,-0.21432540545833598
-0.17924529811892329,-0.17924529811892329
-0.15241933368290184,-0.15241933368290184
-0.14691657174730768,-0.14691657174730768
-0.15241933368290184,-0.15241933368290184
-0.15379502416680035,-0.15379502416680035
-0.15241933368290184,-0.15241933368290184
-0.15173148844095255,-0.15173148844095255
-0.15241933368290184,-0.15241933368290184
-0.15173148844095255,-0.15173148844095255
-0.15241933368290184,-0.15241933368290184
-0.13728673836001792,-0.13728673836001792
-0.0898254166655184,-0.0898254166655184
-0.018977356744743733,-0.018977356744743733
0.03536241736924848,0.03536241736924848
0.0635640722891685,0.0635640722891685
0.09726848914468264,0.09726848914468264
0.1612380966459646,0.1612380966459646
0.22245632317944952,0.22245632317944952
0.2554728947930144,0.2554728947930144
0.28505024019683295,0.28505024019683295
0.3600253715693032,0.3600253715693032
0.47214414600703397,0.47214414600703397
0.5650032536701852,0.5650032536701852
0.5973319800418009,0.5973319800418009
0.5780723132672213,0.5780723132672213
0.5347380630244174,0.5347380630244174
0.48108613415237444,0.48108613415237444
0.40955022898965054,0.40955022898965054
0.3187546570523471,0.3187546570523471
0.22245632317944952,0.22245632317944952
0.1440419655972329,0.1440419655972329
0.09726848914468264,0.09726848914468264
0.04774363172433531,0.04774363172433531
-0.027231499648134955,-0.027231499648134955
-0.13178397642442377,-0.13178397642442377
-0.21432540545833598,-0.21432540545833598
-0.2576596557011399,-0.2576596557011399
-0.27691932247571943,-0.27691932247571943
-0.306496667879538,-0.306496667879538
-0.33951323949310286,-0.33951323949310286
-0.3498309181223419,-0.3498309181223419
-0.33951323949310286,-0.33951323949310286
-0.34639169191259556,-0.34639169191259556
-0.4021071565104863,-0.4021071565104863
-0.46951599022151463,-0.46951599022151463
-0.46401322828592045,-0.46401322828592045
-0.29617898925029895,-0.29617898925029895
0.09726848914468264,0.09726848914468264
0.779610969158357,0.779610969158357
1.78317717716234,1.78317717716234
3.03299198178416,3.03299198178416
4.280055405438184,4.280055405438184
5.183884053359523,5.183884053359523
5.465900602558723,5.465900602558723
5.0518177669052635,5.0518177669052635
4.092961499627983,4.092961499627983
2.913994754926937,2.913994754926937
1.8457710941797232,1.8457710941797232
1.0616275183575572,1.0616275183575572
0.5347380630244174,0.5347380630244174
0.17155577527520363,0.17155577527520363
-0.0898254166655184,-0.0898254166655184
-0.28379777489521213,-0.28379777489521213
-0.46401322828592045,-0.46401322828592045
-0.6435408364346795,-0.6435408364346795
-0.7762949681308883,-0.7762949681308883
-0.8265076707931849,-0.8265076707931849
-0.8388888851482718,-0.8388888851482718
-0.8657148495842932,-0.8657148495842932
-0.9014828021656551,-0.9014828021656551
-0.9111126355529449,-0.9111126355529449
-0.9014828021656551,-0.9014828021656551
-0.9028584926495536,-0.9028584926495536
-0.9014828021656551,-0.9014828021656551
-0.8794717544232785,-0.8794717544232785
-0.8388888851482718,-0.8388888851482718
-0.8258198255512356,-0.8258198255512356
-0.8388888851482718,-0.8388888851482718
-0.84989440901946,-0.84989440901946
-0.8388888851482718,-0.8388888851482718
-0.8265076707931849,-0.8265076707931849
-0.8388888851482718,-0.8388888851482718
-0.8560850161970034,-0.8560850161970034
-0.8388888851482718,-0.8388888851482718
-0.775607122888939,-0.775607122888939
-0.7137010511135049,-0.7137010511135049
-0.6971927653067225,-0.6971927653067225
-0.7137010511135049,-0.7137010511135049
-0.7054469082101136,-0.7054469082101136
-0.6517949793380707,-0.6517949793380707
-0.5947038242562814,-0.5947038242562814
-0.5892010623206874,-0.5892010623206874
-0.6084607290952668,-0.6084607290952668
-0.5892010623206874,-0.5892010623206874
-0.5183530023999127,-0.5183530023999127
-0.46401322828592045,-0.46401322828592045
-0.4619496925600727,-0.4619496925600727
-0.46401322828592045,-0.46401322828592045
-0.4144883708655731,-0.4144883708655731
-0.33951323949310286,-0.33951323949310286
-0.2948032987664004,-0.2948032987664004
-0.27691932247571943,-0.27691932247571943
-0.2335850722329155,-0.2335850722329155
-0.15241933368290184,-0.15241933368290184
-0.07262928561678668,-0.07262928561678668
-0.027231499648134955,-0.027231499648134955
-0.0010933804540627528,-0.0010933804540627528
0.03536241736924848,0.03536241736924848
0.09451710817688556,0.09451710817688556
0.15986240616206607,0.15986240616206607
0.20594803737266706,0.20594803737266706
0.22245632317944952,0.22245632317944952
0.2382767637442827,0.2382767637442827
0.28505024019683295,0.28505024019683295
0.3579618358434554,0.3579618358434554
0.40955022898965054,0.40955022898965054
0.418492217134991,0.418492217134991
0.40955022898965054,0.40955022898965054
0.42743420528033155,0.42743420528033155
0.47214414600703397,0.47214414600703397
0.5168540867337365,0.5168540867337365
0.5347380630244174,0.5347380630244174
0.520981158185432,0.520981158185432
0.47214414600703397,0.47214414600703397
0.390290562215071,0.390290562215071
0.28505024019683295,0.28505024019683295
0.1811856086624934,0.1811856086624934
0.09726848914468264,0.09726848914468264
0.033298881643400675,0.033298881643400675
-0.027231499648134955,-0.027231499648134955
-0.09120110714941693,-0.09120110714941693
-0.15241933368290184,-0.15241933368290184
-0.1943778934418072,-0.1943778934418072
-0.21432540545833598,-0.21432540545833598
-0.21776463166808233,-0.21776463166808233
-0.21432540545833598,-0.21432540545833598
-0.21226186973248817,-0.21226186973248817
-0.21432540545833598,-0.21432540545833598
-0.21776463166808233,-0.21776463166808233
-0.21432540545833598,-0.21432540545833598
-0.20813479828079257,-0.20813479828079257
-0.21432540545833598,-0.21432540545833598
-0.242527060378256,-0.242527060378256
-0.27691932247571943,-0.27691932247571943
-0.29205191779860334,-0.29205191779860334
-0.27691932247571943,-0.27691932247571943
-0.24390275086215454,-0.24390275086215454
-0.21432540545833598,-0.21432540545833598
-0.2053834173129955,-0.2053834173129955
-0.21432540545833598,-0.21432540545833598
-0.22395523884562574,-0.22395523884562574
-0.21432540545833598,-0.21432540545833598
-0.18474806005451744,-0.18474806005451744
-0.15241933368290184,-0.15241933368290184
-0.13935027408586573,-0.13935027408586573
-0.15241933368290184,-0.15241933368290184
-0.16480054803798866,-0.16480054803798866
-0.15241933368290184,-0.15241933368290184
-0.11733922634348913,-0.11733922634348913
-0.0898254166655184,-0.0898254166655184
-0.06850221416509107,-0.06850221416509107
-0.027231499648134955,-0.027231499648134955
0.03948948882094409,0.03948948882094409
0.09726848914468264,0.09726848914468264
0.14679334656503,0.14679334656503
0.22245632317944952,0.22245632317944952
0.3304480261654847,0.3304480261654847
0.40955022898965054,0.40955022898965054
0.43981541963541837,0.43981541963541837
0.47214414600703397,0.47214414600703397
0.5299231463307725,0.5299231463307725
0.5347380630244174,0.5347380630244174
0.43156127673202715,0.43156127673202715
0.28505024019683295,0.28505024019683295
0.19356682301758024,0.19356682301758024
0.15986240616206607,0.15986240616206607
0.1309729060001968,0.1309729060001968
0.09726848914468264,0.09726848914468264
0.05324639365992946,0.05324639365992946
-0.027231499648134955,-0.027231499648134955
-0.1613613218282423,-0.1613613218282423
-0.27691932247571943,-0.27691932247571943
-0.32713202513801604,-0.32713202513801604
-0.33951323949310286,-0.33951323949310286
-0.3690905848969214,-0.3690905848969214
-0.4021071565104863,-0.4021071565104863
-0.40554638272023263,-0.40554638272023263
-0.4021071565104863,-0.4021071565104863
-0.42618173997871067,-0.42618173997871067
-0.46401322828592045,-0.46401322828592045
-0.47914582360880437,-0.47914582360880437
-0.46401322828592045,-0.46401322828592045
-0.3904137873973487,-0.3904137873973487
-0.15241933368290184,-0.15241933368290184
0.38822702648922325,0.38822702648922325
1.283801531507171,1.283801531507171
2.4607047404823694,2.4607047404823694
3.718085842765632,3.718085842765632
4.761547074802672,4.761547074802672
5.278806696748522,5.278806696748522
5.110972457712901,5.110972457712901
4.342649322455568,4.342649322455568
3.2551659949337743,3.2551659949337743
2.1573649887827417,2.1573649887827417
1.2700446266681855,1.2700446266681855
0.659238051817235,0.659238051817235
0.26716626390615195,0.26716626390615195
-0.027231499648134955,-0.027231499648134955
-0.2913640725566541,-0.2913640725566541
-0.5266071453033039,-0.5266071453033039
-0.7047590629681644,-0.7047590629681644
-0.8388888851482718,-0.8388888851482718
-0.9468805881343069,-0.9468805881343069
-1.0259827909584727,-1.0259827909584727
-1.0486816839427986,-1.0486816839427986
-1.0259827909584727,-1.0259827909584727
-1.0053474336999948,-1.0053474336999948
-1.0259827909584727,-1.0259827909584727
-1.0713805769271245,-1.0713805769271245
-1.0885767079758562,-1.0885767079758562
-1.065189969749581,-1.065189969749581
-1.0259827909584727,-1.0259827909584727
-1.0170408028131324,-1.0170408028131324
-1.0259827909584727,-1.0259827909584727
-1.0335490886199148,-1.0335490886199148
-1.0259827909584727,-1.0259827909584727
-1.003283897974147,-1.003283897974147
-0.9633888739410893,-0.9633888739410893
-0.9193667784563362,-0.9193667784563362
-0.9014828021656551,-0.9014828021656551
-0.9062977188593,-0.9062977188593
-0.9014828021656551,-0.9014828021656551
-0.8664026948262424,-0.8664026948262424
-0.8388888851482718,-0.8388888851482718
-0.8382010399063224,-0.8382010399063224
-0.8388888851482718,-0.8388888851482718
-0.8099993849864024,-0.8099993849864024
-0.7762949681308883,-0.7762949681308883
-0.7515325394207146,-0.7515325394207146
-0.7137010511135049,-0.7137010511135049
-0.6456043721605274,-0.6456043721605274
-0.5892010623206874,-0.5892010623206874
-0.5788833836914483,-0.5788833836914483
-0.5892010623206874,-0.5892010623206874
-0.5692535503041586,-0.5692535503041586
-0.5266071453033039,-0.5266071453033039
-0.49083919272194193,-0.49083919272194193
-0.46401322828592045,-0.46401322828592045
-0.4131126803816746,-0.4131126803816746
-0.33951323949310286,-0.33951323949310286
-0.2831099296532628,-0.2831099296532628
-0.27691932247571943,-0.27691932247571943
-0.29205191779860334,-0.29205191779860334
-0.27691932247571943,-0.27691932247571943
-0.21776463166808233,-0.21776463166808233
-0.15241933368290184,-0.15241933368290184
-0.093952488117214,-0.093952488117214
-0.027231499648134955,-0.027231499648134955
0.04980716745018312,0.04980716745018312
0.09726848914468264,0.09726848914468264
0.11721600116121143,0.11721600116121143
0.15986240616206607,0.15986240616206607
0.2382767637442827,0.2382767637442827
0.28505024019683295,0.28505024019683295
0.27679609729344173,0.27679609729344173
0.28505024019683295,0.28505024019683295
0.3558983001176076,0.3558983001176076
0.40955022898965054,0.40955022898965054
0.3710308954404915,0.3710308954404915
0.28505024019683295,0.28505024019683295
0.23965245422818124,0.23965245422818124
0.22245632317944952,0.22245632317944952
0.17568284672689927,0.17568284672689927
0.09726848914468264,0.09726848914468264
0.0305475006756036,0.0305475006756036
-0.027231499648134955,-0.027231499648134955
-0.09464033335916328,-0.09464033335916328
-0.15241933368290184,-0.15241933368290184
-0.1641127027960394,-0.1641127027960394
-0.15241933368290184,-0.15241933368290184
-0.16686408376383646,-0.16686408376383646
-0.21432540545833598,-0.21432540545833598
-0.24183921513630674,-0.24183921513630674
-0.21432540545833598,-0.21432540545833598
-0.16480054803798866,-0.16480054803798866
-0.15241933368290184,-0.15241933368290184
-0.18406021481256818,-0.18406021481256818
-0.21432540545833598,-0.21432540545833598
-0.21501325070028526,-0.21501325070028526
-0.21432540545833598,-0.21432540545833598
-0.24183921513630674,-0.24183921513630674
-0.27691932247571943,-0.27691932247571943
-0.28654915586300916,-0.28654915586300916
-0.27691932247571943,-0.27691932247571943
-0.27416794150792234,-0.27416794150792234
-0.27691932247571943,-0.27691932247571943
-0.2748557867498716,-0.2748557867498716
-0.27691932247571943,-0.27691932247571943
-0.2844856201371614,-0.2844856201371614
-0.27691932247571943,-0.27691932247571943
-0.24321490562020526,-0.24321490562020526
-0.21432540545833598,-0.21432540545833598
-0.21157402449053891,-0.21157402449053891
-0.21432540545833598,-0.21432540545833598
-0.19093866723206085,-0.19093866723206085
-0.15241933368290184,-0.15241933368290184
-0.12009060731128621,-0.12009060731128621
-0.0898254166655184,-0.0898254166655184
-0.03548564255152618,-0.03548564255152618
0.03536241736924848,0.03536241736924848
0.08557512003154508,0.08557512003154508
0.09726848914468264,0.09726848914468264
0.10758616777392167,0.10758616777392167
0.15986240616206607,0.15986240616206607
0.2561607400349637,0.2561607400349637
0.3476441572142164,0.3476441572142164
0.39854470511846224,0.39854470511846224
0.40955022898965054,0.40955022898965054
0.39648116939261446,0.39648116939261446
0.3476441572142164,0.3476441572142164
0.25891212100276073,0.25891212100276073
0.15986240616206607,0.15986240616206607
0.1027712510802768,0.1027712510802768
0.09726848914468264,0.09726848914468264
0.08970219148324068,0.08970219148324068
0.03536241736924848,0.03536241736924848
-0.065750833197294,-0.065750833197294
-0.15241933368290184,-0.15241933368290184
-0.21570109594223452,-0.21570109594223452
-0.27691932247571943,-0.27691932247571943
-0.3512066086062404,-0.3512066086062404
-0.4021071565104863,-0.4021071565104863
-0.40760991844608047,-0.40760991844608047
-0.4021071565104863,-0.4021071565104863
-0.4241182042528629,-0.4241182042528629
-0.46401322828592045,-0.46401322828592045
-0.47914582360880437,-0.47914582360880437
-0.46401322828592045,-0.46401322828592045
-0.44612925199523945,-0.44612925199523945
-0.4021071565104863,-0.4021071565104863
-0.20675910779689405,-0.20675910779689405
0.28505024019683295,0.28505024019683295
1.1235335901329913,1.1235335901329913
2.2199589058001252,2.2199589058001252
3.4099311743723595,3.4099311743723595
4.467149311248385,4.467149311248385
5.0951520171480675,5.0951520171480675
5.029118873920938,5.029118873920938
4.27455264350259,4.27455264350259
3.1561162800930793,3.1561162800930793
2.07482355974883,2.07482355974883
1.2212076144897874,1.2212076144897874
0.5980198252837501,0.5980198252837501
0.15986240616206607,0.15986240616206607
-0.12696905973077888,-0.12696905973077888
-0.33951323949310286,-0.33951323949310286
-0.5369248239325429,-0.5369248239325429
-0.7137010511135049,-0.7137010511135049
-0.8299468970029312,-0.8299468970029312
-0.9014828021656551,-0.9014828021656551
-0.9633888739410893,-0.9633888739410893
-1.0259827909584727,-1.0259827909584727
-1.0665656602334797,-1.0665656602334797
-1.0885767079758562,-1.0885767079758562
-1.0988943866050953,-1.0988943866050953
-1.0885767079758562,-1.0885767079758562
-1.0576236720881391,-1.0576236720881391
-1.0259827909584727,-1.0259827909584727
-1.0225435647487264,-1.0225435647487264
-1.0259827909584727,-1.0259827909584727
-1.026670636200422,-1.026670636200422
-1.0259827909584727,-1.0259827909584727
-1.0321733981360162,-1.0321733981360162
-1.0259827909584727,-1.0259827909584727
-0.9964054455546542,-0.9964054455546542
-0.9633888739410893,-0.9633888739410893
-0.9358750642631186,-0.9358750642631186
-0.9014828021656551,-0.9014828021656551
-0.8567728614389527,-0.8567728614389527
-0.8388888851482718,-0.8388888851482718
-0.8478308732936122,-0.8478308732936122
-0.8388888851482718,-0.8388888851482718
-0.7804220395825839,-0.7804220395825839
-0.7137010511135049,-0.7137010511135049
-0.6758695628062952,-0.6758695628062952
-0.6517949793380707,-0.6517949793380707
-0.6146513362728102,-0.6146513362728102
-0.5892010623206874,-0.5892010623206874
-0.5919524432884844,-0.5919524432884844
-0.5892010623206874,-0.5892010623206874
-0.5376126691744922,-0.5376126691744922
-0.46401322828592045,-0.46401322828592045
-0.4172397518333702,-0.4172397518333702
-0.4021071565104863,-0.4021071565104863
-0.37872041828421116,-0.37872041828421116
-0.33951323949310286,-0.33951323949310286
-0.3009939059439438,-0.3009939059439438
-0.27691932247571943,-0.27691932247571943
-0.25284473900749505,-0.25284473900749505
-0.21432540545833598,-0.21432540545833598
-0.1572342503765467,-0.1572342503765467
-0.0898254166655184,-0.0898254166655184
-0.02104089247059154,-0.02104089247059154
0.03536241736924848,0.03536241736924848
0.07388175091840751,0.07388175091840751
0.09726848914468264,0.09726848914468264
0.12409445358070412,0.12409445358070412
0.15986240616206607,0.15986240616206607
0.1983817397112251,0.1983817397112251
0.22245632317944952,0.22245632317944952
0.24309168043792756,0.24309168043792756
0.28505024019683295,0.28505024019683295
0.35314691914981056,0.35314691914981056
0.40955022898965054,0.40955022898965054
0.426058514796433,0.426058514796433
0.40955022898965054,0.40955022898965054
0.3847878002794769,0.3847878002794769
0.3476441572142164,0.3476441572142164
0.2905530021324271,0.2905530021324271
0.22245632317944952,0.22245632317944952
0.15986240616206607,0.15986240616206607
0.09726848914468264,0.09726848914468264
0.03192319115950214,0.03192319115950214
-0.027231499648134955,-0.027231499648134955
-0.06368729747144619,-0.06368729747144619
-0.0898254166655184,-0.0898254166655184
-0.12077845255323548,-0.12077845255323548
-0.15241933368290184,-0.15241933368290184
-0.1634248575540901,-0.1634248575540901
-0.15241933368290184,-0.15241933368290184
-0.14072596456976427,-0.14072596456976427
-0.15241933368290184,-0.15241933368290184
-0.18474806005451744,-0.18474806005451744
-0.21432540545833598,-0.21432540545833598
-0.22326739360367648,-0.22326739360367648
-0.21432540545833598,-0.21432540545833598
-0.20813479828079257,-0.20813479828079257
-0.21432540545833598,-0.21432540545833598
-0.22326739360367648,-0.22326739360367648
-0.21432540545833598,-0.21432540545833598
-0.18474806005451744,-0.18474806005451744
-0.15241933368290184,-0.15241933368290184
-0.14072596456976427,-0.14072596456976427
-0.15241933368290184,-0.15241933368290184
-0.1641127027960394,-0.1641127027960394
-0.15241933368290184,-0.15241933368290184
-0.11871491682738766,-0.11871491682738766
-0.0898254166655184,-0.0898254166655184
-0.08294696424602571,-0.08294696424602571
-0.0898254166655184,-0.0898254166655184
-0.07675635706848229,-0.07675635706848229
-0.027231499648134955,-0.027231499648134955
0.04292871503069043,0.04292871503069043
0.09726848914468264,0.09726848914468264
0.1309729060001968,0.1309729060001968
0.15986240616206607,0.15986240616206607
0.19563035874342805,0.19563035874342805
0.22245632317944952,0.22245632317944952
0.2444673709218261,0.2444673709218261
0.28505024019683295,0.28505024019683295
0.3510833834239627,0.3510833834239627
0.40955022898965054,0.40955022898965054
0.4432546458451647,0.4432546458451647
0.47214414600703397,0.47214414600703397
0.5161662414917871,0.5161662414917871
0.5347380630244174,0.5347380630244174
0.4762712174587296,0.4762712174587296
0.3476441572142164,0.3476441572142164
0.22383201366334804,0.22383201366334804
0.15986240616206607,0.15986240616206607
0.13647566793579094,0.13647566793579094
0.09726848914468264,0.09726848914468264
0.009912143417125544,0.009912143417125544
-0.0898254166655184,-0.0898254166655184
-0.16892761948968427,-0.16892761948968427
-0.21432540545833598,-0.21432540545833598
-0.2666016438464804,-0.2666016438464804
-0.33951323949310286,-0.33951323949310286
-0.41655190659142094,-0.41655190659142094
-0.46401322828592045,-0.46401322828592045
-0.47501875215710876,-0.47501875215710876
-0.46401322828592045,-0.46401322828592045
-0.45575908538252924,-0.45575908538252924
-0.46401322828592045,-0.46401322828592045
-0.475706597399058,-0.475706597399058
-0.46401322828592045,-0.46401322828592045
-0.41104914465582676,-0.41104914465582676
-0.27691932247571943,-0.27691932247571943
0.060124846079422145,0.060124846079422145
0.7218319688346185,0.7218319688346185
1.6710584027246091,1.6710584027246091
2.7193345514552942,2.7193345514552942
3.7277156761529215,3.7277156761529215
4.592337145283152,4.592337145283152
5.044251469243822,5.044251469243822
4.71683713407597,4.71683713407597
3.617660437441039,3.617660437441039
2.2825528228175087,2.2825528228175087
1.2879286029588666,1.2879286029588666
0.7218319688346185,0.7218319688346185
0.33251156189133246,0.33251156189133246
-0.027231499648134955,-0.027231499648134955
-0.2996182154600453,-0.2996182154600453
-0.46401322828592045,-0.46401322828592045
-0.5898889075626366,-0.5898889075626366
-0.7137010511135049,-0.7137010511135049
-0.7983060158732649,-0.7983060158732649
-0.8388888851482718,-0.8388888851482718
-0.8664026948262424,-0.8664026948262424
-0.9014828021656551,-0.9014828021656551
-0.9331236832953215,-0.9331236832953215
-0.9633888739410893,-0.9633888739410893
-0.9991568265224513,-0.9991568265224513
-1.0259827909584727,-1.0259827909584727
-1.0349247791038132,-1.0349247791038132
-1.0259827909584727,-1.0259827909584727
-1.0239192552326248,-1.0239192552326248
-1.0259827909584727,-1.0259827909584727
-1.0321733981360162,-1.0321733981360162
-1.0259827909584727,-1.0259827909584727
-1.0019082074902483,-1.0019082074902483
-0.9633888739410893,-0.9633888739410893
-0.9255573856338796,-0.9255573856338796
-0.9014828021656551,-0.9014828021656551
-0.87809606393938,-0.87809606393938
-0.8388888851482718,-0.8388888851482718
-0.775607122888939,-0.775607122888939
-0.7137010511135049,-0.7137010511135049
-0.6710546461126503,-0.6710546461126503
-0.6517949793380707,-0.6517949793380707
-0.6435408364346795,-0.6435408364346795
-0.6517949793380707,-0.6517949793380707
-0.6786209437740922,-0.6786209437740922
-0.7137010511135049,-0.7137010511135049
-0.7308971821622365,-0.7308971821622365
-0.7137010511135049,-0.7137010511135049
-0.6614248127253605,-0.6614248127253605
-0.5892010623206874,-0.5892010623206874
-0.5156016214321156,-0.5156016214321156
-0.46401322828592045,-0.46401322828592045
-0.4309966566723556,-0.4309966566723556
-0.4021071565104863,-0.4021071565104863
-0.3670270491710736,-0.3670270491710736
-0.33951323949310286,-0.33951323949310286
-0.31612650126682773,-0.31612650126682773
-0.27691932247571943,-0.27691932247571943
-0.21432540545833598,-0.21432540545833598
-0.15241933368290184,-0.15241933368290184
-0.09670386908501108,-0.09670386908501108
-0.027231499648134955,-0.027231499648134955
0.06906683422476263,0.06906683422476263
0.15986240616206607,0.15986240616206607
0.22795908511504365,0.22795908511504365
0.28505024019683295,0.28505024019683295
0.33732647858497733,0.33732647858497733
0.3476441572142164,0.3476441572142164
0.3105005141489559,0.3105005141489559
0.28505024019683295,0.28505024019683295
0.3276966451976876,0.3276966451976876
0.40955022898965054,0.40955022898965054
0.46664138407143985,0.46664138407143985
0.47214414600703397,0.47214414600703397
0.45150878874855593,0.45150878874855593
0.40955022898965054,0.40955022898965054
0.3318237166493832,0.3318237166493832
0.22245632317944952,0.22245632317944952
0.13166075124214607,0.13166075124214607
0.09726848914468264,0.09726848914468264
0.10552263204807387,0.10552263204807387
0.09726848914468264,0.09726848914468264
0.04705578648238604,0.04705578648238604
-0.027231499648134955,-0.027231499648134955
-0.09257679763331546,-0.09257679763331546
-0.15241933368290184,-0.15241933368290184
-0.21776463166808233,-0.21776463166808233
-0.27691932247571943,-0.27691932247571943
-0.29893037021809604,-0.29893037021809604
-0.27691932247571943,-0.27691932247571943
-0.2363364532007126,-0.2363364532007126
-0.21432540545833598,-0.21432540545833598
-0.2294580007812199,-0.2294580007812199
-0.27691932247571943,-0.27691932247571943
-0.32850771562191455,-0.32850771562191455
-0.33951323949310286,-0.33951323949310286
-0.2734800962659731,-0.2734800962659731
-0.15241933368290184,-0.15241933368290184
-0.06299945222949692,-0.06299945222949692
-0.0898254166655184,-0.0898254166655184
-0.2184524769100316,-0.2184524769100316
-0.33951323949310286,-0.33951323949310286
-0.35533368005793603,-0.35533368005793603
-0.27691932247571943,-0.27691932247571943
-0.18956297674816233,-0.18956297674816233
-0.15241933368290184,-0.15241933368290184
-0.15173148844095255,-0.15173148844095255
-0.15241933368290184,-0.15241933368290184
-0.1462287265053584,-0.1462287265053584
-0.15241933368290184,-0.15241933368290184
-0.16273701231214086,-0.16273701231214086
-0.15241933368290184,-0.15241933368290184
-0.1180270715854384,-0.1180270715854384
-0.0898254166655184,-0.0898254166655184
-0.07125359513288813,-0.07125359513288813
-0.027231499648134955,-0.027231499648134955
0.06287622704721922,0.06287622704721922
0.15986240616206607,0.15986240616206607
0.23002262084089148,0.23002262084089148
0.28505024019683295,0.28505024019683295
0.3490198476981149,0.3490198476981149
0.40955022898965054,0.40955022898965054
0.4632021578616935,0.4632021578616935
0.5347380630244174,0.5347380630244174
0.6248457897197716,0.6248457897197716
0.659238051817235,0.659238051817235
0.5766966227833228,0.5766966227833228
0.40955022898965054,0.40955022898965054
0.2534093590671666,0.2534093590671666
0.15986240616206607,0.15986240616206607
0.1179038464031607,0.1179038464031607
0.09726848914468264,0.09726848914468264
0.0566856198696758,0.0566856198696758
-0.027231499648134955,-0.027231499648134955
-0.1572342503765467,-0.1572342503765467
-0.27691932247571943,-0.27691932247571943
-0.3560215252998853,-0.3560215252998853
-0.4021071565104863,-0.4021071565104863
-0.43993864481769607,-0.43993864481769607
-0.46401322828592045,-0.46401322828592045
-0.46676460925371754,-0.46676460925371754
-0.46401322828592045,-0.46401322828592045
-0.4660767640117683,-0.4660767640117683
-0.46401322828592045,-0.46401322828592045
-0.45851046635032633,-0.45851046635032633
-0.46401322828592045,-0.46401322828592045
-0.429620966188457,-0.429620966188457
-0.21432540545833598,-0.21432540545833598
0.3263209547137891,0.3263209547137891
1.2212076144897874,1.2212076144897874
2.3644064066094717,2.3644064066094717
3.530991936955431,3.530991936955431
4.416248763344139,4.416248763344139
4.71683713407597,4.71683713407597
4.319950429471242,4.319950429471242
3.405804102920664,3.405804102920664
2.3534008827382835,2.3534008827382835
1.470895437317372,1.470895437317372
0.8518347195630303,0.8518347195630303
0.40955022898965054,0.40955022898965054
0.060124846079422145,0.060124846079422145
-0.21432540545833598,-0.21432540545833598
-0.40073146602658777,-0.40073146602658777
-0.5266071453033039,-0.5266071453033039
-0.6270325506278971,-0.6270325506278971
-0.7137010511135049,-0.7137010511135049
-0.7783585038567361,-0.7783585038567361
-0.8388888851482718,-0.8388888851482718
-0.9062977188593,-0.9062977188593
-0.9633888739410893,-0.9633888739410893
-0.9812728502317704,-0.9812728502317704
-0.9633888739410893,-0.9633888739410893
-0.9351872190211693,-0.9351872190211693
-0.9014828021656551,-0.9014828021656551
-0.867778385310141,-0.867778385310141
-0.8388888851482718,-0.8388888851482718
-0.8333861232126776,-0.8333861232126776
-0.8388888851482718,-0.8388888851482718
-0.8416402661160688,-0.8416402661160688
-0.8388888851482718,-0.8388888851482718
-0.8388888851482718,-0.8388888851482718
-0.8388888851482718,-0.8388888851482718
-0.818941373131743,-0.818941373131743
-0.7762949681308883,-0.7762949681308883
-0.7308971821622365,-0.7308971821622365
-0.7137010511135049,-0.7137010511135049
-0.7178281225652005,-0.7178281225652005
-0.7137010511135049,-0.7137010511135049
-0.6848115509516357,-0.6848115509516357
-0.6517949793380707,-0.6517949793380707
-0.6242811696601,-0.6242811696601
-0.5892010623206874,-0.5892010623206874
-0.5266071453033039,-0.5266071453033039
-0.46401322828592045,-0.46401322828592045
-0.44200218054354384,-0.44200218054354384
-0.46401322828592045,-0.46401322828592045
-0.4853364307863478,-0.4853364307863478
-0.46401322828592045,-0.46401322828592045
-0.40279500175243554,-0.40279500175243554
-0.33951323949310286,-0.33951323949310286
-0.29824252497614673,-0.29824252497614673
-0.27691932247571943,-0.27691932247571943
-0.25284473900749505,-0.25284473900749505
-0.21432540545833598,-0.21432540545833598
-0.15792209561849596,-0.15792209561849596
-0.0898254166655184,-0.0898254166655184
-0.018977356744743733,-0.018977356744743733
0.03536241736924848,0.03536241736924848
0.06906683422476263,0.06906683422476263
0.09726848914468264,0.09726848914468264
0.14748119180697924,0.14748119180697924
0.22245632317944952,0.22245632317944952
0.31600327608455003,0.31600327608455003
0.40955022898965054,0.40955022898965054
0.48796458657186714,0.48796458657186714
0.5347380630244174,0.5347380630244174
0.5622518727023882,0.5622518727023882
0.5973319800418009,0.5973319800418009
0.6420419207685033,0.6420419207685033
0.659238051817235,0.659238051817235
0.6200308730261267,0.6200308730261267
0.5347380630244174,0.5347380630244174
0.43775188390957054,0.43775188390957054
0.3476441572142164,0.3476441572142164
0.2726690258417461,0.2726690258417461
0.22245632317944952,0.22245632317944952
0.19563035874342805,0.19563035874342805
0.15986240616206607,0.15986240616206607
0.08419942954764655,0.08419942954764655
-0.027231499648134955,-0.027231499648134955
-0.13659889311806864,-0.13659889311806864
-0.21432540545833598,-0.21432540545833598
-0.2576596557011399,-0.2576596557011399
-0.27691932247571943,-0.27691932247571943
-0.2803585486854658,-0.2803585486854658
-0.27691932247571943,-0.27691932247571943
-0.27416794150792234,-0.27416794150792234
-0.27691932247571943,-0.27691932247571943
-0.2817342391693643,-0.2817342391693643
-0.27691932247571943,-0.27691932247571943
-0.2514690485235965,-0.2514690485235965
-0.21432540545833598,-0.21432540545833598
-0.19506573868375648,-0.19506573868375648
-0.21432540545833598,-0.21432540545833598
-0.2562839652172414,-0.2562839652172414
-0.27691932247571943,-0.27691932247571943
-0.2562839652172414,-0.2562839652172414
-0.21432540545833598,-0.21432540545833598
-0.17855745287697403,-0.17855745287697403
-0.15241933368290184,-0.15241933368290184
-0.13659889311806864,-0.13659889311806864
-0.15241933368290184,-0.15241933368290184
-0.2095104887646911,-0.2095104887646911
-0.27691932247571943,-0.27691932247571943
-0.3051209773956394,-0.3051209773956394
-0.27691932247571943,-0.27691932247571943
-0.21432540545833598,-0.21432540545833598
-0.15241933368290184,-0.15241933368290184
-0.10977292868204717,-0.10977292868204717
-0.0898254166655184,-0.0898254166655184
-0.0698779046489896,-0.0698779046489896
-0.027231499648134955,-0.027231499648134955
0.03948948882094409,0.03948948882094409
0.09726848914468264,0.09726848914468264
0.13372428696799388,0.13372428696799388
0.15986240616206607,0.15986240616206607
0.19356682301758024,0.19356682301758024
0.22245632317944952,0.22245632317944952
0.2465309066476739,0.2465309066476739
0.28505024019683295,0.28505024019683295
0.35039553818201347,0.35039553818201347
0.40955022898965054,0.40955022898965054
0.4308734314900779,0.4308734314900779
0.40955022898965054,0.40955022898965054
0.36140106205320177,0.36140106205320177
0.28505024019683295,0.28505024019683295
0.1880640610819861,0.1880640610819861
0.09726848914468264,0.09726848914468264
0.012663524384922617,0.012663524384922617
-0.0898254166655184,-0.0898254166655184
-0.22464308408757502,-0.22464308408757502
-0.33951323949310286,-0.33951323949310286
-0.4131126803816746,-0.4131126803816746
-0.46401322828592045,-0.46401322828592045
-0.5279828357872024,-0.5279828357872024
-0.5892010623206874,-0.5892010623206874
-0.6263447053859478,-0.6263447053859478
-0.6517949793380707,-0.6517949793380707
-0.6848115509516357,-0.6848115509516357
-0.7137010511135049,-0.7137010511135049
-0.7020076820003673,-0.7020076820003673
-0.6517949793380707,-0.6517949793380707
-0.5981430504660278,-0.5981430504660278
-0.5266071453033039,-0.5266071453033039
-0.28930053683080625,-0.28930053683080625
0.28505024019683295,0.28505024019683295
1.2150170073122442,1.2150170073122442
2.345146739834892,2.345146739834892
3.5069173534872062,3.5069173534872062
4.529743228265769,4.529743228265769
5.110972457712901,5.110972457712901
4.903931039886171,4.903931039886171
3.9244394153504123,3.9244394153504123
2.6567406344379108,2.6567406344379108
1.6339147596593486,1.6339147596593486
0.971519791662203,0.971519791662203
0.4941551937494106,0.4941551937494106
0.09726848914468264,0.09726848914468264
-0.17580607190917696,-0.17580607190917696
-0.33951323949310286,-0.33951323949310286
-0.4846485855443985,-0.4846485855443985
-0.6517949793380707,-0.6517949793380707
-0.7817977300664825,-0.7817977300664825
-0.8388888851482718,-0.8388888851482718
-0.8430159565999673,-0.8430159565999673
-0.8388888851482718,-0.8388888851482718
-0.8375131946643731,-0.8375131946643731
-0.8388888851482718,-0.8388888851482718
-0.8402645756321703,-0.8402645756321703
-0.8388888851482718,-0.8388888851482718
-0.8409524208741195,-0.8409524208741195
-0.8388888851482718,-0.8388888851482718
-0.8402645756321703,-0.8402645756321703
-0.8388888851482718,-0.8388888851482718
-0.8430159565999673,-0.8430159565999673
-0.8388888851482718,-0.8388888851482718
-0.8155021469219966,-0.8155021469219966
-0.7762949681308883,-0.7762949681308883
-0.73708778933978,-0.73708778933978
-0.7137010511135049,-0.7137010511135049
-0.7095739796618092,-0.7095739796618092
-0.7137010511135049,-0.7137010511135049
-0.6978806105486718,-0.6978806105486718
-0.6517949793380707,-0.6517949793380707
-0.6008944314338249,-0.6008944314338249
-0.5892010623206874,-0.5892010623206874
-0.6029579671596726,-0.6029579671596726
-0.5892010623206874,-0.5892010623206874
-0.5252314548194054,-0.5252314548194054
-0.46401322828592045,-0.46401322828592045
-0.45163201393083363,-0.45163201393083363
-0.46401322828592045,-0.46401322828592045
-0.447504942479138,-0.447504942479138
-0.4021071565104863,-0.4021071565104863
-0.3608364419935302,-0.3608364419935302
-0.33951323949310286,-0.33951323949310286
-0.31543865602487847,-0.31543865602487847
-0.27691932247571943,-0.27691932247571943
-0.22120385787782867,-0.22120385787782867
-0.15241933368290184,-0.15241933368290184
-0.07950773803627936,-0.07950773803627936
-0.027231499648134955,-0.027231499648134955
0.003033690997632858,0.003033690997632858
0.03536241736924848,0.03536241736924848
0.09245357245103776,0.09245357245103776
0.15986240616206607,0.15986240616206607
0.22383201366334804,0.22383201366334804
0.28505024019683295,0.28505024019683295
0.35245907390786124,0.35245907390786124
0.40955022898965054,0.40955022898965054
0.4473817172968603,0.4473817172968603
0.47214414600703397,0.47214414600703397
0.5024093366528017,0.5024093366528017
0.5347380630244174,0.5347380630244174
0.5650032536701852,0.5650032536701852
0.5973319800418009,0.5973319800418009
0.6358513135909599,0.6358513135909599
0.659238051817235,0.659238051817235
0.6468568374621482,0.6468568374621482
0.5973319800418009,0.5973319800418009
0.5361137535083159,0.5361137535083159
0.47214414600703397,0.47214414600703397
0.39235409794091886,0.39235409794091886
0.28505024019683295,0.28505024019683295
0.17361931100105144,0.17361931100105144
0.09726848914468264,0.09726848914468264
0.06425191753111775,0.06425191753111775
0.03536241736924848,0.03536241736924848
-0.02035304722864227,-0.02035304722864227
-0.0898254166655184,-0.0898254166655184
-0.13728673836001792,-0.13728673836001792
-0.15241933368290184,-0.15241933368290184
-0.15241933368290184,-0.15241933368290184
-0.15241933368290184,-0.15241933368290184
-0.15241933368290184,-0.15241933368290184
-0.15241933368290184,-0.15241933368290184
-0.15241933368290184,-0.15241933368290184
-0.15241933368290184,-0.15241933368290184
-0.1510436431990033,-0.1510436431990033
-0.15241933368290184,-0.15241933368290184
-0.15448286940874964,-0.15448286940874964
-0.15241933368290184,-0.15241933368290184
-0.14760441698925694,-0.14760441698925694
-0.15241933368290184,-0.15241933368290184
-0.16067347658629305,-0.16067347658629305
-0.15241933368290184,-0.15241933368290184
-0.12009060731128621,-0.12009060731128621
-0.0898254166655184,-0.0898254166655184
-0.08225911900407644,-0.08225911900407644
-0.0898254166655184,-0.0898254166655184
-0.0918889523913662,-0.0918889523913662
-0.0898254166655184,-0.0898254166655184
-0.09120110714941693,-0.09120110714941693
-0.0898254166655184,-0.0898254166655184
-0.0678143689231418,-0.0678143689231418
-0.027231499648134955,-0.027231499648134955
0.01197567914297335,0.01197567914297335
0.03536241736924848,0.03536241736924848
0.05737346511162507,0.05737346511162507
0.09726848914468264,0.09726848914468264
0.16055025140401535,0.16055025140401535
0.22245632317944952,0.22245632317944952
0.26303919245445634,0.26303919245445634
0.28505024019683295,0.28505024019683295
0.32700879995573834,0.32700879995573834
0.40955022898965054,0.40955022898965054
0.5010336461689032,0.5010336461689032
0.5347380630244174,0.5347380630244174
0.490028122297715,0.490028122297715
0.40955022898965054,0.40955022898965054
0.34145355003667294,0.34145355003667294
0.28505024019683295,0.28505024019683295
0.22245632317944952,0.22245632317944952
0.15986240616206607,0.15986240616206607
0.10070771535442899,0.10070771535442899
0.03536241736924848,0.03536241736924848
-0.058872380777801304,-0.058872380777801304
-0.15241933368290184,-0.15241933368290184
-0.22601877457147357,-0.22601877457147357
-0.27691932247571943,-0.27691932247571943
-0.33538616804140725,-0.33538616804140725
-0.4021071565104863,-0.4021071565104863
-0.4509441686888844,-0.4509441686888844
-0.46401322828592045,-0.46401322828592045
-0.45713477586642776,-0.45713477586642776
-0.46401322828592045,-0.46401322828592045
-0.493590573689739,-0.493590573689739
-0.5266071453033039,-0.5266071453033039
-0.5300463715130502,-0.5300463715130502
-0.46401322828592045,-0.46401322828592045
-0.2507812032816472,-0.2507812032816472
0.22245632317944952,0.22245632317944952
1.0375529348893329,1.0375529348893329
2.1573649887827417,2.1573649887827417
3.414058245824055,3.414058245824055
4.529743228265769,4.529743228265769
5.202455874892153,5.202455874892153
5.216212779731139,5.216212779731139
4.579268085686116,4.579268085686116
3.530991936955431,3.530991936955431
2.413931264029819,2.413931264029819
1.470895437317372,1.470895437317372
0.7775474334325093,0.7775474334325093
0.28505024019683295,0.28505024019683295
-0.07056574989093888,-0.07056574989093888
-0.33951323949310286,-0.33951323949310286
-0.5451789668359341,-0.5451789668359341
-0.7137010511135049,-0.7137010511135049
-0.852645789987257,-0.852645789987257
-0.9633888739410893,-0.9633888739410893
-1.0390518505555089,-1.0390518505555089
-1.0885767079758562,-1.0885767079758562
-1.1229689700733196,-1.1229689700733196
-1.1511706249932396,-1.1511706249932396
-1.1635518393483264,-1.1635518393483264
-1.1511706249932396,-1.1511706249932396
-1.121593279589421,-1.121593279589421
-1.0885767079758562,-1.0885767079758562
-1.0796347198305156,-1.0796347198305156
-1.0885767079758562,-1.0885767079758562
-1.1016457675728923,-1.1016457675728923
-1.0885767079758562,-1.0885767079758562
-1.0541844458783927,-1.0541844458783927
-1.0259827909584727,-1.0259827909584727
-1.0218557195067772,-1.0218557195067772
-1.0259827909584727,-1.0259827909584727
-1.0074109694258424,-1.0074109694258424
-0.9633888739410893,-0.9633888739410893
-0.9193667784563362,-0.9193667784563362
-0.9014828021656551,-0.9014828021656551
-0.9021706474076044,-0.9021706474076044
-0.9014828021656551,-0.9014828021656551
-0.8774082186974308,-0.8774082186974308
-0.8388888851482718,-0.8388888851482718
-0.7996817063571634,-0.7996817063571634
-0.7762949681308883,-0.7762949681308883
-0.7522203846626638,-0.7522203846626638
-0.7137010511135049,-0.7137010511135049
-0.6717424913545995,-0.6717424913545995
-0.6517949793380707,-0.6517949793380707
-0.6366623840151868,-0.6366623840151868
-0.5892010623206874,-0.5892010623206874
-0.5107867047384708,-0.5107867047384708
-0.46401322828592045,-0.46401322828592045
-0.4674524544956668,-0.4674524544956668
-0.46401322828592045,-0.46401322828592045
-0.4082977636880297,-0.4082977636880297
-0.33951323949310286,-0.33951323949310286
-0.30236959642784234,-0.30236959642784234
-0.27691932247571943,-0.27691932247571943
-0.21982816739393013,-0.21982816739393013
-0.15241933368290184,-0.15241933368290184
-0.11114861916594572,-0.11114861916594572
-0.0898254166655184,-0.0898254166655184
-0.04098840448712033,-0.04098840448712033
0.03536241736924848,0.03536241736924848
0.1089618582578202,0.1089618582578202
0.15986240616206607,0.15986240616206607
0.1970060492273266,0.1970060492273266
0.22245632317944952,0.22245632317944952
0.2465309066476739,0.2465309066476739
0.28505024019683295,0.28505024019683295
0.34833200245616563,0.34833200245616563
0.40955022898965054,0.40955022898965054
0.43568834818372276,0.43568834818372276
0.40955022898965054,0.40955022898965054
0.351771228665912,0.351771228665912
0.28505024019683295,0.28505024019683295
0.22176847793750024,0.22176847793750024
0.15986240616206607,0.15986240616206607
0.09864417962858119,0.09864417962858119
0.03536241736924848,0.03536241736924848
-0.02654365440618569,-0.02654365440618569
-0.0898254166655184,-0.0898254166655184
-0.15379502416680035,-0.15379502416680035
-0.21432540545833598,-0.21432540545833598
-0.25834750094308917,-0.25834750094308917
-0.27691932247571943,-0.27691932247571943
-0.2776071677176687,-0.2776071677176687
-0.27691932247571943,-0.27691932247571943
-0.2789828582015672,-0.2789828582015672
-0.27691932247571943,-0.27691932247571943
-0.27210440578207457,-0.27210440578207457
-0.27691932247571943,-0.27691932247571943
-0.28654915586300916,-0.28654915586300916
-0.27691932247571943,-0.27691932247571943
-0.24321490562020526,-0.24321490562020526
-0.21432540545833598,-0.21432540545833598
-0.21088617924858966,-0.21088617924858966
-0.21432540545833598,-0.21432540545833598
-0.21019833400664037,-0.21019833400664037
-0.21432540545833598,-0.21432540545833598
-0.24527844134605306,-0.24527844134605306
-0.27691932247571943,-0.27691932247571943
-0.2666016438464804,-0.2666016438464804
-0.21432540545833598,-0.21432540545833598
-0.16480054803798866,-0.16480054803798866
-0.15241933368290184,-0.15241933368290184
-0.15998563134434376,-0.15998563134434376
-0.15241933368290184,-0.15241933368290184
-0.12077845255323548,-0.12077845255323548
-0.0898254166655184,-0.0898254166655184
-0.065750833197294,-0.065750833197294
-0.027231499648134955,-0.027231499648134955
0.03742595309509628,0.03742595309509628
0.09726848914468264,0.09726848914468264
0.13303644172604462,0.13303644172604462
0.15986240616206607,0.15986240616206607
0.21282648979215976,0.21282648979215976
0.28505024019683295,0.28505024019683295
0.3545226096337091,0.3545226096337091
0.40955022898965054,0.40955022898965054
0.4535723244744037,0.4535723244744037
0.47214414600703397,0.47214414600703397
0.45563586020025154,0.45563586020025154
0.40955022898965054,0.40955022898965054
0.351771228665912,0.351771228665912
0.28505024019683295,0.28505024019683295
0.21420218027605828,0.21420218027605828
0.15986240616206607,0.15986240616206607
0.12753367979045047,0.12753367979045047
0.09726848914468264,0.09726848914468264
0.023669048256110912,0.023669048256110912
-0.0898254166655184,-0.0898254166655184
-0.2074469530388433,-0.2074469530388433
-0.27691932247571943,-0.27691932247571943
-0.30718451312148726,-0.30718451312148726
-0.33951323949310286,-0.33951323949310286
-0.40073146602658777,-0.40073146602658777
-0.46401322828592045,-0.46401322828592045
-0.48602427602829706,-0.48602427602829706
-0.46401322828592045,-0.46401322828592045
-0.4440657162693917,-0.4440657162693917
-0.46401322828592045,-0.46401322828592045
-0.49771764514143463,-0.49771764514143463
-0.46401322828592045,-0.46401322828592045
-0.270728715298176,-0.270728715298176
0.15986240616206607,0.15986240616206607
0.9034231127092254,0.9034231127092254
1.970271082972541,1.970271082972541
3.2200858875943617,3.2200858875943617
4.342649322455568,4.342649322455568
5.023616111985343,5.023616111985343
5.091712790938321,5.091712790938321
4.561384109395435,4.561384109395435
3.5935858539728143,3.5935858539728143
2.483403633466695,2.483403633466695
1.5334893543347554,1.5334893543347554
0.8745336125473562,0.8745336125473562
0.40955022898965054,0.40955022898965054
0.02573258398195872,0.02573258398195872
-0.27691932247571943,-0.27691932247571943
-0.46126184731812336,-0.46126184731812336
-0.5892010623206874,-0.5892010623206874
-0.7233308845007946,-0.7233308845007946
-0.8388888851482718,-0.8388888851482718
-0.8829109806330249,-0.8829109806330249
-0.9014828021656551,-0.9014828021656551
-0.9551347310376981,-0.9551347310376981
-1.0259827909584727,-1.0259827909584727
-1.0486816839427986,-1.0486816839427986
-1.0259827909584727,-1.0259827909584727
-1.0156651123292337,-1.0156651123292337
-1.0259827909584727,-1.0259827909584727
-1.0356126243457626,-1.0356126243457626
-1.0259827909584727,-1.0259827909584727
-1.0239192552326248,-1.0239192552326248
-1.0259827909584727,-1.0259827909584727
-1.0108501956355889,-1.0108501956355889
-0.9633888739410893,-0.9633888739410893
-0.913864016520742,-0.913864016520742
-0.9014828021656551,-0.9014828021656551
-0.9118004807948942,-0.9118004807948942
-0.9014828021656551,-0.9014828021656551
-0.8608999328906483,-0.8608999328906483
-0.8388888851482718,-0.8388888851482718
-0.847143028051663,-0.847143028051663
-0.8388888851482718,-0.8388888851482718
-0.7776706586147868,-0.7776706586147868
-0.7137010511135049,-0.7137010511135049
-0.698568455790621,-0.698568455790621
-0.7137010511135049,-0.7137010511135049
-0.698568455790621,-0.698568455790621
-0.6517949793380707,-0.6517949793380707
-0.6098364195791653,-0.6098364195791653
-0.5892010623206874,-0.5892010623206874
-0.5644386336105136,-0.5644386336105136
-0.5266071453033039,-0.5266071453033039
-0.4887756569960941,-0.4887756569960941
-0.46401322828592045,-0.46401322828592045
-0.43856295433379755,-0.43856295433379755
-0.4021071565104863,-0.4021071565104863
-0.3622121324774287,-0.3622121324774287
-0.33951323949310286,-0.33951323949310286
-0.32025357271852334,-0.32025357271852334
-0.27691932247571943,-0.27691932247571943
-0.2074469530388433,-0.2074469530388433
-0.15241933368290184,-0.15241933368290184
-0.12284198827908328,-0.12284198827908328
-0.0898254166655184,-0.0898254166655184
-0.02654365440618569,-0.02654365440618569
0.03536241736924848,0.03536241736924848
0.0697546794667119,0.0697546794667119
0.09726848914468264,0.09726848914468264
0.15435964422647194,0.15435964422647194
0.22245632317944952,0.22245632317944952
0.26716626390615195,0.26716626390615195
0.28505024019683295,0.28505024019683295
0.3084369784231081,0.3084369784231081
0.3476441572142164,0.3476441572142164
0.3889148717311725,0.3889148717311725
0.40955022898965054,0.40955022898965054
0.3999203956023608,0.3999203956023608
0.3476441572142164,0.3476441572142164
0.25891212100276073,0.25891212100276073
0.15986240616206607,0.15986240616206607
0.082823739063748,0.082823739063748
0.03536241736924848,0.03536241736924848
0.004409381481531395,0.004409381481531395
-0.027231499648134955,-0.027231499648134955
-0.05956022601975058,-0.05956022601975058
-0.0898254166655184,-0.0898254166655184
-0.1180270715854384,-0.1180270715854384
-0.15241933368290184,-0.15241933368290184
-0.18887513150621305,-0.18887513150621305
-0.21432540545833598,-0.21432540545833598
-0.21982816739393013,-0.21982816739393013
-0.21432540545833598,-0.21432540545833598
-0.21157402449053891,-0.21157402449053891
-0.21432540545833598,-0.21432540545833598
-0.2163889411841838,-0.2163889411841838
-0.21432540545833598,-0.21432540545833598
-0.21294971497443746,-0.21294971497443746
-0.21432540545833598,-0.21432540545833598
-0.2163889411841838,-0.2163889411841838
-0.21432540545833598,-0.21432540545833598
-0.21226186973248817,-0.21226186973248817
-0.21432540545833598,-0.21432540545833598
-0.21776463166808233,-0.21776463166808233
-0.21432540545833598,-0.21432540545833598
-0.2095104887646911,-0.2095104887646911
-0.21432540545833598,-0.21432540545833598
-0.22326739360367648,-0.22326739360367648
-0.21432540545833598,-0.21432540545833598
-0.18199667908672038,-0.18199667908672038
-0.15241933368290184,-0.15241933368290184
-0.1462287265053584,-0.1462287265053584
-0.15241933368290184,-0.15241933368290184
-0.13728673836001792,-0.13728673836001792
-0.0898254166655184,-0.0898254166655184
-0.023792273438388613,-0.023792273438388613
0.03536241736924848,0.03536241736924848
0.07663313188620459,0.07663313188620459
0.09726848914468264,0.09726848914468264
0.11721600116121143,0.11721600116121143
0.15986240616206607,0.15986240616206607
0.2424038351959783,0.2424038351959783
0.3476441572142164,0.3476441572142164
0.43568834818372276,0.43568834818372276
0.47214414600703397,0.47214414600703397
0.45701155068415006,0.45701155068415006
0.40955022898965054,0.40955022898965054
0.3510833834239627,0.3510833834239627
0.28505024019683295,0.28505024019683295
0.21764140648580463,0.21764140648580463
0.15986240616206607,0.15986240616206607
0.1048347868061246,0.1048347868061246
0.03536241736924848,0.03536241736924848
-0.060935916503649115,-0.060935916503649115
-0.15241933368290184,-0.15241933368290184
-0.22395523884562574,-0.22395523884562574
-0.27691932247571943,-0.27691932247571943
-0.33813754900920434,-0.33813754900920434
-0.4021071565104863,-0.4021071565104863
-0.4481927877210873,-0.4481927877210873
-0.46401322828592045,-0.46401322828592045
-0.4633253830439712,-0.4633253830439712
-0.46401322828592045,-0.46401322828592045
-0.46676460925371754,-0.46676460925371754
-0.46401322828592045,-0.46401322828592045
-0.4633253830439712,-0.4633253830439712
-0.46401322828592045,-0.46401322828592045
-0.4021071565104863,-0.4021071565104863
-0.15241933368290184,-0.15241933368290184
0.40267177657015785,0.40267177657015785
1.283801531507171,1.283801531507171
2.4098041925781235,2.4098041925781235
3.5935858539728143,3.5935858539728143
4.549690740282298,4.549690740282298
4.966524956903554,4.966524956903554
4.6900111696399485,4.6900111696399485
3.8432736768003988,3.8432736768003988
2.765420182665895,2.765420182665895
1.78317717716234,1.78317717716234
1.0492463040024704,1.0492463040024704
0.5347380630244174,0.5347380630244174
0.1550474894684212,0.1550474894684212
-0.15241933368290184,-0.15241933368290184
-0.3979800850587907,-0.3979800850587907
-0.5892010623206874,-0.5892010623206874
-0.7315850274041859,-0.7315850274041859
-0.8388888851482718,-0.8388888851482718
-0.9124883260368435,-0.9124883260368435
-0.9633888739410893,-0.9633888739410893
-0.9991568265224513,-0.9991568265224513
-1.0259827909584727,-1.0259827909584727
-1.0349247791038132,-1.0349247791038132
-1.0259827909584727,-1.0259827909584727
-1.0184164932970308,-1.0184164932970308
-1.0259827909584727,-1.0259827909584727
-1.0411153862813567,-1.0411153862813567
-1.0259827909584727,-1.0259827909584727
-0.9902148383771108,-0.9902148383771108
-0.9633888739410893,-0.9633888739410893
-0.9661402549088864,-0.9661402549088864
-0.9633888739410893,-0.9633888739410893
-0.9331236832953215,-0.9331236832953215
-0.9014828021656551,-0.9014828021656551
-0.8966678854720103,-0.8966678854720103
-0.9014828021656551,-0.9014828021656551
-0.8787839091813293,-0.8787839091813293
-0.8388888851482718,-0.8388888851482718
-0.8031209325669098,-0.8031209325669098
-0.7762949681308883,-0.7762949681308883
-0.7439662417592726,-0.7439662417592726
-0.7137010511135049,-0.7137010511135049
-0.6854993961935849,-0.6854993961935849
-0.6517949793380707,-0.6517949793380707
-0.6091485743372161,-0.6091485743372161
-0.5892010623206874,-0.5892010623206874
-0.5940159790143322,-0.5940159790143322
-0.5892010623206874,-0.5892010623206874
-0.5376126691744922,-0.5376126691744922
-0.46401322828592045,-0.46401322828592045
-0.4158640613494717,-0.4158640613494717
-0.4021071565104863,-0.4021071565104863
-0.383535334977856,-0.383535334977856
-0.33951323949310286,-0.33951323949310286
-0.2913640725566541,-0.2913640725566541
-0.27691932247571943,-0.27691932247571943
-0.2858613106210599,-0.2858613106210599
-0.27691932247571943,-0.27691932247571943
-0.22395523884562574,-0.22395523884562574
-0.15241933368290184,-0.15241933368290184
-0.08638619045577205,-0.08638619045577205
-0.027231499648134955,-0.027231499648134955
0.03880164357899482,0.03880164357899482
0.09726848914468264,0.09726848914468264
0.13647566793579094,0.13647566793579094
0.15986240616206607,0.15986240616206607
0.18943975156588463,0.18943975156588463
0.22245632317944952,0.22245632317944952
0.25203366858326803,0.25203366858326803
0.28505024019683295,0.28505024019683295
0.3400778595527744,0.3400778595527744
0.40955022898965054,0.40955022898965054
0.4632021578616935,0.4632021578616935
0.47214414600703397,0.47214414600703397
0.4473817172968603,0.4473817172968603
0.40955022898965054,0.40955022898965054
0.36208890729515103,0.36208890729515103
0.28505024019683295,0.28505024019683295
0.18600052535613829,0.18600052535613829
0.09726848914468264,0.09726848914468264
0.03536241736924848,0.03536241736924848
-0.027231499648134955,-0.027231499648134955
-0.10014309529475741,-0.10014309529475741
-0.15241933368290184,-0.15241933368290184
-0.15792209561849596,-0.15792209561849596
-0.15241933368290184,-0.15241933368290184
-0.17443038142527842,-0.17443038142527842
-0.21432540545833598,-0.21432540545833598
-0.2294580007812199,-0.2294580007812199
-0.21432540545833598,-0.21432540545833598
-0.2033198815871477,-0.2033198815871477
-0.21432540545833598,-0.21432540545833598
-0.22739446505537209,-0.22739446505537209
-0.21432540545833598,-0.21432540545833598
-0.18062098860282183,-0.18062098860282183
-0.15241933368290184,-0.15241933368290184
-0.14554088126340914,-0.14554088126340914
-0.15241933368290184,-0.15241933368290184
-0.1551707146506989,-0.1551707146506989
-0.15241933368290184,-0.15241933368290184
-0.14966795271510475,-0.14966795271510475
-0.15241933368290184,-0.15241933368290184
-0.15379502416680035,-0.15379502416680035
-0.15241933368290184,-0.15241933368290184
-0.15035579795705403,-0.15035579795705403
-0.15241933368290184,-0.15241933368290184
-0.1531071789248511,-0.1531071789248511
-0.15241933368290184,-0.15241933368290184
-0.15173148844095255,-0.15173148844095255
-0.15241933368290184,-0.15241933368290184
-0.13591104787611938,-0.13591104787611938
-0.0898254166655184,-0.0898254166655184
-0.02172873771254081,-0.02172873771254081
0.03536241736924848,0.03536241736924848
0.06906683422476263,0.06906683422476263
0.09726848914468264,0.09726848914468264
0.1502325727747763,0.1502325727747763
0.22245632317944952,0.22245632317944952
0.29192869261632565,0.29192869261632565
0.3476441572142164,0.3476441572142164
0.40542315753795494,0.40542315753795494
0.47214414600703397,0.47214414600703397
0.5292353010888232,0.5292353010888232
0.5347380630244174,0.5347380630244174
0.46801707455533836,0.46801707455533836
0.3476441572142164,0.3476441572142164
