ECG,PPG
-0.10311443679842146,-0.10311443679842146
0.15695242498427933,0.15695242498427933
-0.04525267089939951,-0.04525267089939951
-0.14977715123311658,-0.14977715123311658
0.011986925473826505,0.011986925473826505
0.16752930692281023,0.16752930692281023
0.18495005364509642,0.18495005364509642
0.1992599527384029,0.1992599527384029
0.30005141591734436,0.30005141591734436
0.3933768447867346,0.3933768447867346
0.41515277818959234,0.41515277818959234
0.41764145629277605,0.41764145629277605
0.47301454408861426,0.47301454408861426
0.5781611939481273,0.5781611939481273
0.7032172686331102,0.7032172686331102
0.8226738175859297,0.8226738175859297
0.9334199931776062,0.9334199931776062
1.030478439201772,1.030478439201772
1.106383121348876,1.106383121348876
1.1486906491029996,1.1486906491029996
1.1642448872478979,1.1642448872478979
1.154290174835163,1.154290174835163
1.106383121348876,1.106383121348876
0.9894152504992403,0.9894152504992403
0.8183186309053582,0.8183186309053582
0.6167357045474753,0.6167357045474753
0.41515277818959234,0.41515277818959234
0.22539107282183218,0.22539107282183218
0.06984869137284845,0.06984869137284845
-0.05645172236372634,-0.05645172236372634
-0.16035403317164748,-0.16035403317164748
-0.2623898354021808,-0.2623898354021808
-0.3333171613429174,-0.3333171613429174
-0.3762468586228369,-0.3762468586228369
-0.3911789272419393,-0.3911789272419393
-0.41979872542855234,-0.41979872542855234
-0.4484185236151653,-0.4484185236151653
-0.4633505922342678,-0.4633505922342678
-0.4484185236151653,-0.4484185236151653
-0.4403303197798182,-0.4403303197798182
-0.4484185236151653,-0.4484185236151653
-0.46521710081165557,-0.46521710081165557
-0.4484185236151653,-0.4484185236151653
-0.40859967396422553,-0.40859967396422553
-0.3911789272419393,-0.3911789272419393
-0.4739274741727987,-0.4739274741727987
-0.6213816517864352,-0.6213816517864352
-0.6493792804472523,-0.6493792804472523
-0.3333171613429174,-0.3333171613429174
0.34235894367146796,0.34235894367146796
1.221484483621124,1.221484483621124
2.1634491456761693,2.1634491456761693
3.064350619028683,3.064350619028683
3.6037715978937586,3.6037715978937586
3.352415109472201,3.352415109472201
2.271706643164662,2.271706643164662
0.9334199931776062,0.9334199931776062
-0.023476737496541788,-0.023476737496541788
-0.4484185236151653,-0.4484185236151653
-0.5890288364450467,-0.5890288364450467
-0.6213816517864352,-0.6213816517864352
-0.5908953450224345,-0.5908953450224345
-0.5635198858874133,-0.5635198858874133
-0.6307141946733743,-0.6307141946733743
-0.7364830140586832,-0.7364830140586832
-0.7744353551322353,-0.7744353551322353
-0.7364830140586832,-0.7364830140586832
-0.7165735892332132,-0.7165735892332132
-0.7364830140586832,-0.7364830140586832
-0.7539037607809694,-0.7539037607809694
-0.7364830140586832,-0.7364830140586832
-0.7091075549236621,-0.7091075549236621
-0.6792434176854572,-0.6792434176854572
-0.6531122976020279,-0.6531122976020279
-0.6213816517864352,-0.6213816517864352
-0.5977392098061897,-0.5977392098061897
-0.5635198858874133,-0.5635198858874133
-0.5317892400718206,-0.5317892400718206
-0.5062802895141872,-0.5062802895141872
-0.5013029333078198,-0.5013029333078198
-0.5062802895141872,-0.5062802895141872
-0.5112576457205548,-0.5112576457205548
-0.5062802895141872,-0.5062802895141872
-0.5019251028336157,-0.5019251028336157
-0.5062802895141872,-0.5062802895141872
-0.527434053391249,-0.527434053391249
-0.5635198858874133,-0.5635198858874133
-0.6170264651058637,-0.6170264651058637
-0.6792434176854572,-0.6792434176854572
-0.7420825397908466,-0.7420825397908466
-0.7943447799577051,-0.7943447799577051
-0.8478513591761555,-0.8478513591761555
-0.9094461422299531,-0.9094461422299531
-0.9785069595933019,-0.9785069595933019
-1.024547504502201,-1.024547504502201
-1.0506786245856303,-1.0506786245856303
-1.082409270401223,-1.082409270401223
-1.1570696134967353,-1.1570696134967353
-1.254750229046697,-1.254750229046697
-1.3368766064517603,-1.3368766064517603
-1.3698515913189449,-1.3698515913189449
-1.3754511170511083,-1.3754511170511083
-1.3698515913189449,-1.3698515913189449
-1.35989687890621,-1.35989687890621
-1.312611994945719,-1.312611994945719
-1.2180422270247369,-1.2180422270247369
-1.082409270401223,-1.082409270401223
-0.939310279468158,-0.939310279468158
-0.7943447799577051,-0.7943447799577051
-0.6369358899313337,-0.6369358899313337
-0.4484185236151653,-0.4484185236151653
-0.25865681824740516,-0.25865681824740516
-0.10311443679842146,-0.10311443679842146
-0.003567312671071869,-0.003567312671071869
0.06984869137284845,0.06984869137284845
0.13206564395244194,0.13206564395244194
0.18495005364509642,0.18495005364509642
0.21543636040909722,0.21543636040909722
0.24281181954411835,0.24281181954411835
0.27267595678232326,0.27267595678232326
0.30005141591734436,0.30005141591734436
0.3050287721237119,0.3050287721237119
0.30005141591734436,0.30005141591734436
0.29818490733995656,0.29818490733995656
0.30005141591734436,0.30005141591734436
0.2807641606176704,0.2807641606176704
0.24281181954411835,0.24281181954411835
0.20174863084158665,0.20174863084158665
0.18495005364509642,0.18495005364509642
0.18246137554191266,0.18246137554191266
0.18495005364509642,0.18495005364509642
0.17872835838713708,0.17872835838713708
0.18495005364509642,0.18495005364509642
0.20672598704795414,0.20672598704795414
0.24281181954411835,0.24281181954411835
0.255877379585833,0.255877379585833
0.24281181954411835,0.24281181954411835
0.2061038175221582,0.2061038175221582
0.18495005364509642,0.18495005364509642
0.17810618886134114,0.17810618886134114
0.18495005364509642,0.18495005364509642
0.18183920601611675,0.18183920601611675
0.18495005364509642,0.18495005364509642
0.1992599527384029,0.1992599527384029
0.24281181954411835,0.24281181954411835
0.2950740597109769,0.2950740597109769
0.35791318181636633,0.35791318181636633
0.43008484680869474,0.43008484680869474
0.5302541404618403,0.5302541404618403
0.6304234341149858,0.6304234341149858
0.7032172686331102,0.7032172686331102
0.7467691354388256,0.7467691354388256
0.8183186309053582,0.8183186309053582
0.9296869760228305,0.9296869760228305
1.04914352497565,1.04914352497565
1.1368694281128768,1.1368694281128768
1.221484483621124,1.221484483621124
1.3154320820163101,1.3154320820163101
1.3944476117923938,1.3944476117923938
1.4156013756694557,1.4156013756694557
1.3944476117923938,1.3944476117923938
1.335963676367576,1.335963676367576
1.221484483621124,1.221484483621124
1.0311006087275678,1.0311006087275678
0.8183186309053582,0.8183186309053582
0.6310456036407818,0.6310456036407818
0.47301454408861426,0.47301454408861426
0.3156056540622427,0.3156056540622427
0.18495005364509642,0.18495005364509642
0.10157933718844113,0.10157933718844113
0.06984869137284845,0.06984869137284845
0.038740215083051706,0.038740215083051706
0.011986925473826505,0.011986925473826505
-0.020988059393358047,-0.020988059393358047
-0.04525267089939951,-0.04525267089939951
-0.08009416434397186,-0.08009416434397186
-0.10311443679842146,-0.10311443679842146
-0.11182481015956454,-0.11182481015956454
-0.10311443679842146,-0.10311443679842146
-0.10498094537580926,-0.10498094537580926
-0.10311443679842146,-0.10311443679842146
-0.08444935102454341,-0.08444935102454341
-0.04525267089939951,-0.04525267089939951
-0.058318230941114144,-0.058318230941114144
-0.16035403317164748,-0.16035403317164748
-0.2841657688050385,-0.2841657688050385
-0.2182157990706694,-0.2182157990706694
0.21543636040909722,0.21543636040909722
1.04914352497565,1.04914352497565
2.1217637874478417,2.1217637874478417
3.180074150826727,3.180074150826727
3.9217002255754814,3.9217002255754814
4.101507218530506,4.101507218530506
3.6236810227192287,3.6236810227192287
2.661184766312917,2.661184766312917
1.5705215875926435,1.5705215875926435
0.7032172686331102,0.7032172686331102
0.19054957937725983,0.19054957937725983
-0.04525267089939951,-0.04525267089939951
-0.1715530846359743,-0.1715530846359743
-0.2760775649696914,-0.2760775649696914
-0.37438035004544906,-0.37438035004544906
-0.4484185236151653,-0.4484185236151653
-0.5112576457205548,-0.5112576457205548
-0.5635198858874133,-0.5635198858874133
-0.605205244115741,-0.605205244115741
-0.6213816517864352,-0.6213816517864352
-0.624492499415415,-0.624492499415415
-0.6213816517864352,-0.6213816517864352
-0.623870329889619,-0.623870329889619
-0.6213816517864352,-0.6213816517864352
-0.6226259908380272,-0.6226259908380272
-0.6213816517864352,-0.6213816517864352
-0.6300920251475783,-0.6300920251475783
-0.6213816517864352,-0.6213816517864352
-0.6014722269609654,-0.6014722269609654
-0.5635198858874133,-0.5635198858874133
-0.5317892400718206,-0.5317892400718206
-0.5062802895141872,-0.5062802895141872
-0.49881425520463607,-0.49881425520463607
-0.5062802895141872,-0.5062802895141872
-0.5181015105043101,-0.5181015105043101
-0.5062802895141872,-0.5062802895141872
-0.4739274741727987,-0.4739274741727987
-0.4484185236151653,-0.4484185236151653
-0.4639727617600637,-0.4639727617600637
-0.5062802895141872,-0.5062802895141872
-0.5460991391651271,-0.5460991391651271
-0.5635198858874133,-0.5635198858874133
-0.5834293107128832,-0.5834293107128832
-0.6213816517864352,-0.6213816517864352
-0.681109926262845,-0.681109926262845
-0.7364830140586832,-0.7364830140586832
-0.7899895932771336,-0.7899895932771336
-0.8515843763309312,-0.8515843763309312
-0.9380659404165661,-0.9380659404165661
-1.024547504502201,-1.024547504502201
-1.0948526609171416,-1.0948526609171416
-1.139648866774449,-1.139648866774449
-1.1763568687964092,-1.1763568687964092
-1.197510632673471,-1.197510632673471
-1.20684317556041,-1.20684317556041
-1.197510632673471,-1.197510632673471
-1.1651578173320825,-1.1651578173320825
-1.082409270401223,-1.082409270401223
-0.9529980090356686,-0.9529980090356686
-0.7943447799577051,-0.7943447799577051
-0.6300920251475783,-0.6300920251475783
-0.4484185236151653,-0.4484185236151653
-0.2630120049279767,-0.2630120049279767
-0.10311443679842146,-0.10311443679842146
-0.0010786345678881293,-0.0010786345678881293
0.06984869137284845,0.06984869137284845
0.13019913537505415,0.13019913537505415
0.18495005364509642,0.18495005364509642
0.2166806994606891,0.2166806994606891
0.24281181954411835,0.24281181954411835
0.2720537872565273,0.2720537872565273
0.30005141591734436,0.30005141591734436
0.3050287721237119,0.3050287721237119
0.30005141591734436,0.30005141591734436
0.29631839876256877,0.29631839876256877
0.30005141591734436,0.30005141591734436
0.29818490733995656,0.29818490733995656
0.30005141591734436,0.30005141591734436
0.3025400940205281,0.3025400940205281
0.30005141591734436,0.30005141591734436
0.27329812630811917,0.27329812630811917
0.24281181954411835,0.24281181954411835
0.22601324234762812,0.22601324234762812
0.24281181954411835,0.24281181954411835
0.2708094482049354,0.2708094482049354
0.30005141591734436,0.30005141591734436
0.3075174502268956,0.3075174502268956
0.30005141591734436,0.30005141591734436
0.2720537872565273,0.2720537872565273
0.24281181954411835,0.24281181954411835
0.207970326099546,0.207970326099546
0.18495005364509642,0.18495005364509642
0.17126232407758585,0.17126232407758585
0.18495005364509642,0.18495005364509642
0.22476890329603624,0.22476890329603624
0.30005141591734436,0.30005141591734436
0.3877773190545712,0.3877773190545712
0.47301454408861426,0.47301454408861426
0.5346093271424118,0.5346093271424118
0.5881159063608622,0.5881159063608622
0.6391338074761289,0.6391338074761289
0.7032172686331102,0.7032172686331102
0.7784997812544183,0.7784997812544183
0.8761803968043801,0.8761803968043801
0.9707501647253622,0.9707501647253622
1.04914352497565,1.04914352497565
1.1194486813905906,1.1194486813905906
1.221484483621124,1.221484483621124
1.3197872686968817,1.3197872686968817
1.336585845893372,1.336585845893372
1.2389052303434103,1.2389052303434103
1.106383121348876,1.106383121348876
0.9943926067056077,0.9943926067056077
0.8761803968043801,0.8761803968043801
0.6907738781171915,0.6907738781171915
0.47301454408861426,0.47301454408861426
0.27827548251448664,0.27827548251448664
0.12708828774607447,0.12708828774607447
-0.009166838403235284,-0.009166838403235284
-0.10311443679842146,-0.10311443679842146
-0.15039932075891252,-0.15039932075891252
-0.16035403317164748,-0.16035403317164748
-0.19208467898724016,-0.19208467898724016
-0.2182157990706694,-0.2182157990706694
-0.22941485053499625,-0.22941485053499625
-0.2182157990706694,-0.2182157990706694
-0.21883796859646534,-0.21883796859646534
-0.2182157990706694,-0.2182157990706694
-0.2182157990706694,-0.2182157990706694
-0.2182157990706694,-0.2182157990706694
-0.22941485053499625,-0.22941485053499625
-0.2182157990706694,-0.2182157990706694
-0.1877294923066686,-0.1877294923066686
-0.16035403317164748,-0.16035403317164748
-0.14542196455254502,-0.14542196455254502
-0.04525267089939951,-0.04525267089939951
0.26272124436958827,0.26272124436958827
0.8761803968043801,0.8761803968043801
1.7895252606728125,1.7895252606728125
2.892009660383209,2.892009660383209
3.9117455131627463,3.9117455131627463
4.504673071246272,4.504673071246272
4.421302354789617,4.421302354789617
3.698341365814741,3.698341365814741
2.6070560175686706,2.6070560175686706
1.509548974064642,1.509548974064642
0.6683757751885379,0.6683757751885379
0.18495005364509642,0.18495005364509642
-0.03405361943507268,-0.03405361943507268
-0.16035403317164748,-0.16035403317164748
-0.3233624489301824,-0.3233624489301824
-0.5062802895141872,-0.5062802895141872
-0.6381802289829255,-0.6381802289829255
-0.6792434176854572,-0.6792434176854572
-0.6761325700564775,-0.6761325700564775
-0.6792434176854572,-0.6792434176854572
-0.7078632158720702,-0.7078632158720702
-0.7364830140586832,-0.7364830140586832
-0.7495485741003979,-0.7495485741003979
-0.7364830140586832,-0.7364830140586832
-0.7140849111300296,-0.7140849111300296
-0.6792434176854572,-0.6792434176854572
-0.6506236194988442,-0.6506236194988442
-0.6213816517864352,-0.6213816517864352
-0.6164042955800678,-0.6164042955800678
-0.6213816517864352,-0.6213816517864352
-0.6307141946733743,-0.6307141946733743
-0.6213816517864352,-0.6213816517864352
-0.6132934479510881,-0.6132934479510881
-0.6213816517864352,-0.6213816517864352
-0.6375580594571295,-0.6375580594571295
-0.6213816517864352,-0.6213816517864352
-0.5821849716612914,-0.5821849716612914
-0.5635198858874133,-0.5635198858874133
-0.5915175145482303,-0.5915175145482303
-0.6213816517864352,-0.6213816517864352
-0.623248160363823,-0.623248160363823
-0.6213816517864352,-0.6213816517864352
-0.6655556881179466,-0.6655556881179466
-0.7364830140586832,-0.7364830140586832
-0.786878745648154,-0.786878745648154
-0.7943447799577051,-0.7943447799577051
-0.8061660009478279,-0.8061660009478279
-0.8515843763309312,-0.8515843763309312
-0.9194008546426881,-0.9194008546426881
-0.9666857386031791,-0.9666857386031791
-1.0108597749346906,-1.0108597749346906
-1.082409270401223,-1.082409270401223
-1.1844450726317564,-1.1844450726317564
-1.254750229046697,-1.254750229046697
-1.2696822976657995,-1.2696822976657995
-1.254750229046697,-1.254750229046697
-1.244795516633962,-1.244795516633962
-1.197510632673471,-1.197510632673471
-1.0799205922980393,-1.0799205922980393
-0.9094461422299531,-0.9094461422299531
-0.737727353110275,-0.737727353110275
-0.5635198858874133,-0.5635198858874133
-0.38495723198397996,-0.38495723198397996
-0.2182157990706694,-0.2182157990706694
-0.09378189391148244,-0.09378189391148244
0.011986925473826505,0.011986925473826505
0.10966754102378828,0.10966754102378828
0.18495005364509642,0.18495005364509642
0.2166806994606891,0.2166806994606891
0.24281181954411835,0.24281181954411835
0.2776533129886907,0.2776533129886907
0.30005141591734436,0.30005141591734436
0.27640897393709885,0.27640897393709885
0.24281181954411835,0.24281181954411835
0.23223493760558747,0.23223493760558747
0.24281181954411835,0.24281181954411835
0.24094531096673055,0.24094531096673055
0.24281181954411835,0.24281181954411835
0.26458775294697606,0.26458775294697606
0.30005141591734436,0.30005141591734436
0.3112504673816712,0.3112504673816712
0.30005141591734436,0.30005141591734436
0.27329812630811917,0.27329812630811917
0.24281181954411835,0.24281181954411835
0.2042373089447704,0.2042373089447704
0.18495005364509642,0.18495005364509642
0.1812170364903208,0.1812170364903208
0.18495005364509642,0.18495005364509642
0.17810618886134114,0.17810618886134114
0.18495005364509642,0.18495005364509642
0.19490476605783136,0.19490476605783136
0.18495005364509642,0.18495005364509642
0.1277104572718704,0.1277104572718704
0.06984869137284845,0.06984869137284845
0.04620624939260293,0.04620624939260293
0.06984869137284845,0.06984869137284845
0.11153404960117609,0.11153404960117609
0.18495005364509642,0.18495005364509642
0.29071887303040533,0.29071887303040533
0.41515277818959234,0.41515277818959234
0.514699902316942,0.514699902316942
0.5881159063608622,0.5881159063608622
0.6428668246309045,0.6428668246309045
0.7032172686331102,0.7032172686331102
0.7760111031512346,0.7760111031512346
0.8761803968043801,0.8761803968043801
0.9757275209317297,0.9757275209317297
1.04914352497565,1.04914352497565
1.0964284089361411,1.0964284089361411
1.1642448872478979,1.1642448872478979
1.2283283484048793,1.2283283484048793
1.221484483621124,1.221484483621124
1.115093494710019,1.115093494710019
0.9912817590766281,0.9912817590766281
0.8898681263718907,0.8898681263718907
0.7610790345321321,0.7610790345321321
0.542697530977759,0.542697530977759
0.30005141591734436,0.30005141591734436
0.11837791438493138,0.11837791438493138
0.011986925473826505,0.011986925473826505
-0.08196067292135967,-0.08196067292135967
-0.16035403317164748,-0.16035403317164748
-0.21012759523532226,-0.21012759523532226
-0.2182157990706694,-0.2182157990706694
-0.241236071525119,-0.241236071525119
-0.2760775649696914,-0.2760775649696914
-0.31651858414642714,-0.31651858414642714
-0.3333171613429174,-0.3333171613429174
-0.34140536517826453,-0.34140536517826453
-0.3333171613429174,-0.3333171613429174
-0.31465207556903935,-0.31465207556903935
-0.2760775649696914,-0.2760775649696914
-0.241236071525119,-0.241236071525119
-0.2182157990706694,-0.2182157990706694
-0.2175936295448735,-0.2175936295448735
-0.2182157990706694,-0.2182157990706694
-0.20266156092577103,-0.20266156092577103
-0.10311443679842146,-0.10311443679842146
0.19303825748044356,0.19303825748044356
0.8183186309053582,0.8183186309053582
1.7627719710635874,1.7627719710635874
2.834147894484187,2.834147894484187
3.7213616382691903,3.7213616382691903
4.158746814903733,4.158746814903733
3.9882723648356464,3.9882723648356464
3.237313747199953,3.237313747199953
2.147894907531271,2.147894907531271
1.106383121348876,1.106383121348876
0.3859108104771834,0.3859108104771834
0.011986925473826505,0.011986925473826505
-0.1659535589038109,-0.1659535589038109
-0.2760775649696914,-0.2760775649696914
-0.38246855388079626,-0.38246855388079626
-0.5062802895141872,-0.5062802895141872
-0.642535415663497,-0.642535415663497
-0.7364830140586832,-0.7364830140586832
-0.7595032865131328,-0.7595032865131328
-0.7364830140586832,-0.7364830140586832
-0.7283948102233361,-0.7283948102233361
-0.7364830140586832,-0.7364830140586832
-0.7439490483682344,-0.7439490483682344
-0.7364830140586832,-0.7364830140586832
-0.7371051835844792,-0.7371051835844792
-0.7364830140586832,-0.7364830140586832
-0.7408382007392548,-0.7408382007392548
-0.7364830140586832,-0.7364830140586832
-0.7427047093166426,-0.7427047093166426
-0.7364830140586832,-0.7364830140586832
-0.7165735892332132,-0.7165735892332132
-0.6792434176854572,-0.6792434176854572
-0.6450240937666808,-0.6450240937666808
-0.6213816517864352,-0.6213816517864352
-0.6164042955800678,-0.6164042955800678
-0.6213816517864352,-0.6213816517864352
-0.6282255165701905,-0.6282255165701905
-0.6213816517864352,-0.6213816517864352
-0.6132934479510881,-0.6132934479510881
-0.6213816517864352,-0.6213816517864352
-0.6518679585504361,-0.6518679585504361
-0.6792434176854572,-0.6792434176854572
-0.7022636901399067,-0.7022636901399067
-0.7364830140586832,-0.7364830140586832
-0.7968334580608889,-0.7968334580608889
-0.8515843763309312,-0.8515843763309312
-0.8858037002497076,-0.8858037002497076
-0.9094461422299531,-0.9094461422299531
-0.9585975347678319,-0.9585975347678319
-1.024547504502201,-1.024547504502201
-1.0892531351849783,-1.0892531351849783
-1.139648866774449,-1.139648866774449
-1.197510632673471,-1.197510632673471
-1.254750229046697,-1.254750229046697
-1.2852365358106979,-1.2852365358106979
-1.254750229046697,-1.254750229046697
-1.1943997850444914,-1.1943997850444914
-1.139648866774449,-1.139648866774449
-1.0861422875559987,-1.0861422875559987
-0.9666857386031791,-0.9666857386031791
-0.7731910160806433,-0.7731910160806433
-0.5635198858874133,-0.5635198858874133
-0.4048666568094499,-0.4048666568094499
-0.2760775649696914,-0.2760775649696914
-0.1522658293363003,-0.1522658293363003
-0.04525267089939951,-0.04525267089939951
0.016964281680193982,0.016964281680193982
0.06984869137284845,0.06984869137284845
0.13393215252982976,0.13393215252982976
0.18495005364509642,0.18495005364509642
0.18930524032566795,0.18930524032566795
0.18495005364509642,0.18495005364509642
0.20734815657375008,0.20734815657375008
0.24281181954411835,0.24281181954411835
0.24965568432787363,0.24965568432787363
0.24281181954411835,0.24281181954411835
0.24218965001832243,0.24218965001832243
0.24281181954411835,0.24281181954411835
0.21605852993489316,0.21605852993489316
0.18495005364509642,0.18495005364509642
0.17437317170656552,0.17437317170656552
0.18495005364509642,0.18495005364509642
0.18681656222248422,0.18681656222248422
0.18495005364509642,0.18495005364509642
0.18370571459350454,0.18370571459350454
0.18495005364509642,0.18495005364509642
0.16255195071644277,0.16255195071644277
0.12708828774607447,0.12708828774607447
0.0885137771467265,0.0885137771467265
0.06984869137284845,0.06984869137284845
0.061760487537501296,0.061760487537501296
0.06984869137284845,0.06984869137284845
0.07295953900182812,0.07295953900182812
0.06984869137284845,0.06984869137284845
0.057405300856929756,0.057405300856929756
0.06984869137284845,0.06984869137284845
0.11215621912697203,0.11215621912697203
0.18495005364509642,0.18495005364509642
0.26583209199856794,0.26583209199856794
0.35791318181636633,0.35791318181636633
0.4481277630567769,0.4481277630567769
0.5302541404618403,0.5302541404618403
0.5881159063608622,0.5881159063608622
0.6459776722598842,0.6459776722598842
0.7193936763038045,0.7193936763038045
0.8183186309053582,0.8183186309053582
0.9128883988263403,0.9128883988263403
0.9912817590766281,0.9912817590766281
1.049765694501446,1.049765694501446
1.106383121348876,1.106383121348876
1.1505571576803875,1.1505571576803875
1.1642448872478979,1.1642448872478979
1.1088717994520598,1.1088717994520598
0.9912817590766281,0.9912817590766281
0.8400945643082158,0.8400945643082158
0.7032172686331102,0.7032172686331102
0.5700729901127801,0.5700729901127801
0.41515277818959234,0.41515277818959234
0.23036842902819965,0.23036842902819965
0.06984869137284845,0.06984869137284845
-0.039653145167236094,-0.039653145167236094
-0.10311443679842146,-0.10311443679842146
-0.16719789795540274,-0.16719789795540274
-0.2182157990706694,-0.2182157990706694
-0.25803464872160925,-0.25803464872160925
-0.2760775649696914,-0.2760775649696914
-0.30594170220789624,-0.30594170220789624
-0.3333171613429174,-0.3333171613429174
-0.34700489091042797,-0.34700489091042797
-0.3333171613429174,-0.3333171613429174
-0.32585112703336616,-0.32585112703336616
-0.3333171613429174,-0.3333171613429174
-0.3476270604362239,-0.3476270604362239
-0.3333171613429174,-0.3333171613429174
-0.31527424509483526,-0.31527424509483526
-0.3333171613429174,-0.3333171613429174
-0.40922184349002144,-0.40922184349002144
-0.4484185236151653,-0.4484185236151653
-0.299097837424141,-0.299097837424141
0.18495005364509642,0.18495005364509642
1.021145896314833,1.021145896314833
2.0856779549516777,2.0856779549516777
3.104791638205419,3.104791638205419
3.7555809621879668,3.7555809621879668
3.771135200332865,3.771135200332865
3.122212384927705,3.122212384927705
2.0564359872392686,2.0564359872392686
0.9912817590766281,0.9912817590766281
0.23161276807979153,0.23161276807979153
-0.16035403317164748,-0.16035403317164748
-0.3202516013012027,-0.3202516013012027
-0.3911789272419393,-0.3911789272419393
-0.46521710081165557,-0.46521710081165557
-0.5635198858874133,-0.5635198858874133
-0.67115521385011,-0.67115521385011
-0.7364830140586832,-0.7364830140586832
-0.7483042350488059,-0.7483042350488059
-0.7364830140586832,-0.7364830140586832
-0.738349522636071,-0.738349522636071
-0.7364830140586832,-0.7364830140586832
-0.7147070806558254,-0.7147070806558254
-0.6792434176854572,-0.6792434176854572
-0.6537344671278239,-0.6537344671278239
-0.6213816517864352,-0.6213816517864352
-0.5890288364450467,-0.5890288364450467
-0.5635198858874133,-0.5635198858874133
-0.5697415811453727,-0.5697415811453727
-0.5635198858874133,-0.5635198858874133
-0.5355222572265962,-0.5355222572265962
-0.5062802895141872,-0.5062802895141872
-0.5199680190816979,-0.5199680190816979
-0.5635198858874133,-0.5635198858874133
-0.6033387355383532,-0.6033387355383532
-0.6213816517864352,-0.6213816517864352
-0.643157585189293,-0.643157585189293
-0.6792434176854572,-0.6792434176854572
-0.7178179282848052,-0.7178179282848052
-0.7364830140586832,-0.7364830140586832
-0.7395938616876628,-0.7395938616876628
-0.7364830140586832,-0.7364830140586832
-0.738971692161867,-0.738971692161867
-0.7364830140586832,-0.7364830140586832
-0.7327499969039076,-0.7327499969039076
-0.7364830140586832,-0.7364830140586832
-0.7775462027612149,-0.7775462027612149
-0.8515843763309312,-0.8515843763309312
-0.9436654661487295,-0.9436654661487295
-1.024547504502201,-1.024547504502201
-1.1060517123814686,-1.1060517123814686
-1.197510632673471,-1.197510632673471
-1.2989242653782083,-1.2989242653782083
-1.3698515913189449,-1.3698515913189449
-1.3934940332991905,-1.3934940332991905
-1.3698515913189449,-1.3698515913189449
-1.3256775549874336,-1.3256775549874336
-1.254750229046697,-1.254750229046697
-1.1545809353935514,-1.1545809353935514
-1.024547504502201,-1.024547504502201
-0.8858037002497076,-0.8858037002497076
-0.7364830140586832,-0.7364830140586832
-0.5728524287743523,-0.5728524287743523
-0.3911789272419393,-0.3911789272419393
-0.22630400290601657,-0.22630400290601657
-0.10311443679842146,-0.10311443679842146
-0.03280928038348081,-0.03280928038348081
0.011986925473826505,0.011986925473826505
0.04433974081521512,0.04433974081521512
0.06984869137284845,0.06984869137284845
0.07482604757921593,0.07482604757921593
0.06984869137284845,0.06984869137284845
0.06424916564068504,0.06424916564068504
0.06984869137284845,0.06984869137284845
0.07295953900182812,0.07295953900182812
0.06984869137284845,0.06984869137284845
0.06300482658909316,0.06300482658909316
0.06984869137284845,0.06984869137284845
0.07731472568239967,0.07731472568239967
0.06984869137284845,0.06984869137284845
0.03811804555725577,0.03811804555725577
0.011986925473826505,0.011986925473826505
0.004520891164275285,0.004520891164275285
0.011986925473826505,0.011986925473826505
0.01136475594803057,0.01136475594803057
0.011986925473826505,0.011986925473826505
0.01136475594803057,0.01136475594803057
0.011986925473826505,0.011986925473826505
0.005143060690071219,0.005143060690071219
0.011986925473826505,0.011986925473826505
0.02007512930917366,0.02007512930917366
0.011986925473826505,0.011986925473826505
-0.025965415599725525,-0.025965415599725525
-0.04525267089939951,-0.04525267089939951
-0.027209754651317395,-0.027209754651317395
0.011986925473826505,0.011986925473826505
0.020697298834969593,0.020697298834969593
0.011986925473826505,0.011986925473826505
0.01758645120598992,0.01758645120598992
0.06984869137284845,0.06984869137284845
0.1488642211489322,0.1488642211489322
0.24281181954411835,0.24281181954411835
0.33178206173293706,0.33178206173293706
0.41515277818959234,0.41515277818959234
0.4767475612433899,0.4767475612433899
0.5302541404618403,0.5302541404618403
0.5968262797220053,0.5968262797220053
0.7032172686331102,0.7032172686331102
0.8270290042665013,0.8270290042665013
0.9334199931776062,0.9334199931776062
0.9987477933861793,0.9987477933861793
1.04914352497565,1.04914352497565
1.0908288832039776,1.0908288832039776
1.106383121348876,1.106383121348876
1.0522543726046296,1.0522543726046296
0.9334199931776062,0.9334199931776062
0.7697894078932752,0.7697894078932752
0.5881159063608622,0.5881159063608622
0.38528864095138743,0.38528864095138743
0.18495005364509642,0.18495005364509642
0.011986925473826505,0.011986925473826505
-0.10311443679842146,-0.10311443679842146
-0.17590827131654585,-0.17590827131654585
-0.2182157990706694,-0.2182157990706694
-0.25865681824740516,-0.25865681824740516
-0.2760775649696914,-0.2760775649696914
-0.28229926022765073,-0.28229926022765073
-0.2760775649696914,-0.2760775649696914
-0.27918841259867105,-0.27918841259867105
-0.2760775649696914,-0.2760775649696914
-0.25927898777320113,-0.25927898777320113
-0.2182157990706694,-0.2182157990706694
-0.1659535589038109,-0.1659535589038109
-0.10311443679842146,-0.10311443679842146
-0.05520738331213447,-0.05520738331213447
-0.04525267089939951,-0.04525267089939951
-0.10560311490160519,-0.10560311490160519
-0.2182157990706694,-0.2182157990706694
-0.3339393308687133,-0.3339393308687133
-0.3333171613429174,-0.3333171613429174
-0.0682729433538491,-0.0682729433538491
0.5881159063608622,0.5881159063608622
1.5866979952633378,1.5866979952633378
2.661184766312917,2.661184766312917
3.3941004677005284,3.3941004677005284
3.4675164717444487,3.4675164717444487
2.844724776422718,2.844724776422718
1.7976134645081596,1.7976134645081596
0.7106833029426615,0.7106833029426615
-0.10311443679842146,-0.10311443679842146
-0.5293005619686368,-0.5293005619686368
-0.6213816517864352,-0.6213816517864352
-0.556676021103658,-0.556676021103658
-0.5062802895141872,-0.5062802895141872
-0.5467213086909231,-0.5467213086909231
-0.6213816517864352,-0.6213816517864352
-0.6674221966953344,-0.6674221966953344
-0.6792434176854572,-0.6792434176854572
-0.7022636901399067,-0.7022636901399067
-0.7364830140586832,-0.7364830140586832
-0.7545259303067653,-0.7545259303067653
-0.7364830140586832,-0.7364830140586832
-0.7059967072946824,-0.7059967072946824
-0.6792434176854572,-0.6792434176854572
-0.6736438919532938,-0.6736438919532938
-0.6792434176854572,-0.6792434176854572
-0.6923089777271718,-0.6923089777271718
-0.6792434176854572,-0.6792434176854572
-0.6506236194988442,-0.6506236194988442
-0.6213816517864352,-0.6213816517864352
-0.6164042955800678,-0.6164042955800678
-0.6213816517864352,-0.6213816517864352
-0.623870329889619,-0.623870329889619
-0.6213816517864352,-0.6213816517864352
-0.623870329889619,-0.623870329889619
-0.6213816517864352,-0.6213816517864352
-0.6170264651058637,-0.6170264651058637
-0.6213816517864352,-0.6213816517864352
-0.6468906023440686,-0.6468906023440686
-0.6792434176854572,-0.6792434176854572
-0.7091075549236621,-0.7091075549236621
-0.7364830140586832,-0.7364830140586832
-0.7694579989258677,-0.7694579989258677
-0.7943447799577051,-0.7943447799577051
-0.8173650524121547,-0.8173650524121547
-0.8515843763309312,-0.8515843763309312
-0.9119348203331369,-0.9119348203331369
-0.9666857386031791,-0.9666857386031791
-1.0015272320477515,-1.0015272320477515
-1.024547504502201,-1.024547504502201
-1.0718323884626921,-1.0718323884626921
-1.139648866774449,-1.139648866774449
-1.2105761927151857,-1.2105761927151857
-1.254750229046697,-1.254750229046697
-1.2721709757689832,-1.2721709757689832
-1.254750229046697,-1.254750229046697
-1.2111983622409817,-1.2111983622409817
-1.139648866774449,-1.139648866774449
-1.0438347598018751,-1.0438347598018751
-0.9094461422299531,-0.9094461422299531
-0.7439490483682344,-0.7439490483682344
-0.5635198858874133,-0.5635198858874133
-0.4054888263352458,-0.4054888263352458
-0.2760775649696914,-0.2760775649696914
-0.17839694941972958,-0.17839694941972958
-0.10311443679842146,-0.10311443679842146
-0.060184739518501944,-0.060184739518501944
-0.04525267089939951,-0.04525267089939951
-0.05085219663156292,-0.05085219663156292
-0.04525267089939951,-0.04525267089939951
-0.022232398444949918,-0.022232398444949918
0.011986925473826505,0.011986925473826505
0.026296824567133007,0.026296824567133007
0.011986925473826505,0.011986925473826505
-0.02161022891915398,-0.02161022891915398
-0.04525267089939951,-0.04525267089939951
-0.05271870520895073,-0.05271870520895073
-0.04525267089939951,-0.04525267089939951
-0.0433861623220117,-0.0433861623220117
-0.04525267089939951,-0.04525267089939951
-0.05023002710576699,-0.05023002710576699
-0.04525267089939951,-0.04525267089939951
-0.0433861623220117,-0.0433861623220117
-0.04525267089939951,-0.04525267089939951
-0.05520738331213447,-0.05520738331213447
-0.04525267089939951,-0.04525267089939951
-0.020988059393358047,-0.020988059393358047
0.011986925473826505,0.011986925473826505
0.03749587603145984,0.03749587603145984
0.06984869137284845,0.06984869137284845
0.0847807599919509,0.0847807599919509
0.06984869137284845,0.06984869137284845
0.041228893186235446,0.041228893186235446
0.06984869137284845,0.06984869137284845
0.1401538477877891,0.1401538477877891
0.18495005364509642,0.18495005364509642
0.16939581550019803,0.16939581550019803
0.18495005364509642,0.18495005364509642
0.2838750082466501,0.2838750082466501
0.41515277818959234,0.41515277818959234
0.4891909517593086,0.4891909517593086
0.5302541404618403,0.5302541404618403
0.6005592968767809,0.6005592968767809
0.7032172686331102,0.7032172686331102
0.7760111031512346,0.7760111031512346
0.8183186309053582,0.8183186309053582
0.8786690749075639,0.8786690749075639
0.9912817590766281,0.9912817590766281
1.117582172813203,1.117582172813203
1.221484483621124,1.221484483621124
1.288678792407085,1.288678792407085
1.336585845893372,1.336585845893372
1.344674049728719,1.344674049728719
1.279346249520146,1.279346249520146
1.1119826470810394,1.1119826470810394
0.8761803968043801,0.8761803968043801
0.6136248569184956,0.6136248569184956
0.35791318181636633,0.35791318181636633
0.11028971054958422,0.11028971054958422
-0.10311443679842146,-0.10311443679842146
-0.25803464872160925,-0.25803464872160925
-0.3333171613429174,-0.3333171613429174
-0.3532265861683873,-0.3532265861683873
-0.3333171613429174,-0.3333171613429174
-0.3233624489301824,-0.3233624489301824
-0.3333171613429174,-0.3333171613429174
-0.37189167194226536,-0.37189167194226536
-0.3911789272419393,-0.3911789272419393
-0.3918010967677353,-0.3918010967677353
-0.3911789272419393,-0.3911789272419393
-0.4030001482320621,-0.4030001482320621
-0.3911789272419393,-0.3911789272419393
-0.37438035004544906,-0.37438035004544906
-0.3911789272419393,-0.3911789272419393
-0.4378416416766344,-0.4378416416766344
-0.4484185236151653,-0.4484185236151653
-0.4757939827501865,-0.4757939827501865
-0.6213816517864352,-0.6213816517864352
-0.8018108142672564,-0.8018108142672564
-0.6792434176854572,-0.6792434176854572
-0.05334087473474666,-0.05334087473474666
0.9334199931776062,0.9334199931776062
1.997329882288655,1.997329882288655
2.949249256756435,2.949249256756435
3.5365772891077976,3.5365772891077976
3.4102768753712227,3.4102768753712227
2.486977299090056,2.486977299090056
1.221484483621124,1.221484483621124
0.20672598704795414,0.20672598704795414
-0.3333171613429174,-0.3333171613429174
-0.5548095125262702,-0.5548095125262702
-0.6213816517864352,-0.6213816517864352
-0.6020943964867612,-0.6020943964867612
-0.5635198858874133,-0.5635198858874133
-0.595250531703006,-0.595250531703006
-0.6792434176854572,-0.6792434176854572
-0.737727353110275,-0.737727353110275
-0.7364830140586832,-0.7364830140586832
-0.7265283016459483,-0.7265283016459483
-0.7364830140586832,-0.7364830140586832
-0.7520372522035815,-0.7520372522035815
-0.7364830140586832,-0.7364830140586832
-0.7028858596657027,-0.7028858596657027
-0.6792434176854572,-0.6792434176854572
-0.6848429434176206,-0.6848429434176206
-0.6792434176854572,-0.6792434176854572
-0.6549788061794157,-0.6549788061794157
-0.6213816517864352,-0.6213816517864352
-0.6164042955800678,-0.6164042955800678
-0.6213816517864352,-0.6213816517864352
-0.6226259908380272,-0.6226259908380272
-0.6213816517864352,-0.6213816517864352
-0.6282255165701905,-0.6282255165701905
-0.6213816517864352,-0.6213816517864352
-0.5921396840740263,-0.5921396840740263
-0.5635198858874133,-0.5635198858874133
-0.5784519545065158,-0.5784519545065158
-0.6213816517864352,-0.6213816517864352
-0.6444019242408848,-0.6444019242408848
-0.6213816517864352,-0.6213816517864352
-0.5977392098061897,-0.5977392098061897
-0.6213816517864352,-0.6213816517864352
-0.6879537910466003,-0.6879537910466003
-0.7364830140586832,-0.7364830140586832
-0.7582589474615409,-0.7582589474615409
-0.7943447799577051,-0.7943447799577051
-0.8795820049917482,-0.8795820049917482
-0.9666857386031791,-0.9666857386031791
-1.0121041139862823,-1.0121041139862823
-1.024547504502201,-1.024547504502201
-1.0656106932047327,-1.0656106932047327
-1.139648866774449,-1.139648866774449
-1.2149313793957572,-1.2149313793957572
-1.254750229046697,-1.254750229046697
-1.2696822976657995,-1.2696822976657995
-1.254750229046697,-1.254750229046697
-1.1999993107766547,-1.1999993107766547
-1.082409270401223,-1.082409270401223
-0.9194008546426881,-0.9194008546426881
-0.7364830140586832,-0.7364830140586832
-0.5616533773100255,-0.5616533773100255
-0.3911789272419393,-0.3911789272419393
-0.2356365457929556,-0.2356365457929556
-0.10311443679842146,-0.10311443679842146
-0.0073003298258474784,-0.0073003298258474784
0.06984869137284845,0.06984869137284845
0.13268781347823788,0.13268781347823788
0.18495005364509642,0.18495005364509642
0.21543636040909722,0.21543636040909722
0.24281181954411835,0.24281181954411835
0.2720537872565273,0.2720537872565273
0.30005141591734436,0.30005141591734436
0.3062731111753037,0.3062731111753037
0.30005141591734436,0.30005141591734436
0.293829720659385,0.293829720659385
0.30005141591734436,0.30005141591734436
0.3044066025979159,0.3044066025979159
0.30005141591734436,0.30005141591734436
0.27578680441130293,0.27578680441130293
0.24281181954411835,0.24281181954411835
0.20485947847056632,0.20485947847056632
0.18495005364509642,0.18495005364509642
0.17872835838713708,0.17872835838713708
0.18495005364509642,0.18495005364509642
0.18432788411930048,0.18432788411930048
0.18495005364509642,0.18495005364509642
0.1812170364903208,0.1812170364903208
0.18495005364509642,0.18495005364509642
0.1830835450677086,0.1830835450677086
0.18495005364509642,0.18495005364509642
0.18183920601611675,0.18183920601611675
0.18495005364509642,0.18495005364509642
0.18183920601611675,0.18183920601611675
0.18495005364509642,0.18495005364509642
0.19614910510942324,0.19614910510942324
0.24281181954411835,0.24281181954411835
0.3174721626396306,0.3174721626396306
0.41515277818959234,0.41515277818959234
0.5066116984815948,0.5066116984815948
0.5881159063608622,0.5881159063608622
0.6497106894146598,0.6497106894146598
0.7032172686331102,0.7032172686331102
0.7505021525936012,0.7505021525936012
0.8183186309053582,0.8183186309053582
0.9172435855069118,0.9172435855069118
1.04914352497565,1.04914352497565
1.1766882777638166,1.1766882777638166
1.279346249520146,1.279346249520146
1.346540558306107,1.346540558306107
1.3944476117923938,1.3944476117923938
1.4000471375245573,1.4000471375245573
1.336585845893372,1.336585845893372
1.1860208206507556,1.1860208206507556
0.9912817590766281,0.9912817590766281
0.7865879850897655,0.7865879850897655
0.5881159063608622,0.5881159063608622
0.38031128474501996,0.38031128474501996
0.18495005364509642,0.18495005364509642
0.031896350299296425,0.031896350299296425
-0.04525267089939951,-0.04525267089939951
-0.08258284244715561,-0.08258284244715561
-0.10311443679842146,-0.10311443679842146
-0.13795593024299382,-0.13795593024299382
-0.16035403317164748,-0.16035403317164748
-0.1895960008840564,-0.1895960008840564
-0.2182157990706694,-0.2182157990706694
-0.24248041057671088,-0.24248041057671088
-0.2182157990706694,-0.2182157990706694
-0.15848752459425966,-0.15848752459425966
-0.10311443679842146,-0.10311443679842146
-0.09627057201466617,-0.09627057201466617
-0.10311443679842146,-0.10311443679842146
-0.08569369007613528,-0.08569369007613528
-0.04525267089939951,-0.04525267089939951
-0.05520738331213447,-0.05520738331213447
-0.10311443679842146,-0.10311443679842146
-0.03529795848666455,-0.03529795848666455
0.35791318181636633,0.35791318181636633
1.0951840698845492,1.0951840698845492
2.027816189052656,2.027816189052656
2.996534140716926,2.996534140716926
3.8706823244602147,3.8706823244602147
4.3441533335909215,4.3441533335909215
4.043645452631485,4.043645452631485
2.9560931215401904,2.9560931215401904
1.6246503363368898,1.6246503363368898
0.6515771979920476,0.6515771979920476
0.18495005364509642,0.18495005364509642
-0.020988059393358047,-0.020988059393358047
-0.16035403317164748,-0.16035403317164748
-0.2642563439795686,-0.2642563439795686
-0.3333171613429174,-0.3333171613429174
-0.41855438637696046,-0.41855438637696046
-0.5062802895141872,-0.5062802895141872
-0.5554316820520662,-0.5554316820520662
-0.5635198858874133,-0.5635198858874133
-0.5834293107128832,-0.5834293107128832
-0.6213816517864352,-0.6213816517864352
-0.6599561623857833,-0.6599561623857833
-0.6792434176854572,-0.6792434176854572
-0.689820299623988,-0.689820299623988
-0.6792434176854572,-0.6792434176854572
-0.6568453147568035,-0.6568453147568035
-0.6213816517864352,-0.6213816517864352
-0.5971170402803938,-0.5971170402803938
-0.5635198858874133,-0.5635198858874133
-0.5324114095976166,-0.5324114095976166
-0.5062802895141872,-0.5062802895141872
-0.5019251028336157,-0.5019251028336157
-0.5062802895141872,-0.5062802895141872
-0.5100133066689629,-0.5100133066689629
-0.5062802895141872,-0.5062802895141872
-0.5050359504625954,-0.5050359504625954
-0.5062802895141872,-0.5062802895141872
-0.5243232057622694,-0.5243232057622694
-0.5635198858874133,-0.5635198858874133
-0.6095604307963125,-0.6095604307963125
-0.6213816517864352,-0.6213816517864352
-0.6108047698479043,-0.6108047698479043
-0.6213816517864352,-0.6213816517864352
-0.6792434176854572,-0.6792434176854572
-0.7364830140586832,-0.7364830140586832
-0.7682136598742759,-0.7682136598742759
-0.7943447799577051,-0.7943447799577051
-0.8503400372793393,-0.8503400372793393
-0.9094461422299531,-0.9094461422299531
-0.9604640433452197,-0.9604640433452197
-1.024547504502201,-1.024547504502201
-1.121605950526367,-1.121605950526367
-1.197510632673471,-1.197510632673471
-1.216175718447349,-1.216175718447349
-1.197510632673471,-1.197510632673471
-1.1825785640543685,-1.1825785640543685
-1.139648866774449,-1.139648866774449
-1.044456929327671,-1.044456929327671
-0.9094461422299531,-0.9094461422299531
-0.7744353551322353,-0.7744353551322353
-0.6213816517864352,-0.6213816517864352
-0.4459298455119816,-0.4459298455119816
-0.2760775649696914,-0.2760775649696914
-0.1522658293363003,-0.1522658293363003
-0.04525267089939951,-0.04525267089939951
0.07171519995023626,0.07171519995023626
0.18495005364509642,0.18495005364509642
0.2403231414409346,0.2403231414409346
0.24281181954411835,0.24281181954411835
0.23036842902819965,0.23036842902819965
0.24281181954411835,0.24281181954411835
0.2689429396275476,0.2689429396275476
0.30005141591734436,0.30005141591734436
0.3280490445781614,0.3280490445781614
0.35791318181636633,0.35791318181636633
0.37035657233228503,0.37035657233228503
0.35791318181636633,0.35791318181636633
0.32244951884599804,0.32244951884599804
0.30005141591734436,0.30005141591734436
0.2969405682883647,0.2969405682883647
0.30005141591734436,0.30005141591734436
0.27827548251448664,0.27827548251448664
0.24281181954411835,0.24281181954411835
0.20548164799636226,0.20548164799636226
0.18495005364509642,0.18495005364509642
0.17312883265497364,0.17312883265497364
0.18495005364509642,0.18495005364509642
0.21045900420272975,0.21045900420272975
0.24281181954411835,0.24281181954411835
0.24965568432787363,0.24965568432787363
0.24281181954411835,0.24281181954411835
0.23161276807979153,0.23161276807979153
0.24281181954411835,0.24281181954411835
0.26396558342118015,0.26396558342118015
0.30005141591734436,0.30005141591734436
0.34484762177465167,0.34484762177465167
0.41515277818959234,0.41515277818959234
0.49914566417204353,0.49914566417204353
0.5881159063608622,0.5881159063608622
0.6540658760952314,0.6540658760952314
0.7032172686331102,0.7032172686331102
0.7486356440162134,0.7486356440162134
0.8183186309053582,0.8183186309053582
0.9023115168878094,0.9023115168878094
0.9912817590766281,0.9912817590766281
1.0721637974300997,1.0721637974300997
1.1642448872478979,1.1642448872478979
1.2600589942204719,1.2600589942204719
1.336585845893372,1.336585845893372
1.345918388780311,1.345918388780311
1.279346249520146,1.279346249520146
1.1486906491029996,1.1486906491029996
0.9912817590766281,0.9912817590766281
0.8189408004311541,0.8189408004311541
0.6459776722598842,0.6459776722598842
0.4686593574080427,0.4686593574080427
0.30005141591734436,0.30005141591734436
0.1401538477877891,0.1401538477877891
0.011986925473826505,0.011986925473826505
-0.07698331671499219,-0.07698331671499219
-0.10311443679842146,-0.10311443679842146
-0.10498094537580926,-0.10498094537580926
-0.10311443679842146,-0.10311443679842146
-0.13360074356242227,-0.13360074356242227
-0.16035403317164748,-0.16035403317164748
-0.17279742368756618,-0.17279742368756618
-0.16035403317164748,-0.16035403317164748
-0.15786535506846372,-0.15786535506846372
-0.16035403317164748,-0.16035403317164748
-0.16906440653279056,-0.16906440653279056
-0.16035403317164748,-0.16035403317164748
-0.13857809976878974,-0.13857809976878974
-0.10311443679842146,-0.10311443679842146
-0.09253755485989057,-0.09253755485989057
-0.10311443679842146,-0.10311443679842146
-0.048985688054175115,-0.048985688054175115
0.24281181954411835,0.24281181954411835
0.8699587015464207,0.8699587015464207
1.7976134645081596,1.7976134645081596
2.8683672184029634,2.8683672184029634
3.8706823244602147,3.8706823244602147
4.508406088401048,4.508406088401048
4.504673071246272,4.504673071246272
3.7941554727873146,3.7941554727873146
2.661184766312917,2.661184766312917
1.5319470769932955,1.5319470769932955
0.7032172686331102,0.7032172686331102
0.21108117372852567,0.21108117372852567
-0.04525267089939951,-0.04525267089939951
-0.19955071329679136,-0.19955071329679136
-0.3333171613429174,-0.3333171613429174
-0.4838821865855336,-0.4838821865855336
-0.6213816517864352,-0.6213816517864352
-0.7115962330268458,-0.7115962330268458
-0.7364830140586832,-0.7364830140586832
-0.7352386750070913,-0.7352386750070913
-0.7364830140586832,-0.7364830140586832
-0.7476820655230101,-0.7476820655230101
-0.7364830140586832,-0.7364830140586832
-0.7066188768204783,-0.7066188768204783
-0.6792434176854572,-0.6792434176854572
-0.6823542653144369,-0.6823542653144369
-0.6792434176854572,-0.6792434176854572
-0.6580896538083955,-0.6580896538083955
-0.6213816517864352,-0.6213816517864352
-0.6139156174768841,-0.6139156174768841
-0.6213816517864352,-0.6213816517864352
-0.6300920251475783,-0.6300920251475783
-0.6213816517864352,-0.6213816517864352
-0.6014722269609654,-0.6014722269609654
-0.5635198858874133,-0.5635198858874133
-0.5237010362364735,-0.5237010362364735
-0.5062802895141872,-0.5062802895141872
-0.5293005619686368,-0.5293005619686368
-0.5635198858874133,-0.5635198858874133
-0.5772076154549238,-0.5772076154549238
-0.5635198858874133,-0.5635198858874133
-0.5548095125262702,-0.5548095125262702
-0.5635198858874133,-0.5635198858874133
-0.5921396840740263,-0.5921396840740263
-0.6213816517864352,-0.6213816517864352
-0.6506236194988442,-0.6506236194988442
-0.6792434176854572,-0.6792434176854572
-0.7259061321201523,-0.7259061321201523
-0.7943447799577051,-0.7943447799577051
-0.8845593611981157,-0.8845593611981157
-0.9666857386031791,-0.9666857386031791
-1.0326357083375481,-1.0326357083375481
-1.082409270401223,-1.082409270401223
-1.139648866774449,-1.139648866774449
-1.197510632673471,-1.197510632673471
-1.2304856175406556,-1.2304856175406556
-1.197510632673471,-1.197510632673471
-1.101696525700897,-1.101696525700897
-0.9666857386031791,-0.9666857386031791
-0.8285641038764816,-0.8285641038764816
-0.6792434176854572,-0.6792434176854572
-0.5137463238237385,-0.5137463238237385
-0.3333171613429174,-0.3333171613429174
-0.1734195932133621,-0.1734195932133621
-0.04525267089939951,-0.04525267089939951
0.04807275796999073,0.04807275796999073
0.12708828774607447,0.12708828774607447
0.19117174890305577,0.19117174890305577
0.24281181954411835,0.24281181954411835
0.2739202958339151,0.2739202958339151
0.30005141591734436,0.30005141591734436
0.3261825360007736,0.3261825360007736
0.35791318181636633,0.35791318181636633
0.37097874185808094,0.37097874185808094
0.35791318181636633,0.35791318181636633
0.32307168837179395,0.32307168837179395
0.30005141591734436,0.30005141591734436
0.294451890185181,0.294451890185181
0.30005141591734436,0.30005141591734436
0.29818490733995656,0.29818490733995656
0.30005141591734436,0.30005141591734436
0.3025400940205281,0.3025400940205281
0.30005141591734436,0.30005141591734436
0.27267595678232326,0.27267595678232326
0.24281181954411835,0.24281181954411835
0.22725758139921998,0.22725758139921998
0.24281181954411835,0.24281181954411835
0.25276653195685334,0.25276653195685334
0.24281181954411835,0.24281181954411835
0.20734815657375008,0.20734815657375008
0.18495005364509642,0.18495005364509642
0.1774840193355452,0.1774840193355452
0.18495005364509642,0.18495005364509642
0.18183920601611675,0.18183920601611675
0.18495005364509642,0.18495005364509642
0.20112646131579073,0.20112646131579073
0.24281181954411835,0.24281181954411835
0.2919632120819972,0.2919632120819972
0.35791318181636633,0.35791318181636633
0.4356843725408582,0.4356843725408582
0.5302541404618403,0.5302541404618403
0.6210908912280468,0.6210908912280468
0.7032172686331102,0.7032172686331102
0.7635677126353159,0.7635677126353159
0.8183186309053582,0.8183186309053582
0.886135109217115,0.886135109217115
0.9912817590766281,0.9912817590766281
1.0976727479877328,1.0976727479877328
1.1642448872478979,1.1642448872478979
1.1853986511249597,1.1853986511249597
1.221484483621124,1.221484483621124
1.2743688933137785,1.2743688933137785
1.279346249520146,1.279346249520146
1.1704665825058573,1.1704665825058573
0.9912817590766281,0.9912817590766281
0.8071195794410313,0.8071195794410313
0.6459776722598842,0.6459776722598842
0.47488105266600206,0.47488105266600206
0.30005141591734436,0.30005141591734436
0.13704300015880944,0.13704300015880944
0.011986925473826505,0.011986925473826505
-0.07698331671499219,-0.07698331671499219
-0.10311443679842146,-0.10311443679842146
-0.10062575869523771,-0.10062575869523771
-0.10311443679842146,-0.10311443679842146
-0.1591096941200556,-0.1591096941200556
-0.2182157990706694,-0.2182157990706694
-0.24061390199932306,-0.24061390199932306
-0.2182157990706694,-0.2182157990706694
-0.20763891713213853,-0.20763891713213853
-0.2182157990706694,-0.2182157990706694
-0.2356365457929556,-0.2356365457929556
-0.2182157990706694,-0.2182157990706694
-0.16719789795540274,-0.16719789795540274
-0.10311443679842146,-0.10311443679842146
-0.08444935102454341,-0.08444935102454341
-0.10311443679842146,-0.10311443679842146
-0.039653145167236094,-0.039653145167236094
0.30005141591734436,0.30005141591734436
0.9788383685607094,0.9788383685607094
1.9127148267804077,1.9127148267804077
2.9523601043854146,2.9523601043854146
3.9285440903592366,3.9285440903592366
4.508406088401048,4.508406088401048
4.331709943075002,4.331709943075002
3.367347178091303,3.367347178091303
2.0856779549516777,2.0856779549516777
1.0342114563565477,1.0342114563565477
0.41515277818959234,0.41515277818959234
0.08602509904354276,0.08602509904354276
-0.10311443679842146,-0.10311443679842146
-0.2250596638544247,-0.2250596638544247
-0.3333171613429174,-0.3333171613429174
-0.48077133895655394,-0.48077133895655394
-0.6213816517864352,-0.6213816517864352
-0.6879537910466003,-0.6879537910466003
-0.6792434176854572,-0.6792434176854572
-0.6674221966953344,-0.6674221966953344
-0.6792434176854572,-0.6792434176854572
-0.6935533167787638,-0.6935533167787638
-0.6792434176854572,-0.6792434176854572
-0.6506236194988442,-0.6506236194988442
-0.6213816517864352,-0.6213816517864352
-0.6170264651058637,-0.6170264651058637
-0.6213816517864352,-0.6213816517864352
-0.6338250423023539,-0.6338250423023539
-0.6213816517864352,-0.6213816517864352
-0.5958727012288019,-0.5958727012288019
-0.5635198858874133,-0.5635198858874133
-0.5541873430004742,-0.5541873430004742
-0.5635198858874133,-0.5635198858874133
-0.5772076154549238,-0.5772076154549238
-0.5635198858874133,-0.5635198858874133
-0.5324114095976166,-0.5324114095976166
-0.5062802895141872,-0.5062802895141872
-0.5037916114110036,-0.5037916114110036
-0.5062802895141872,-0.5062802895141872
-0.5044137809367994,-0.5044137809367994
-0.5062802895141872,-0.5062802895141872
-0.5311670705460246,-0.5311670705460246
-0.5635198858874133,-0.5635198858874133
-0.5933840231256182,-0.5933840231256182
-0.6213816517864352,-0.6213816517864352
-0.672399552901702,-0.672399552901702
-0.7364830140586832,-0.7364830140586832
-0.8011886447414605,-0.8011886447414605
-0.8515843763309312,-0.8515843763309312
-0.9063352946009734,-0.9063352946009734
-0.9666857386031791,-0.9666857386031791
-1.0326357083375481,-1.0326357083375481
-1.082409270401223,-1.082409270401223
-1.1191172724231833,-1.1191172724231833
-1.139648866774449,-1.139648866774449
-1.1533365963419595,-1.1533365963419595
-1.139648866774449,-1.139648866774449
-1.0842757789786108,-1.0842757789786108
-0.9666857386031791,-0.9666857386031791
-0.8061660009478279,-0.8061660009478279
-0.6213816517864352,-0.6213816517864352
-0.44281899788300194,-0.44281899788300194
-0.2760775649696914,-0.2760775649696914
-0.1416889473977694,-0.1416889473977694
-0.04525267089939951,-0.04525267089939951
0.013853434051214308,0.013853434051214308
0.06984869137284845,0.06984869137284845
0.12895479632346227,0.12895479632346227
0.18495005364509642,0.18495005364509642
0.2166806994606891,0.2166806994606891
0.24281181954411835,0.24281181954411835
0.2708094482049354,0.2708094482049354
0.30005141591734436,0.30005141591734436
0.30689528070109967,0.30689528070109967
0.30005141591734436,0.30005141591734436
0.2925853816077931,0.2925853816077931
0.30005141591734436,0.30005141591734436
0.3056509416495078,0.3056509416495078
0.30005141591734436,0.30005141591734436
0.27267595678232326,0.27267595678232326
0.24281181954411835,0.24281181954411835
0.22476890329603624,0.22476890329603624
0.24281181954411835,0.24281181954411835
0.27578680441130293,0.27578680441130293
0.30005141591734436,0.30005141591734436
0.2826306691950582,0.2826306691950582
0.24281181954411835,0.24281181954411835
0.2005042917899948,0.2005042917899948
0.18495005364509642,0.18495005364509642
0.1812170364903208,0.1812170364903208
0.18495005364509642,0.18495005364509642
0.18059486696452487,0.18059486696452487
0.18495005364509642,0.18495005364509642
0.18557222317089234,0.18557222317089234
0.18495005364509642,0.18495005364509642
0.17437317170656552,0.17437317170656552
0.18495005364509642,0.18495005364509642
0.22539107282183218,0.22539107282183218
0.30005141591734436,0.30005141591734436
0.3846664714255915,0.3846664714255915
0.47301454408861426,0.47301454408861426
0.5408310224003712,0.5408310224003712
0.5881159063608622,0.5881159063608622
0.6273125864860062,0.6273125864860062
0.7032172686331102,0.7032172686331102
0.8152077832763784,0.8152077832763784
0.9334199931776062,0.9334199931776062
1.0242567439438126,1.0242567439438126
1.106383121348876,1.106383121348876
1.1804212949185924,1.1804212949185924
1.221484483621124,1.221484483621124
1.1897538378055312,1.1897538378055312
1.106383121348876,1.106383121348876
0.9993699629119752,0.9993699629119752
0.8761803968043801,0.8761803968043801
0.6982399124267428,0.6982399124267428
0.47301454408861426,0.47301454408861426
0.24218965001832243,0.24218965001832243
0.06984869137284845,0.06984869137284845
-0.039653145167236094,-0.039653145167236094
-0.10311443679842146,-0.10311443679842146
-0.1659535589038109,-0.1659535589038109
-0.2182157990706694,-0.2182157990706694
-0.2630120049279767,-0.2630120049279767
-0.2760775649696914,-0.2760775649696914
-0.28167709070185476,-0.28167709070185476
-0.2760775649696914,-0.2760775649696914
-0.2742110563923036,-0.2742110563923036
-0.2760775649696914,-0.2760775649696914
-0.2860322773824263,-0.2860322773824263
-0.2760775649696914,-0.2760775649696914
-0.2499464448862621,-0.2499464448862621
-0.2182157990706694,-0.2182157990706694
-0.193329018038832,-0.193329018038832
-0.16035403317164748,-0.16035403317164748
-0.16657572842960683,-0.16657572842960683
-0.2182157990706694,-0.2182157990706694
-0.16533138937801495,-0.16533138937801495
0.24281181954411835,0.24281181954411835
1.0273675915727922,1.0273675915727922
1.9705765926794296,1.9705765926794296
2.8957426775379846,2.8957426775379846
3.7555809621879668,3.7555809621879668
4.2769590248049605,4.2769590248049605
3.9864058562582585,3.9864058562582585
2.794951214359043,2.794951214359043
1.336585845893372,1.336585845893372
0.34484762177465167,0.34484762177465167
-0.04525267089939951,-0.04525267089939951
-0.19270684851303607,-0.19270684851303607
-0.3333171613429174,-0.3333171613429174
-0.4484185236151653,-0.4484185236151653
-0.5062802895141872,-0.5062802895141872
-0.5803184630839036,-0.5803184630839036
-0.6792434176854572,-0.6792434176854572
-0.7408382007392548,-0.7408382007392548
-0.7364830140586832,-0.7364830140586832
-0.7252839625943563,-0.7252839625943563
-0.7364830140586832,-0.7364830140586832
-0.7526594217293775,-0.7526594217293775
-0.7364830140586832,-0.7364830140586832
-0.7041301987172945,-0.7041301987172945
-0.6792434176854572,-0.6792434176854572
-0.6835986043660287,-0.6835986043660287
-0.6792434176854572,-0.6792434176854572
-0.6574674842825995,-0.6574674842825995
-0.6213816517864352,-0.6213816517864352
-0.6139156174768841,-0.6139156174768841
-0.6213816517864352,-0.6213816517864352
-0.6269811775185986,-0.6269811775185986
-0.6213816517864352,-0.6213816517864352
-0.6207594822606393,-0.6207594822606393
-0.6213816517864352,-0.6213816517864352
-0.6220038213122312,-0.6220038213122312
-0.6213816517864352,-0.6213816517864352
-0.6251146689412108,-0.6251146689412108
-0.6213816517864352,-0.6213816517864352
-0.6139156174768841,-0.6139156174768841
-0.6213816517864352,-0.6213816517864352
-0.6674221966953344,-0.6674221966953344
-0.7364830140586832,-0.7364830140586832
-0.804921661896236,-0.804921661896236
-0.8515843763309312,-0.8515843763309312
-0.8864258697755035,-0.8864258697755035
-0.9094461422299531,-0.9094461422299531
-0.9343329232617905,-0.9343329232617905
-0.9666857386031791,-0.9666857386031791
-1.0201923178216294,-1.0201923178216294
-1.082409270401223,-1.082409270401223
-1.1464927315582043,-1.1464927315582043
-1.197510632673471,-1.197510632673471
-1.236085143272819,-1.236085143272819
-1.254750229046697,-1.254750229046697
-1.264082771933636,-1.264082771933636
-1.254750229046697,-1.254750229046697
-1.2055988365088182,-1.2055988365088182
-1.082409270401223,-1.082409270401223
-0.9088239727041572,-0.9088239727041572
-0.7364830140586832,-0.7364830140586832
-0.5964948707545978,-0.5964948707545978
-0.4484185236151653,-0.4484185236151653
-0.27234454781491574,-0.27234454781491574
-0.10311443679842146,-0.10311443679842146
-0.009789007929031219,-0.009789007929031219
0.011986925473826505,0.011986925473826505
0.02007512930917366,0.02007512930917366
0.06984869137284845,0.06984869137284845
0.13953167826199317,0.13953167826199317
0.18495005364509642,0.18495005364509642
0.17312883265497364,0.17312883265497364
0.12708828774607447,0.12708828774607447
0.08353642094035901,0.08353642094035901
0.06984869137284845,0.06984869137284845
0.07047086089864439,0.07047086089864439
0.06984869137284845,0.06984869137284845
0.0636269961148891,0.0636269961148891
0.06984869137284845,0.06984869137284845
0.0760703866308078,0.0760703866308078
0.06984869137284845,0.06984869137284845
0.05305011417635821,0.05305011417635821
0.06984869137284845,0.06984869137284845
0.12459960964289073,0.12459960964289073
0.18495005364509642,0.18495005364509642
0.1992599527384029,0.1992599527384029
0.18495005364509642,0.18495005364509642
0.1725066631291777,0.1725066631291777
0.18495005364509642,0.18495005364509642
0.19054957937725983,0.19054957937725983
0.18495005364509642,0.18495005364509642
0.17437317170656552,0.17437317170656552
0.18495005364509642,0.18495005364509642
0.19428259653203545,0.19428259653203545
0.18495005364509642,0.18495005364509642
0.14824205162313625,0.14824205162313625
0.12708828774607447,0.12708828774607447
0.13953167826199317,0.13953167826199317
0.18495005364509642,0.18495005364509642
0.23783446333775088,0.23783446333775088
0.30005141591734436,0.30005141591734436
0.361024029445346,0.361024029445346
0.41515277818959234,0.41515277818959234
0.45994898404689966,0.45994898404689966
0.5302541404618403,0.5302541404618403
0.6366451293729452,0.6366451293729452
0.7610790345321321,0.7610790345321321
0.858759650082094,0.858759650082094
0.9334199931776062,0.9334199931776062
0.9962591152829956,0.9962591152829956
1.04914352497565,1.04914352497565
1.0516322030788336,1.0516322030788336
0.9912817590766281,0.9912817590766281
0.8824020920623394,0.8824020920623394
0.7610790345321321,0.7610790345321321
0.6123805178669037,0.6123805178669037
0.41515277818959234,0.41515277818959234
0.1725066631291777,0.1725066631291777
-0.04525267089939951,-0.04525267089939951
-0.193329018038832,-0.193329018038832
-0.2760775649696914,-0.2760775649696914
-0.3426497042298564,-0.3426497042298564
-0.3911789272419393,-0.3911789272419393
-0.4278869292638995,-0.4278869292638995
-0.4484185236151653,-0.4484185236151653
-0.4832600170597377,-0.4832600170597377
-0.5062802895141872,-0.5062802895141872
-0.5118798152463507,-0.5118798152463507
-0.5062802895141872,-0.5062802895141872
-0.5106354761947588,-0.5106354761947588
-0.5062802895141872,-0.5062802895141872
-0.5025472723594117,-0.5025472723594117
-0.5062802895141872,-0.5062802895141872
-0.5019251028336157,-0.5019251028336157
-0.4484185236151653,-0.4484185236151653
-0.41668787779957267,-0.41668787779957267
-0.5062802895141872,-0.5062802895141872
-0.6531122976020279,-0.6531122976020279
-0.5635198858874133,-0.5635198858874133
-0.03156494133188894,-0.03156494133188894
0.8761803968043801,0.8761803968043801
1.9245360477705304,1.9245360477705304
2.892009660383209,2.892009660383209
3.4793376927345716,3.4793376927345716
3.352415109472201,3.352415109472201
2.4421810932327483,2.4421810932327483
1.1642448872478979,1.1642448872478979
0.0885137771467265,0.0885137771467265
-0.5062802895141872,-0.5062802895141872
-0.7165735892332132,-0.7165735892332132
-0.7364830140586832,-0.7364830140586832
-0.7147070806558254,-0.7147070806558254
-0.7364830140586832,-0.7364830140586832
-0.8248310867217059,-0.8248310867217059
-0.9094461422299531,-0.9094461422299531
-0.9324664146844027,-0.9324664146844027
-0.9094461422299531,-0.9094461422299531
-0.901357938394606,-0.901357938394606
-0.9094461422299531,-0.9094461422299531
-0.9144234984363206,-0.9144234984363206
-0.9094461422299531,-0.9094461422299531
-0.9131791593847287,-0.9131791593847287
-0.9094461422299531,-0.9094461422299531
-0.8889145478786873,-0.8889145478786873
-0.8515843763309312,-0.8515843763309312
-0.8410074943924003,-0.8410074943924003
-0.8515843763309312,-0.8515843763309312
-0.8677607840016255,-0.8677607840016255
-0.8515843763309312,-0.8515843763309312
-0.8173650524121547,-0.8173650524121547
-0.7943447799577051,-0.7943447799577051
-0.7962112885350929,-0.7962112885350929
-0.7943447799577051,-0.7943447799577051
-0.7707023379774596,-0.7707023379774596
-0.7364830140586832,-0.7364830140586832
-0.7259061321201523,-0.7259061321201523
-0.7364830140586832,-0.7364830140586832
-0.7470598959972141,-0.7470598959972141
-0.7364830140586832,-0.7364830140586832
-0.7252839625943563,-0.7252839625943563
-0.7364830140586832,-0.7364830140586832
-0.785634406596562,-0.785634406596562
-0.8515843763309312,-0.8515843763309312
-0.9187786851168921,-0.9187786851168921
-0.9666857386031791,-0.9666857386031791
-1.0002828929961596,-1.0002828929961596
-1.024547504502201,-1.024547504502201
-1.0687215408337125,-1.0687215408337125
-1.139648866774449,-1.139648866774449
-1.2174200574989409,-1.2174200574989409
-1.254750229046697,-1.254750229046697
-1.255994568098289,-1.255994568098289
-1.254750229046697,-1.254750229046697
-1.2709266367173913,-1.2709266367173913
-1.254750229046697,-1.254750229046697
-1.168268664961062,-1.168268664961062
-1.024547504502201,-1.024547504502201
-0.8789598354659524,-0.8789598354659524
-0.7364830140586832,-0.7364830140586832
-0.5778297849807198,-0.5778297849807198
-0.3911789272419393,-0.3911789272419393
-0.2213266466996491,-0.2213266466996491
-0.10311443679842146,-0.10311443679842146
-0.03778663658984829,-0.03778663658984829
0.011986925473826505,0.011986925473826505
0.052427944650562275,0.052427944650562275
0.06984869137284845,0.06984869137284845
0.04807275796999073,0.04807275796999073
0.011986925473826505,0.011986925473826505
-0.02036588986756211,-0.02036588986756211
-0.04525267089939951,-0.04525267089939951
-0.07760548624078813,-0.07760548624078813
-0.10311443679842146,-0.10311443679842146
-0.11120264063376861,-0.11120264063376861
-0.10311443679842146,-0.10311443679842146
-0.10062575869523771,-0.10062575869523771
-0.10311443679842146,-0.10311443679842146
-0.10622528442740113,-0.10622528442740113
-0.10311443679842146,-0.10311443679842146
-0.1037366063242174,-0.1037366063242174
-0.10311443679842146,-0.10311443679842146
-0.10498094537580926,-0.10498094537580926
-0.10311443679842146,-0.10311443679842146
-0.10809179300478894,-0.10809179300478894
-0.10311443679842146,-0.10311443679842146
-0.08569369007613528,-0.08569369007613528
-0.04525267089939951,-0.04525267089939951
-0.008544668877439349,-0.008544668877439349
0.011986925473826505,0.011986925473826505
-0.006055990774255609,-0.006055990774255609
-0.04525267089939951,-0.04525267089939951
-0.08880453770511496,-0.08880453770511496
-0.10311443679842146,-0.10311443679842146
-0.10435877585001332,-0.10435877585001332
-0.10311443679842146,-0.10311443679842146
-0.09751491106625804,-0.09751491106625804
-0.04525267089939951,-0.04525267089939951
0.04247323223782731,0.04247323223782731
0.12708828774607447,0.12708828774607447
0.18059486696452487,0.18059486696452487
0.24281181954411835,0.24281181954411835
0.3274268750523655,0.3274268750523655
0.41515277818959234,0.41515277818959234
0.48670227365612484,0.48670227365612484
0.5881159063608622,0.5881159063608622
0.7337035753971111,0.7337035753971111
0.8761803968043801,0.8761803968043801
0.9514629094256882,0.9514629094256882
0.9912817590766281,0.9912817590766281
1.0447883382950784,1.0447883382950784
1.106383121348876,1.106383121348876
1.0995392565651207,1.0995392565651207
0.9912817590766281,0.9912817590766281
0.8033865622862557,0.8033865622862557
0.5881159063608622,0.5881159063608622
0.35791318181636633,0.35791318181636633
0.12708828774607447,0.12708828774607447
-0.07947199481817593,-0.07947199481817593
-0.2182157990706694,-0.2182157990706694
-0.29287614216618163,-0.29287614216618163
-0.3333171613429174,-0.3333171613429174
-0.3911789272419393,-0.3911789272419393
-0.4484185236151653,-0.4484185236151653
-0.4944590685240645,-0.4944590685240645
-0.5062802895141872,-0.5062802895141872
-0.5100133066689629,-0.5100133066689629
-0.5062802895141872,-0.5062802895141872
-0.5062802895141872,-0.5062802895141872
-0.5062802895141872,-0.5062802895141872
-0.5137463238237385,-0.5137463238237385
-0.5062802895141872,-0.5062802895141872
-0.4820156780081458,-0.4820156780081458
-0.4484185236151653,-0.4484185236151653
-0.451529371244145,-0.451529371244145
-0.5062802895141872,-0.5062802895141872
-0.595250531703006,-0.595250531703006
-0.6213816517864352,-0.6213816517864352
-0.44530767598618565,-0.44530767598618565
0.06984869137284845,0.06984869137284845
0.9315534846002184,0.9315534846002184
1.9705765926794296,1.9705765926794296
2.851568641206473,2.851568641206473
3.237313747199953,3.237313747199953
2.9480049177048433,2.9480049177048433
2.0856779549516777,2.0856779549516777
0.9757275209317297,0.9757275209317297
0.011986925473826505,0.011986925473826505
-0.5610312077842295,-0.5610312077842295
-0.7364830140586832,-0.7364830140586832
-0.7084853853978661,-0.7084853853978661
-0.6792434176854572,-0.6792434176854572
-0.7271504711717441,-0.7271504711717441
-0.7943447799577051,-0.7943447799577051
-0.8322971210312572,-0.8322971210312572
-0.8515843763309312,-0.8515843763309312
-0.8858037002497076,-0.8858037002497076
-0.9094461422299531,-0.9094461422299531
-0.8951362431366466,-0.8951362431366466
-0.8515843763309312,-0.8515843763309312
-0.8192315609895425,-0.8192315609895425
-0.7943447799577051,-0.7943447799577051
-0.76759149034848,-0.76759149034848
-0.7364830140586832,-0.7364830140586832
-0.7327499969039076,-0.7327499969039076
-0.7364830140586832,-0.7364830140586832
-0.7271504711717441,-0.7271504711717441
-0.6792434176854572,-0.6792434176854572
-0.6182708041574556,-0.6182708041574556
-0.5635198858874133,-0.5635198858874133
-0.528056222917045,-0.528056222917045
-0.5062802895141872,-0.5062802895141872
-0.5000585942562279,-0.5000585942562279
-0.5062802895141872,-0.5062802895141872
-0.5156128324011263,-0.5156128324011263
-0.5062802895141872,-0.5062802895141872
-0.4764161522759824,-0.4764161522759824
-0.4484185236151653,-0.4484185236151653
-0.4583732360279003,-0.4583732360279003
-0.5062802895141872,-0.5062802895141872
-0.5703637506711686,-0.5703637506711686
-0.6213816517864352,-0.6213816517864352
-0.6699108747985182,-0.6699108747985182
-0.7364830140586832,-0.7364830140586832
-0.8428740029697881,-0.8428740029697881
-0.9666857386031791,-0.9666857386031791
-1.0755654056174677,-1.0755654056174677
-1.139648866774449,-1.139648866774449
-1.188178089786532,-1.188178089786532
-1.254750229046697,-1.254750229046697
-1.350564336019271,-1.350564336019271
-1.427713357217967,-1.427713357217967
-1.453844477301396,-1.453844477301396
-1.427713357217967,-1.427713357217967
-1.3810506427832718,-1.3810506427832718
-1.312611994945719,-1.312611994945719
-1.2149313793957572,-1.2149313793957572
-1.082409270401223,-1.082409270401223
-0.939310279468158,-0.939310279468158
-0.7943447799577051,-0.7943447799577051
-0.6537344671278239,-0.6537344671278239
-0.5062802895141872,-0.5062802895141872
-0.35944828142634666,-0.35944828142634666
-0.2182157990706694,-0.2182157990706694
-0.11058047110797267,-0.11058047110797267
-0.04525267089939951,-0.04525267089939951
-0.016632872712786503,-0.016632872712786503
0.011986925473826505,0.011986925473826505
0.04682841891839886,0.04682841891839886
0.06984869137284845,0.06984869137284845
0.05305011417635821,0.05305011417635821
0.011986925473826505,0.011986925473826505
-0.028454093702909265,-0.028454093702909265
-0.04525267089939951,-0.04525267089939951
-0.05023002710576699,-0.05023002710576699
-0.04525267089939951,-0.04525267089939951
-0.029076263228705202,-0.029076263228705202
0.011986925473826505,0.011986925473826505
0.052427944650562275,0.052427944650562275
0.06984869137284845,0.06984869137284845
0.06300482658909316,0.06300482658909316
0.06984869137284845,0.06984869137284845
0.08042557331137934,0.08042557331137934
0.06984869137284845,0.06984869137284845
0.04247323223782731,0.04247323223782731
0.06984869137284845,0.06984869137284845
0.1438868649425647,0.1438868649425647
0.18495005364509642,0.18495005364509642
0.13330998300403382,0.13330998300403382
0.06984869137284845,0.06984869137284845
0.056783131331133815,0.056783131331133815
0.06984869137284845,0.06984869137284845
0.041228893186235446,0.041228893186235446
0.011986925473826505,0.011986925473826505
0.04060672366043951,0.04060672366043951
0.12708828774607447,0.12708828774607447
0.21419202135750534,0.21419202135750534
0.30005141591734436,0.30005141591734436
0.39088816668355086,0.39088816668355086
0.47301454408861426,0.47301454408861426
0.523410275678085,0.523410275678085
0.5881159063608622,0.5881159063608622
0.6938847257461712,0.6938847257461712
0.8183186309053582,0.8183186309053582
0.9116440597747484,0.9116440597747484
0.9912817590766281,0.9912817590766281
1.077141153636467,1.077141153636467
1.1642448872478979,1.1642448872478979
1.212774110259981,1.212774110259981
1.221484483621124,1.221484483621124
1.172955260609041,1.172955260609041
1.04914352497565,1.04914352497565
0.8506714462467467,0.8506714462467467
0.6459776722598842,0.6459776722598842
0.4667928488306549,0.4667928488306549
0.30005141591734436,0.30005141591734436
0.11588923628174763,0.11588923628174763
-0.04525267089939951,-0.04525267089939951
-0.15537667696528,-0.15537667696528
-0.2182157990706694,-0.2182157990706694
-0.28478793833083443,-0.28478793833083443
-0.3333171613429174,-0.3333171613429174
-0.3532265861683873,-0.3532265861683873
-0.3333171613429174,-0.3333171613429174
-0.3246067879817743,-0.3246067879817743
-0.3333171613429174,-0.3333171613429174
-0.3457605518588361,-0.3457605518588361
-0.3333171613429174,-0.3333171613429174
-0.32398461845597837,-0.32398461845597837
-0.3333171613429174,-0.3333171613429174
-0.35073790806520355,-0.35073790806520355
-0.3333171613429174,-0.3333171613429174
-0.32522895750757025,-0.32522895750757025
-0.3911789272419393,-0.3911789272419393
-0.5000585942562279,-0.5000585942562279
-0.4484185236151653,-0.4484185236151653
-0.05520738331213447,-0.05520738331213447
0.7032172686331102,0.7032172686331102
1.6918446451228508,1.6918446451228508
2.719046532211939,2.719046532211939
3.5092018299727763,3.5092018299727763
3.7555809621879668,3.7555809621879668
3.29890853025375,3.29890853025375
2.3158806794961735,2.3158806794961735
1.1978420416408784,1.1978420416408784
0.30005141591734436,0.30005141591734436
-0.23625871531875153,-0.23625871531875153
-0.4484185236151653,-0.4484185236151653
-0.4888595427919011,-0.4888595427919011
-0.5062802895141872,-0.5062802895141872
-0.5803184630839036,-0.5803184630839036
-0.6792434176854572,-0.6792434176854572
-0.7545259303067653,-0.7545259303067653
-0.7943447799577051,-0.7943447799577051
-0.8260754257732978,-0.8260754257732978
-0.8515843763309312,-0.8515843763309312
-0.8640277668468499,-0.8640277668468499
-0.8515843763309312,-0.8515843763309312
-0.8279419343506856,-0.8279419343506856
-0.7943447799577051,-0.7943447799577051
-0.7638584731937044,-0.7638584731937044
-0.7364830140586832,-0.7364830140586832
-0.7333721664297035,-0.7333721664297035
-0.7364830140586832,-0.7364830140586832
-0.7439490483682344,-0.7439490483682344
-0.7364830140586832,-0.7364830140586832
-0.7321278273781117,-0.7321278273781117
-0.7364830140586832,-0.7364830140586832
-0.7464377264714182,-0.7464377264714182
-0.7364830140586832,-0.7364830140586832
-0.7078632158720702,-0.7078632158720702
-0.6792434176854572,-0.6792434176854572
-0.6736438919532938,-0.6736438919532938
-0.6792434176854572,-0.6792434176854572
-0.681109926262845,-0.681109926262845
-0.6792434176854572,-0.6792434176854572
-0.6972863339335393,-0.6972863339335393
-0.7364830140586832,-0.7364830140586832
-0.7769240332354189,-0.7769240332354189
-0.7943447799577051,-0.7943447799577051
-0.8092768485768076,-0.8092768485768076
-0.8515843763309312,-0.8515843763309312
-0.9361994318391783,-0.9361994318391783
-1.024547504502201,-1.024547504502201
-1.092363982813958,-1.092363982813958
-1.139648866774449,-1.139648866774449
-1.196266293621879,-1.196266293621879
-1.254750229046697,-1.254750229046697
-1.3007907739555962,-1.3007907739555962
-1.312611994945719,-1.312611994945719
-1.2970577568008206,-1.2970577568008206
-1.254750229046697,-1.254750229046697
-1.2024879888798385,-1.2024879888798385
-1.139648866774449,-1.139648866774449
-1.0550338112662019,-1.0550338112662019
-0.9094461422299531,-0.9094461422299531
-0.7115962330268458,-0.7115962330268458
-0.5062802895141872,-0.5062802895141872
-0.3438940432814483,-0.3438940432814483
-0.2182157990706694,-0.2182157990706694
-0.1199130139949117,-0.1199130139949117
-0.04525267089939951,-0.04525267089939951
0.00638739974166309,0.00638739974166309
0.06984869137284845,0.06984869137284845
0.1401538477877891,0.1401538477877891
0.18495005364509642,0.18495005364509642
0.18432788411930048,0.18432788411930048
0.18495005364509642,0.18495005364509642
0.21356985183170943,0.21356985183170943
0.24281181954411835,0.24281181954411835
0.2241467337702403,0.2241467337702403
0.18495005364509642,0.18495005364509642
0.16877364597440211,0.16877364597440211
0.18495005364509642,0.18495005364509642
0.19241608795464762,0.19241608795464762
0.18495005364509642,0.18495005364509642
0.17623968028395331,0.17623968028395331
0.18495005364509642,0.18495005364509642
0.18930524032566795,0.18930524032566795
0.18495005364509642,0.18495005364509642
0.17499534123236146,0.17499534123236146
0.18495005364509642,0.18495005364509642
0.19490476605783136,0.19490476605783136
0.18495005364509642,0.18495005364509642
0.13019913537505415,0.13019913537505415
0.06984869137284845,0.06984869137284845
0.03936238460884764,0.03936238460884764
0.06984869137284845,0.06984869137284845
0.1258439486944826,0.1258439486944826
0.18495005364509642,0.18495005364509642
0.2328571071313834,0.2328571071313834
0.30005141591734436,0.30005141591734436
0.3840443018997956,0.3840443018997956
0.47301454408861426,0.47301454408861426
0.5370980052455956,0.5370980052455956
0.5881159063608622,0.5881159063608622
0.6372672988987411,0.6372672988987411
0.7032172686331102,0.7032172686331102
0.7809884593576021,0.7809884593576021
0.8761803968043801,0.8761803968043801
0.9695058256737703,0.9695058256737703
1.04914352497565,1.04914352497565
1.10576095182308,1.10576095182308
1.1642448872478979,1.1642448872478979
1.2140184493115729,1.2140184493115729
1.221484483621124,1.221484483621124
1.1406024452676524,1.1406024452676524
0.9912817590766281,0.9912817590766281
0.8133412746989906,0.8133412746989906
0.6459776722598842,0.6459776722598842
0.47612539171759394,0.47612539171759394
0.30005141591734436,0.30005141591734436
0.11402272770435982,0.11402272770435982
-0.04525267089939951,-0.04525267089939951
-0.164709219852219,-0.164709219852219
-0.2182157990706694,-0.2182157990706694
-0.2337700372155678,-0.2337700372155678
-0.2182157990706694,-0.2182157990706694
-0.21510495144168973,-0.21510495144168973
-0.2182157990706694,-0.2182157990706694
-0.22817051148340436,-0.22817051148340436
-0.2182157990706694,-0.2182157990706694
-0.2107497647611182,-0.2107497647611182
-0.2182157990706694,-0.2182157990706694
-0.23750305437034339,-0.23750305437034339
-0.2182157990706694,-0.2182157990706694
-0.15973186364585154,-0.15973186364585154
-0.10311443679842146,-0.10311443679842146
-0.09938141964364584,-0.09938141964364584
-0.10311443679842146,-0.10311443679842146
-0.010411177454827154,-0.010411177454827154
0.30005141591734436,0.30005141591734436
0.8954676521040541,0.8954676521040541
1.7976134645081596,1.7976134645081596
2.910674746157087,2.910674746157087
3.9864058562582585,3.9864058562582585
4.637817349766602,4.637817349766602
4.561912667619498,4.561912667619498
3.750603605981599,3.750603605981599
2.5460834040406692,2.5460834040406692
1.3956919508439858,1.3956919508439858
0.5881159063608622,0.5881159063608622
0.13206564395244194,0.13206564395244194
-0.10311443679842146,-0.10311443679842146
-0.25803464872160925,-0.25803464872160925
-0.3911789272419393,-0.3911789272419393
-0.5174793409785141,-0.5174793409785141
-0.6213816517864352,-0.6213816517864352
-0.6979085034593352,-0.6979085034593352
-0.7364830140586832,-0.7364830140586832
-0.7464377264714182,-0.7464377264714182
-0.7364830140586832,-0.7364830140586832
-0.7321278273781117,-0.7321278273781117
-0.7364830140586832,-0.7364830140586832
-0.7470598959972141,-0.7470598959972141
-0.7364830140586832,-0.7364830140586832
-0.7128405720784377,-0.7128405720784377
-0.6792434176854572,-0.6792434176854572
-0.671777383375906,-0.671777383375906
-0.6792434176854572,-0.6792434176854572
-0.6929311472529678,-0.6929311472529678
-0.6792434176854572,-0.6792434176854572
-0.6493792804472523,-0.6493792804472523
-0.6213816517864352,-0.6213816517864352
-0.6164042955800678,-0.6164042955800678
-0.6213816517864352,-0.6213816517864352
-0.6257368384670068,-0.6257368384670068
-0.6213816517864352,-0.6213816517864352
-0.6207594822606393,-0.6207594822606393
-0.6213816517864352,-0.6213816517864352
-0.6226259908380272,-0.6226259908380272
-0.6213816517864352,-0.6213816517864352
-0.6375580594571295,-0.6375580594571295
-0.6792434176854572,-0.6792434176854572
-0.7402160312134588,-0.7402160312134588
-0.7943447799577051,-0.7943447799577051
-0.8466070201245637,-0.8466070201245637
-0.9094461422299531,-0.9094461422299531
-0.9809956376964857,-0.9809956376964857
-1.024547504502201,-1.024547504502201
-1.0450790988534668,-1.0450790988534668
-1.082409270401223,-1.082409270401223
-1.1670243259094701,-1.1670243259094701
-1.254750229046697,-1.254750229046697
-1.3057681301619637,-1.3057681301619637
-1.312611994945719,-1.312611994945719
-1.3001686044298002,-1.3001686044298002
-1.254750229046697,-1.254750229046697
-1.1769790383222052,-1.1769790383222052
-1.082409270401223,-1.082409270401223
-0.987217332954445,-0.987217332954445
-0.8515843763309312,-0.8515843763309312
-0.6605783319115791,-0.6605783319115791
-0.4484185236151653,-0.4484185236151653
-0.28292142975344664,-0.28292142975344664
-0.16035403317164748,-0.16035403317164748
-0.048985688054175115,-0.048985688054175115
0.06984869137284845,0.06984869137284845
0.1544637468810956,0.1544637468810956
0.18495005364509642,0.18495005364509642
0.17810618886134114,0.17810618886134114
0.18495005364509642,0.18495005364509642
0.21481419088330128,0.21481419088330128
0.24281181954411835,0.24281181954411835
0.22787975092501592,0.22787975092501592
0.18495005364509642,0.18495005364509642
0.1581967640358712,0.1581967640358712
0.18495005364509642,0.18495005364509642
0.22974625950240374,0.22974625950240374
0.24281181954411835,0.24281181954411835
0.21045900420272975,0.21045900420272975
0.18495005364509642,0.18495005364509642
0.18432788411930048,0.18432788411930048
0.18495005364509642,0.18495005364509642
0.15508591640689154,0.15508591640689154
0.12708828774607447,0.12708828774607447
0.12148876201391105,0.12148876201391105
0.12708828774607447,0.12708828774607447
0.10344584576582894,0.10344584576582894
0.06984869137284845,0.06984869137284845
0.05367228370215414,0.05367228370215414
0.06984869137284845,0.06984869137284845
0.07731472568239967,0.07731472568239967
0.06984869137284845,0.06984869137284845
0.054916622753746015,0.054916622753746015
0.06984869137284845,0.06984869137284845
0.11277838865276796,0.11277838865276796
0.18495005364509642,0.18495005364509642
0.2683207701017517,0.2683207701017517
0.35791318181636633,0.35791318181636633
0.42635182965391916,0.42635182965391916
0.47301454408861426,0.47301454408861426
0.5115890546879622,0.5115890546879622
0.5881159063608622,0.5881159063608622
0.7019729295815184,0.7019729295815184
0.8183186309053582,0.8183186309053582
0.8898681263718907,0.8898681263718907
0.9334199931776062,0.9334199931776062
0.9807048771380972,0.9807048771380972
1.04914352497565,1.04914352497565
1.1007835956167127,1.1007835956167127
1.106383121348876,1.106383121348876
1.0447883382950784,1.0447883382950784
0.9334199931776062,0.9334199931776062
0.7921875108219288,0.7921875108219288
0.6459776722598842,0.6459776722598842
0.48296925650134925,0.48296925650134925
0.30005141591734436,0.30005141591734436
0.10655669339480861,0.10655669339480861
-0.04525267089939951,-0.04525267089939951
-0.15039932075891252,-0.15039932075891252
-0.2182157990706694,-0.2182157990706694
-0.289143125011406,-0.289143125011406
-0.3333171613429174,-0.3333171613429174
-0.34887139948781576,-0.34887139948781576
-0.3333171613429174,-0.3333171613429174
-0.32958414418814175,-0.32958414418814175
-0.3333171613429174,-0.3333171613429174
-0.34016102612667265,-0.34016102612667265
-0.3333171613429174,-0.3333171613429174
-0.3339393308687133,-0.3339393308687133
-0.3333171613429174,-0.3333171613429174
-0.3202516013012027,-0.3202516013012027
-0.2760775649696914,-0.2760775649696914
-0.23501437626715965,-0.23501437626715965
-0.2182157990706694,-0.2182157990706694
-0.183996475151893,-0.183996475151893
0.011986925473826505,0.011986925473826505
0.5047451899042069,0.5047451899042069
1.336585845893372,1.336585845893372
2.3992513959528288,2.3992513959528288
3.4675164717444487,3.4675164717444487
4.225318954163898,4.225318954163898
4.3895717089740245,4.3895717089740245
3.8601054425216836,3.8601054425216836
2.834147894484187,2.834147894484187
1.6862451193906873,1.6862451193906873
0.7610790345321321,0.7610790345321321
0.18557222317089234,0.18557222317089234
-0.10311443679842146,-0.10311443679842146
-0.25990115729899704,-0.25990115729899704
-0.3911789272419393,-0.3911789272419393
-0.53801093532978,-0.53801093532978
-0.6792434176854572,-0.6792434176854572
-0.7918561018545214,-0.7918561018545214
-0.8515843763309312,-0.8515843763309312
-0.8677607840016255,-0.8677607840016255
-0.8515843763309312,-0.8515843763309312
-0.8273197648248897,-0.8273197648248897
-0.7943447799577051,-0.7943447799577051
-0.7626141341421124,-0.7626141341421124
-0.7364830140586832,-0.7364830140586832
-0.7339943359554995,-0.7339943359554995
-0.7364830140586832,-0.7364830140586832
-0.7439490483682344,-0.7439490483682344
-0.7364830140586832,-0.7364830140586832
-0.7364830140586832,-0.7364830140586832
-0.7364830140586832,-0.7364830140586832
-0.7420825397908466,-0.7420825397908466
-0.7364830140586832,-0.7364830140586832
-0.7165735892332132,-0.7165735892332132
-0.6792434176854572,-0.6792434176854572
-0.6437797547150889,-0.6437797547150889
-0.6213816517864352,-0.6213816517864352
-0.6188929736832515,-0.6188929736832515
-0.6213816517864352,-0.6213816517864352
-0.6213816517864352,-0.6213816517864352
-0.6213816517864352,-0.6213816517864352
-0.6412910766119052,-0.6412910766119052
-0.6792434176854572,-0.6792434176854572
-0.719062267336397,-0.719062267336397
-0.7364830140586832,-0.7364830140586832
-0.7514150826777857,-0.7514150826777857
-0.7943447799577051,-0.7943447799577051
-0.8795820049917482,-0.8795820049917482
-0.9666857386031791,-0.9666857386031791
-1.033257877863344,-1.033257877863344
-1.082409270401223,-1.082409270401223
-1.1415153753518368,-1.1415153753518368
-1.197510632673471,-1.197510632673471
-1.2379516518502067,-1.2379516518502067
-1.254750229046697,-1.254750229046697
-1.264704941459432,-1.264704941459432
-1.254750229046697,-1.254750229046697
-1.2174200574989409,-1.2174200574989409
-1.139648866774449,-1.139648866774449
-1.0226809959248133,-1.0226809959248133
-0.8515843763309312,-0.8515843763309312
-0.6481349413956604,-0.6481349413956604
-0.4484185236151653,-0.4484185236151653
-0.2910096335887938,-0.2910096335887938
-0.16035403317164748,-0.16035403317164748
-0.04089748421882797,-0.04089748421882797
0.06984869137284845,0.06984869137284845
0.1438868649425647,0.1438868649425647
0.18495005364509642,0.18495005364509642
0.20921466515113787,0.20921466515113787
0.24281181954411835,0.24281181954411835
0.27578680441130293,0.27578680441130293
0.30005141591734436,0.30005141591734436
0.30316226354632403,0.30316226354632403
0.30005141591734436,0.30005141591734436
0.29631839876256877,0.29631839876256877
0.30005141591734436,0.30005141591734436
0.3006735854431403,0.3006735854431403
0.30005141591734436,0.30005141591734436
0.2969405682883647,0.2969405682883647
0.30005141591734436,0.30005141591734436
0.3019179244947322,0.3019179244947322
0.30005141591734436,0.30005141591734436
0.2776533129886907,0.2776533129886907
0.24281181954411835,0.24281181954411835
0.2023708003673826,0.2023708003673826
0.18495005364509642,0.18495005364509642
0.1812170364903208,0.1812170364903208
0.18495005364509642,0.18495005364509642
0.17872835838713708,0.17872835838713708
0.18495005364509642,0.18495005364509642
0.20672598704795414,0.20672598704795414
0.24281181954411835,0.24281181954411835
0.25401087100844516,0.25401087100844516
0.24281181954411835,0.24281181954411835
0.2235245642444444,0.2235245642444444
0.24281181954411835,0.24281181954411835
0.2932075511335891,0.2932075511335891
0.35791318181636633,0.35791318181636633
0.4107975915090208,0.4107975915090208
0.47301454408861426,0.47301454408861426
0.5514079043389021,0.5514079043389021
0.6459776722598842,0.6459776722598842
0.7324592363455191,0.7324592363455191
0.8183186309053582,0.8183186309053582
0.9041780254651972,0.9041780254651972
0.9912817590766281,0.9912817590766281
1.0559873897594052,1.0559873897594052
1.106383121348876,1.106383121348876
1.1567788529383467,1.1567788529383467
1.221484483621124,1.221484483621124
1.2569481465914922,1.2569481465914922
1.221484483621124,1.221484483621124
1.1138491556584273,1.1138491556584273
0.9912817590766281,0.9912817590766281
0.8631148367626654,0.8631148367626654
0.7032172686331102,0.7032172686331102
0.49354613843988016,0.49354613843988016
0.30005141591734436,0.30005141591734436
0.16255195071644277,0.16255195071644277
0.06984869137284845,0.06984869137284845
-0.029698432754501135,-0.029698432754501135
-0.10311443679842146,-0.10311443679842146
-0.12862338735605477,-0.12862338735605477
-0.10311443679842146,-0.10311443679842146
-0.09440406343727836,-0.09440406343727836
-0.10311443679842146,-0.10311443679842146
-0.11369131873695235,-0.11369131873695235
-0.10311443679842146,-0.10311443679842146
-0.09938141964364584,-0.09938141964364584
-0.10311443679842146,-0.10311443679842146
-0.11182481015956454,-0.11182481015956454
-0.10311443679842146,-0.10311443679842146
-0.08009416434397186,-0.08009416434397186
-0.04525267089939951,-0.04525267089939951
-0.04089748421882797,-0.04089748421882797
-0.04525267089939951,-0.04525267089939951
0.06611567421807284,0.06611567421807284
0.47301454408861426,0.47301454408861426
1.1891316682797353,1.1891316682797353
2.0856779549516777,2.0856779549516777
3.033242142738886,3.033242142738886
3.9285440903592366,3.9285440903592366
4.461121204440557,4.461121204440557
4.216608580802754,4.216608580802754
3.131544927814644,3.131544927814644
1.7397516986091377,1.7397516986091377
0.6870408609624159,0.6870408609624159
0.18495005364509642,0.18495005364509642
0.0014100435352956103,0.0014100435352956103
-0.10311443679842146,-0.10311443679842146
-0.21199410381271006,-0.21199410381271006
-0.3333171613429174,-0.3333171613429174
-0.4857486951629214,-0.4857486951629214
-0.6213816517864352,-0.6213816517864352
-0.6860872824692125,-0.6860872824692125
-0.6792434176854572,-0.6792434176854572
-0.6680443662211304,-0.6680443662211304
-0.6792434176854572,-0.6792434176854572
-0.6947976558303556,-0.6947976558303556
-0.6792434176854572,-0.6792434176854572
-0.6481349413956604,-0.6481349413956604
-0.6213816517864352,-0.6213816517864352
-0.623870329889619,-0.623870329889619
-0.6213816517864352,-0.6213816517864352
-0.6058274136415369,-0.6058274136415369
-0.5635198858874133,-0.5635198858874133
-0.5299227314944328,-0.5299227314944328
-0.5062802895141872,-0.5062802895141872
-0.5006807637820239,-0.5006807637820239
-0.5062802895141872,-0.5062802895141872
-0.5156128324011263,-0.5156128324011263
-0.5062802895141872,-0.5062802895141872
-0.47766049132757427,-0.47766049132757427
-0.4484185236151653,-0.4484185236151653
-0.44281899788300194,-0.44281899788300194
-0.4484185236151653,-0.4484185236151653
-0.451529371244145,-0.451529371244145
-0.4484185236151653,-0.4484185236151653
-0.46521710081165557,-0.46521710081165557
-0.5062802895141872,-0.5062802895141872
-0.5653863944648011,-0.5653863944648011
-0.6213816517864352,-0.6213816517864352
-0.6773769091080694,-0.6773769091080694
-0.7364830140586832,-0.7364830140586832
-0.8167428828863588,-0.8167428828863588
-0.9094461422299531,-0.9094461422299531
-1.005260249202527,-1.005260249202527
-1.082409270401223,-1.082409270401223
-1.1458705620324083,-1.1458705620324083
-1.197510632673471,-1.197510632673471
-1.2429290080565742,-1.2429290080565742
-1.254750229046697,-1.254750229046697
-1.2223974137053084,-1.2223974137053084
-1.139648866774449,-1.139648866774449
-1.033257877863344,-1.033257877863344
-0.9094461422299531,-0.9094461422299531
-0.7763018637096231,-0.7763018637096231
-0.6213816517864352,-0.6213816517864352
-0.45215154076994096,-0.45215154076994096
-0.2760775649696914,-0.2760775649696914
-0.13484508261401415,-0.13484508261401415
-0.04525267089939951,-0.04525267089939951
0.0057652302158671545,0.0057652302158671545
0.06984869137284845,0.06984869137284845
0.1420203563651769,0.1420203563651769
0.18495005364509642,0.18495005364509642
0.17997269743872893,0.17997269743872893
0.18495005364509642,0.18495005364509642
0.2347236157087712,0.2347236157087712
0.30005141591734436,0.30005141591734436
0.3199608407428143,0.3199608407428143
0.30005141591734436,0.30005141591734436
0.2695651091533436,0.2695651091533436
0.24281181954411835,0.24281181954411835
0.20734815657375008,0.20734815657375008
0.18495005364509642,0.18495005364509642
0.18059486696452487,0.18059486696452487
0.18495005364509642,0.18495005364509642
0.17872835838713708,0.17872835838713708
0.18495005364509642,0.18495005364509642
0.19614910510942324,0.19614910510942324
0.18495005364509642,0.18495005364509642
0.1258439486944826,0.1258439486944826
0.06984869137284845,0.06984869137284845
0.05180577512476634,0.05180577512476634
0.06984869137284845,0.06984869137284845
0.07420387805341999,0.07420387805341999
0.06984869137284845,0.06984869137284845
0.06487133516648097,0.06487133516648097
0.06984869137284845,0.06984869137284845
0.0636269961148891,0.0636269961148891
0.06984869137284845,0.06984869137284845
0.10593452386901267,0.10593452386901267
0.18495005364509642,0.18495005364509642
0.27329812630811917,0.27329812630811917
0.35791318181636633,0.35791318181636633
0.4207523039217557,0.4207523039217557
0.47301454408861426,0.47301454408861426
0.5215437671006972,0.5215437671006972
0.5881159063608622,0.5881159063608622
0.6528215370436394,0.6528215370436394
0.7032172686331102,0.7032172686331102
0.743658287809846,0.743658287809846
0.8183186309053582,0.8183186309053582
0.9147549074037281,0.9147549074037281
0.9912817590766281,0.9912817590766281
1.019901557263241,1.019901557263241
1.04914352497565,1.04914352497565
1.0920732222555696,1.0920732222555696
1.106383121348876,1.106383121348876
1.0248789134696086,1.0248789134696086
0.8761803968043801,0.8761803968043801
0.7206380153553964,0.7206380153553964
0.5881159063608622,0.5881159063608622
0.4331956944376745,0.4331956944376745
0.24281181954411835,0.24281181954411835
0.05864963990852162,0.05864963990852162
-0.04525267089939951,-0.04525267089939951
-0.08507152055033934,-0.08507152055033934
-0.10311443679842146,-0.10311443679842146
-0.14417762550095317,-0.14417762550095317
-0.16035403317164748,-0.16035403317164748
-0.1416889473977694,-0.1416889473977694
-0.10311443679842146,-0.10311443679842146
-0.09627057201466617,-0.09627057201466617
-0.10311443679842146,-0.10311443679842146
-0.09191538533409463,-0.09191538533409463
-0.04525267089939951,-0.04525267089939951
-0.006678160300051543,-0.006678160300051543
0.011986925473826505,0.011986925473826505
0.031274180773500485,0.031274180773500485
0.06984869137284845,0.06984869137284845
0.04433974081521512,0.04433974081521512
-0.10311443679842146,-0.10311443679842146
-0.2636341744537727,-0.2636341744537727
-0.16035403317164748,-0.16035403317164748
0.3597796903937541,0.3597796903937541
1.221484483621124,1.221484483621124
2.228154776358947,2.228154776358947
3.180074150826727,3.180074150826727
3.751225775507395,3.751225775507395
3.5832400035424925,3.5832400035424925
2.6381644938584676,2.6381644938584676
1.3944476117923938,1.3944476117923938
0.4163971172411842,0.4163971172411842
-0.10311443679842146,-0.10311443679842146
-0.33642800897189706,-0.33642800897189706
-0.4484185236151653,-0.4484185236151653
-0.4950812380498605,-0.4950812380498605
-0.5062802895141872,-0.5062802895141872
-0.5498321563199027,-0.5498321563199027
-0.6213816517864352,-0.6213816517864352
-0.6736438919532938,-0.6736438919532938
-0.6792434176854572,-0.6792434176854572
-0.6742660614790897,-0.6742660614790897
-0.6792434176854572,-0.6792434176854572
-0.6879537910466003,-0.6879537910466003
-0.6792434176854572,-0.6792434176854572
-0.6705330443243142,-0.6705330443243142
-0.6792434176854572,-0.6792434176854572
-0.7159514197074174,-0.7159514197074174
-0.7364830140586832,-0.7364830140586832
-0.7252839625943563,-0.7252839625943563
-0.6792434176854572,-0.6792434176854572
-0.643157585189293,-0.643157585189293
-0.6213816517864352,-0.6213816517864352
-0.6014722269609654,-0.6014722269609654
-0.5635198858874133,-0.5635198858874133
-0.5255675448138613,-0.5255675448138613
-0.5062802895141872,-0.5062802895141872
-0.5075246285657792,-0.5075246285657792
-0.5062802895141872,-0.5062802895141872
-0.5006807637820239,-0.5006807637820239
-0.5062802895141872,-0.5062802895141872
-0.5342779181750044,-0.5342779181750044
-0.5635198858874133,-0.5635198858874133
-0.5896510059708425,-0.5896510059708425
-0.6213816517864352,-0.6213816517864352
-0.6773769091080694,-0.6773769091080694
-0.7364830140586832,-0.7364830140586832
-0.7924782713803173,-0.7924782713803173
-0.8515843763309312,-0.8515843763309312
-0.9361994318391783,-0.9361994318391783
-1.024547504502201,-1.024547504502201
-1.0942304913913459,-1.0942304913913459
-1.139648866774449,-1.139648866774449
-1.1925332764671035,-1.1925332764671035
-1.254750229046697,-1.254750229046697
-1.3063902996877597,-1.3063902996877597
-1.312611994945719,-1.312611994945719
-1.2895917224912694,-1.2895917224912694
-1.254750229046697,-1.254750229046697
-1.2006214803024506,-1.2006214803024506
-1.082409270401223,-1.082409270401223
-0.9100683117557491,-0.9100683117557491
-0.7364830140586832,-0.7364830140586832
-0.5971170402803938,-0.5971170402803938
-0.4484185236151653,-0.4484185236151653
-0.26985586971173203,-0.26985586971173203
-0.10311443679842146,-0.10311443679842146
-0.015388533661194633,-0.015388533661194633
0.011986925473826505,0.011986925473826505
0.03251851982509236,0.03251851982509236
0.06984869137284845,0.06984869137284845
0.08602509904354276,0.08602509904354276
0.06984869137284845,0.06984869137284845
0.0350071979282761,0.0350071979282761
0.011986925473826505,0.011986925473826505
0.004520891164275285,0.004520891164275285
0.011986925473826505,0.011986925473826505
0.016964281680193982,0.016964281680193982
0.011986925473826505,0.011986925473826505
0.0014100435352956103,0.0014100435352956103
0.011986925473826505,0.011986925473826505
0.041228893186235446,0.041228893186235446
0.06984869137284845,0.06984869137284845
0.07295953900182812,0.07295953900182812
0.06984869137284845,0.06984869137284845
0.06673784374386878,0.06673784374386878
0.06984869137284845,0.06984869137284845
0.06549350469227691,0.06549350469227691
0.06984869137284845,0.06984869137284845
0.07233736947603218,0.07233736947603218
0.06984869137284845,0.06984869137284845
0.054916622753746015,0.054916622753746015
0.06984869137284845,0.06984869137284845
0.12148876201391105,0.12148876201391105
0.18495005364509642,0.18495005364509642
0.20299296989317853,0.20299296989317853
0.18495005364509642,0.18495005364509642
0.1650406288196265,0.1650406288196265
0.18495005364509642,0.18495005364509642
0.2328571071313834,0.2328571071313834
0.30005141591734436,0.30005141591734436
0.3747117590128566,0.3747117590128566
0.47301454408861426,0.47301454408861426
0.5868715673092704,0.5868715673092704
0.7032172686331102,0.7032172686331102
0.7822327984091939,0.7822327984091939
0.8183186309053582,0.8183186309053582
0.8338728690502565,0.8338728690502565
0.8761803968043801,0.8761803968043801
0.9390195189097695,0.9390195189097695
0.9912817590766281,0.9912817590766281
0.9993699629119752,0.9993699629119752
0.9912817590766281,0.9912817590766281
0.9887930809734443,0.9887930809734443
0.9912817590766281,0.9912817590766281
0.9576846046836476,0.9576846046836476
0.8761803968043801,0.8761803968043801
0.7455247963872338,0.7455247963872338
0.5881159063608622,0.5881159063608622
0.41204193056061267,0.41204193056061267
0.24281181954411835,0.24281181954411835
0.08602509904354276,0.08602509904354276
-0.04525267089939951,-0.04525267089939951
-0.15413233791368813,-0.15413233791368813
-0.2182157990706694,-0.2182157990706694
-0.25616814014422146,-0.25616814014422146
-0.2760775649696914,-0.2760775649696914
-0.3102968888884678,-0.3102968888884678
-0.3333171613429174,-0.3333171613429174
-0.3432718737556523,-0.3432718737556523
-0.3333171613429174,-0.3333171613429174
-0.3314506527655296,-0.3314506527655296
-0.3333171613429174,-0.3333171613429174
-0.33953885660087674,-0.33953885660087674
-0.3333171613429174,-0.3333171613429174
-0.32958414418814175,-0.32958414418814175
-0.3333171613429174,-0.3333171613429174
-0.37313601099385724,-0.37313601099385724
-0.4484185236151653,-0.4484185236151653
-0.5311670705460246,-0.5311670705460246
-0.5062802895141872,-0.5062802895141872
-0.22941485053499625,-0.22941485053499625
0.41515277818959234,0.41515277818959234
1.3932032727408021,1.3932032727408021
2.4888438076674433,2.4888438076674433
3.3287726674919553,3.3287726674919553
3.5832400035424925,3.5832400035424925
3.140255301175787,3.140255301175787
2.2007793172239256,2.2007793172239256
1.1225595290195702,1.1225595290195702
0.24281181954411835,0.24281181954411835
-0.2760775649696914,-0.2760775649696914
-0.4484185236151653,-0.4484185236151653
-0.4465520150377775,-0.4465520150377775
-0.4484185236151653,-0.4484185236151653
-0.5293005619686368,-0.5293005619686368
-0.6213816517864352,-0.6213816517864352
-0.6668000271695385,-0.6668000271695385
-0.6792434176854572,-0.6792434176854572
-0.7091075549236621,-0.7091075549236621
-0.7364830140586832,-0.7364830140586832
-0.7246617930685605,-0.7246617930685605
-0.6792434176854572,-0.6792434176854572
-0.6599561623857833,-0.6599561623857833
-0.6792434176854572,-0.6792434176854572
-0.7016415206141109,-0.7016415206141109
-0.6792434176854572,-0.6792434176854572
-0.6406689070861092,-0.6406689070861092
-0.6213816517864352,-0.6213816517864352
-0.6481349413956604,-0.6481349413956604
-0.6792434176854572,-0.6792434176854572
-0.6891981300981922,-0.6891981300981922
-0.6792434176854572,-0.6792434176854572
-0.6761325700564775,-0.6761325700564775
-0.6792434176854572,-0.6792434176854572
-0.6655556881179466,-0.6655556881179466
-0.6213816517864352,-0.6213816517864352
-0.5784519545065158,-0.5784519545065158
-0.5635198858874133,-0.5635198858874133
-0.5709859201969645,-0.5709859201969645
-0.5635198858874133,-0.5635198858874133
-0.5485878172683109,-0.5485878172683109
-0.5635198858874133,-0.5635198858874133
-0.6388023985087214,-0.6388023985087214
-0.7364830140586832,-0.7364830140586832
-0.8273197648248897,-0.8273197648248897
-0.9094461422299531,-0.9094461422299531
-1.0015272320477515,-1.0015272320477515
-1.082409270401223,-1.082409270401223
-1.1440040534550207,-1.1440040534550207
-1.197510632673471,-1.197510632673471
-1.2615940938304522,-1.2615940938304522
-1.312611994945719,-1.312611994945719
-1.3449648102871075,-1.3449648102871075
-1.3698515913189449,-1.3698515913189449
-1.3953605418765782,-1.3953605418765782
-1.3698515913189449,-1.3698515913189449
-1.2734153148205751,-1.2734153148205751
-1.139648866774449,-1.139648866774449
-1.025791843553793,-1.025791843553793
-0.9094461422299531,-0.9094461422299531
-0.7408382007392548,-0.7408382007392548
-0.5062802895141872,-0.5062802895141872
-0.2748332259180995,-0.2748332259180995
-0.10311443679842146,-0.10311443679842146
-0.0023229736194799993,-0.0023229736194799993
0.06984869137284845,0.06984869137284845
0.13206564395244194,0.13206564395244194
0.18495005364509642,0.18495005364509642
0.21605852993489316,0.21605852993489316
0.24281181954411835,0.24281181954411835
0.2720537872565273,0.2720537872565273
0.30005141591734436,0.30005141591734436
0.3056509416495078,0.3056509416495078
0.30005141591734436,0.30005141591734436
0.2969405682883647,0.2969405682883647
0.30005141591734436,0.30005141591734436
0.2832528387208541,0.2832528387208541
0.24281181954411835,0.24281181954411835
0.19739344416101512,0.19739344416101512
0.18495005364509642,0.18495005364509642
0.19179391842885168,0.19179391842885168
0.18495005364509642,0.18495005364509642
0.13455432205562567,0.13455432205562567
0.06984869137284845,0.06984869137284845
0.021941637886561463,0.021941637886561463
0.011986925473826505,0.011986925473826505
0.011986925473826505,0.011986925473826505
0.011986925473826505,0.011986925473826505
0.0057652302158671545,0.0057652302158671545
0.011986925473826505,0.011986925473826505
0.014475603577010243,0.014475603577010243
0.011986925473826505,0.011986925473826505
0.0014100435352956103,0.0014100435352956103
0.011986925473826505,0.011986925473826505
0.0368737065056639,0.0368737065056639
0.06984869137284845,0.06984869137284845
0.10655669339480861,0.10655669339480861
0.18495005364509642,0.18495005364509642
0.30005141591734436,0.30005141591734436
0.41515277818959234,0.41515277818959234
0.48359142602714517,0.48359142602714517
0.5302541404618403,0.5302541404618403
0.5962041101962094,0.5962041101962094
0.7032172686331102,0.7032172686331102
0.8214294785343378,0.8214294785343378
0.9334199931776062,0.9334199931776062
1.0267454220469963,1.0267454220469963
1.106383121348876,1.106383121348876
1.1673557348768777,1.1673557348768777
1.221484483621124,1.221484483621124
1.2631698418494517,1.2631698418494517
1.279346249520146,1.279346249520146
1.2289505179306752,1.2289505179306752
1.106383121348876,1.106383121348876
0.9334199931776062,0.9334199931776062
0.7610790345321321,0.7610790345321321
0.5924710930414337,0.5924710930414337
0.41515277818959234,0.41515277818959234
0.22476890329603624,0.22476890329603624
0.06984869137284845,0.06984869137284845
-0.03592012801246049,-0.03592012801246049
-0.10311443679842146,-0.10311443679842146
-0.17466393226495397,-0.17466393226495397
-0.2182157990706694,-0.2182157990706694
-0.23190352863817998,-0.23190352863817998
-0.2182157990706694,-0.2182157990706694
-0.2182157990706694,-0.2182157990706694
-0.2182157990706694,-0.2182157990706694
-0.2182157990706694,-0.2182157990706694
-0.2182157990706694,-0.2182157990706694
-0.23190352863817998,-0.23190352863817998
-0.2182157990706694,-0.2182157990706694
-0.164709219852219,-0.164709219852219
-0.10311443679842146,-0.10311443679842146
-0.11742433589172796,-0.11742433589172796
-0.2182157990706694,-0.2182157990706694
-0.3264732965591621,-0.3264732965591621
-0.2760775649696914,-0.2760775649696914
0.08042557331137934,0.08042557331137934
0.8183186309053582,0.8183186309053582
1.852364382778202,1.852364382778202
2.949249256756435,2.949249256756435
3.7742460479618445,3.7742460479618445
4.043645452631485,4.043645452631485
3.6429682780189023,3.6429682780189023
2.719046532211939,2.719046532211939
1.5997635553050524,1.5997635553050524
0.6459776722598842,0.6459776722598842
0.04620624939260293,0.04620624939260293
-0.2182157990706694,-0.2182157990706694
-0.31527424509483526,-0.31527424509483526
-0.3911789272419393,-0.3911789272419393
-0.5050359504625954,-0.5050359504625954
-0.6213816517864352,-0.6213816517864352
-0.7041301987172945,-0.7041301987172945
-0.7364830140586832,-0.7364830140586832
-0.7427047093166426,-0.7427047093166426
-0.7364830140586832,-0.7364830140586832
-0.7358608445328872,-0.7358608445328872
-0.7364830140586832,-0.7364830140586832
-0.7427047093166426,-0.7427047093166426
-0.7364830140586832,-0.7364830140586832
-0.7184400978106011,-0.7184400978106011
-0.6792434176854572,-0.6792434176854572
-0.6475127718698646,-0.6475127718698646
-0.6213816517864352,-0.6213816517864352
-0.6027165660125572,-0.6027165660125572
-0.5635198858874133,-0.5635198858874133
-0.5243232057622694,-0.5243232057622694
-0.5062802895141872,-0.5062802895141872
-0.5131241542979426,-0.5131241542979426
-0.5062802895141872,-0.5062802895141872
-0.4745496436985946,-0.4745496436985946
-0.4484185236151653,-0.4484185236151653
-0.46708360938904336,-0.46708360938904336
-0.5062802895141872,-0.5062802895141872
-0.5237010362364735,-0.5237010362364735
-0.5062802895141872,-0.5062802895141872
-0.4925925599466767,-0.4925925599466767
-0.5062802895141872,-0.5062802895141872
-0.5398774439071677,-0.5398774439071677
-0.5635198858874133,-0.5635198858874133
-0.5859179888160669,-0.5859179888160669
-0.6213816517864352,-0.6213816517864352
-0.6804877567370491,-0.6804877567370491
-0.7364830140586832,-0.7364830140586832
-0.7893674237513377,-0.7893674237513377
-0.8515843763309312,-0.8515843763309312
-0.9424211270971377,-0.9424211270971377
-1.024547504502201,-1.024547504502201
-1.072454557988488,-1.072454557988488
-1.082409270401223,-1.082409270401223
-1.0867644570817945,-1.0867644570817945
-1.082409270401223,-1.082409270401223
-1.0513007941114263,-1.0513007941114263
-0.9666857386031791,-0.9666857386031791
-0.8403853248666043,-0.8403853248666043
-0.6792434176854572,-0.6792434176854572
-0.5069024590399832,-0.5069024590399832
-0.3333171613429174,-0.3333171613429174
-0.18088562752291332,-0.18088562752291332
-0.04525267089939951,-0.04525267089939951
0.07233736947603218,0.07233736947603218
0.18495005364509642,0.18495005364509642
0.2813863301434663,0.2813863301434663
0.35791318181636633,0.35791318181636633
0.3983542009931021,0.3983542009931021
0.41515277818959234,0.41515277818959234
0.41515277818959234,0.41515277818959234
0.41515277818959234,0.41515277818959234
0.4126641000864086,0.4126641000864086
0.41515277818959234,0.41515277818959234
0.4145306086637964,0.4145306086637964
0.41515277818959234,0.41515277818959234
0.41204193056061267,0.41204193056061267
0.41515277818959234,0.41515277818959234
0.4163971172411842,0.4163971172411842
0.41515277818959234,0.41515277818959234
0.408931082931633,0.408931082931633
0.41515277818959234,0.41515277818959234
0.4213744734475517,0.4213744734475517
0.41515277818959234,0.41515277818959234
0.3827999628482037,0.3827999628482037
0.35791318181636633,0.35791318181636633
0.3492028084552232,0.3492028084552232
0.35791318181636633,0.35791318181636633
0.35604667323897854,0.35604667323897854
0.35791318181636633,0.35791318181636633
0.35729101229057036,0.35729101229057036
0.35791318181636633,0.35791318181636633
0.3467141303520395,0.3467141303520395
0.35791318181636633,0.35791318181636633
0.40084287909628585,0.40084287909628585
0.47301454408861426,0.47301454408861426
0.5346093271424118,0.5346093271424118
0.5881159063608622,0.5881159063608622
0.6391338074761289,0.6391338074761289
0.7032172686331102,0.7032172686331102
0.7617012040579281,0.7617012040579281
0.8183186309053582,0.8183186309053582
0.8848907701655232,0.8848907701655232
0.9912817590766281,0.9912817590766281
1.114471325184223,1.114471325184223
1.221484483621124,1.221484483621124
1.2861901143039012,1.2861901143039012
1.336585845893372,1.336585845893372
1.3788933736474955,1.3788933736474955
1.3944476117923938,1.3944476117923938
1.3396966935223515,1.3396966935223515
1.221484483621124,1.221484483621124
1.058476067862589,1.058476067862589
0.8761803968043801,0.8761803968043801
0.6714866228175175,0.6714866228175175
0.47301454408861426,0.47301454408861426
0.30316226354632403,0.30316226354632403
0.18495005364509642,0.18495005364509642
0.0903802857241143,0.0903802857241143
0.011986925473826505,0.011986925473826505
-0.06453992619907349,-0.06453992619907349
-0.10311443679842146,-0.10311443679842146
-0.1161799968401361,-0.1161799968401361
-0.10311443679842146,-0.10311443679842146
-0.10124792822103365,-0.10124792822103365
-0.10311443679842146,-0.10311443679842146
-0.1093361320563808,-0.1093361320563808
-0.10311443679842146,-0.10311443679842146
-0.10311443679842146,-0.10311443679842146
-0.10311443679842146,-0.10311443679842146
-0.09191538533409463,-0.09191538533409463
-0.04525267089939951,-0.04525267089939951
-0.00045646504209219445,-0.00045646504209219445
0.011986925473826505,0.011986925473826505
0.024430315989745204,0.024430315989745204
0.18495005364509642,0.18495005364509642
0.6273125864860062,0.6273125864860062
1.3944476117923938,1.3944476117923938
2.398629226427033,2.398629226427033
3.4675164717444487,3.4675164717444487
4.326110417342839,4.326110417342839
4.677014029891747,4.677014029891747
4.351619367900472,4.351619367900472
3.4675164717444487,3.4675164717444487
2.347611325311766,2.347611325311766
1.336585845893372,1.336585845893372
0.6123805178669037,0.6123805178669037
0.18495005364509642,0.18495005364509642
-0.05520738331213447,-0.05520738331213447
-0.2182157990706694,-0.2182157990706694
-0.3706473328906735,-0.3706473328906735
-0.5062802895141872,-0.5062802895141872
-0.6120491088994963,-0.6120491088994963
-0.6792434176854572,-0.6792434176854572
-0.7209287759137848,-0.7209287759137848
-0.7364830140586832,-0.7364830140586832
-0.7395938616876628,-0.7395938616876628
-0.7364830140586832,-0.7364830140586832
-0.7408382007392548,-0.7408382007392548
-0.7364830140586832,-0.7364830140586832
-0.719684436862193,-0.719684436862193
-0.6792434176854572,-0.6792434176854572
-0.6456462632924767,-0.6456462632924767
-0.6213816517864352,-0.6213816517864352
-0.6213816517864352,-0.6213816517864352
-0.6213816517864352,-0.6213816517864352
-0.624492499415415,-0.624492499415415
-0.6213816517864352,-0.6213816517864352
-0.6220038213122312,-0.6220038213122312
-0.6213816517864352,-0.6213816517864352
-0.623248160363823,-0.623248160363823
-0.6213816517864352,-0.6213816517864352
-0.6220038213122312,-0.6220038213122312
-0.6213816517864352,-0.6213816517864352
-0.6220038213122312,-0.6220038213122312
-0.6213816517864352,-0.6213816517864352
-0.6394245680345173,-0.6394245680345173
-0.6792434176854572,-0.6792434176854572
-0.7227952844911726,-0.7227952844911726
-0.7364830140586832,-0.7364830140586832
-0.7458155569456222,-0.7458155569456222
-0.7943447799577051,-0.7943447799577051
-0.8901588869302791,-0.8901588869302791
-0.9666857386031791,-0.9666857386031791
-0.9977942148929758,-0.9977942148929758
-1.024547504502201,-1.024547504502201
-1.102940864752489,-1.102940864752489
-1.197510632673471,-1.197510632673471
-1.2516393814177174,-1.2516393814177174
-1.254750229046697,-1.254750229046697
-1.254750229046697,-1.254750229046697
-1.254750229046697,-1.254750229046697
-1.227374769911676,-1.227374769911676
-1.139648866774449,-1.139648866774449
-1.0089932663573027,-1.0089932663573027
-0.8515843763309312,-0.8515843763309312
-0.6842207738918247,-0.6842207738918247
-0.5062802895141872,-0.5062802895141872
-0.3457605518588361,-0.3457605518588361
-0.2182157990706694,-0.2182157990706694
-0.12862338735605477,-0.12862338735605477
-0.04525267089939951,-0.04525267089939951
0.04247323223782731,0.04247323223782731
0.12708828774607447,0.12708828774607447
0.17437317170656552,0.17437317170656552
0.18495005364509642,0.18495005364509642
0.179350527912933,0.179350527912933
0.18495005364509642,0.18495005364509642
0.1899274098514639,0.1899274098514639
0.18495005364509642,0.18495005364509642
0.17312883265497364,0.17312883265497364
0.18495005364509642,0.18495005364509642
0.21543636040909722,0.21543636040909722
0.24281181954411835,0.24281181954411835
0.24405615859571023,0.24405615859571023
0.24281181954411835,0.24281181954411835
0.2453004976473021,0.2453004976473021
0.24281181954411835,0.24281181954411835
0.21232551278011755,0.21232551278011755
0.18495005364509642,0.18495005364509642
0.17686184980974926,0.17686184980974926
0.18495005364509642,0.18495005364509642
0.1669071373970143,0.1669071373970143
0.12708828774607447,0.12708828774607447
0.0847807599919509,0.0847807599919509
0.06984869137284845,0.06984869137284845
0.06673784374386878,0.06673784374386878
0.06984869137284845,0.06984869137284845
0.06300482658909316,0.06300482658909316
0.06984869137284845,0.06984869137284845
0.102823676240033,0.102823676240033
0.18495005364509642,0.18495005364509642
0.2969405682883647,0.2969405682883647
0.41515277818959234,0.41515277818959234
0.494790477491472,0.494790477491472
0.5302541404618403,0.5302541404618403
0.5445640395551468,0.5445640395551468
0.5881159063608622,0.5881159063608622
0.6665092666111501,0.6665092666111501
0.7610790345321321,0.7610790345321321
0.8444497509887874,0.8444497509887874
0.9334199931776062,0.9334199931776062
1.0267454220469963,1.0267454220469963
1.106383121348876,1.106383121348876
1.1468241405256119,1.1468241405256119
1.1642448872478979,1.1642448872478979
1.1567788529383467,1.1567788529383467
1.106383121348876,1.106383121348876
0.9844378942928728,0.9844378942928728
0.8183186309053582,0.8183186309053582
0.6416224855793127,0.6416224855793127
0.47301454408861426,0.47301454408861426
0.2956962292367728,0.2956962292367728
0.12708828774607447,0.12708828774607447
-0.014144194609602763,-0.014144194609602763
-0.10311443679842146,-0.10311443679842146
-0.17030874558438241,-0.17030874558438241
-0.2182157990706694,-0.2182157990706694
-0.2642563439795686,-0.2642563439795686
-0.2760775649696914,-0.2760775649696914
-0.2766997344954873,-0.2766997344954873
-0.2760775649696914,-0.2760775649696914
-0.3015865155273247,-0.3015865155273247
-0.3333171613429174,-0.3333171613429174
-0.3532265861683873,-0.3532265861683873
-0.3333171613429174,-0.3333171613429174
-0.30096434600152877,-0.30096434600152877
-0.2760775649696914,-0.2760775649696914
-0.25990115729899704,-0.25990115729899704
-0.2182157990706694,-0.2182157990706694
-0.17030874558438241,-0.17030874558438241
-0.10311443679842146,-0.10311443679842146
0.12024442296231919,0.12024442296231919
0.7032172686331102,0.7032172686331102
1.6265168449142777,1.6265168449142777
2.661184766312917,2.661184766312917
3.6230588531934327,3.6230588531934327
4.44681130534725,4.44681130534725
4.878596956249629,4.878596956249629
4.504673071246272,4.504673071246272
3.2746439187477088,3.2746439187477088
1.7976134645081596,1.7976134645081596
0.76294554310952,0.76294554310952
0.30005141591734436,0.30005141591734436
0.06922652184705251,0.06922652184705251
-0.16035403317164748,-0.16035403317164748
-0.3694029938390816,-0.3694029938390816
-0.5062802895141872,-0.5062802895141872
-0.6226259908380272,-0.6226259908380272
-0.7364830140586832,-0.7364830140586832
-0.8198537305153385,-0.8198537305153385
-0.8515843763309312,-0.8515843763309312
-0.8596725801662783,-0.8596725801662783
-0.8515843763309312,-0.8515843763309312
-0.8447405115471759,-0.8447405115471759
-0.8515843763309312,-0.8515843763309312
-0.8714938011564011,-0.8714938011564011
-0.8515843763309312,-0.8515843763309312
-0.7955891190092971,-0.7955891190092971
-0.7364830140586832,-0.7364830140586832
-0.7283948102233361,-0.7283948102233361
-0.7364830140586832,-0.7364830140586832
-0.7420825397908466,-0.7420825397908466
-0.7364830140586832,-0.7364830140586832
-0.7402160312134588,-0.7402160312134588
-0.7364830140586832,-0.7364830140586832
-0.7128405720784377,-0.7128405720784377
-0.6792434176854572,-0.6792434176854572
-0.6686665357469262,-0.6686665357469262
-0.6792434176854572,-0.6792434176854572
-0.6879537910466003,-0.6879537910466003
-0.6792434176854572,-0.6792434176854572
-0.67115521385011,-0.67115521385011
-0.6792434176854572,-0.6792434176854572
-0.7072410463462743,-0.7072410463462743
-0.7364830140586832,-0.7364830140586832
-0.7651028122452962,-0.7651028122452962
-0.7943447799577051,-0.7943447799577051
-0.8441183420213799,-0.8441183420213799
-0.9094461422299531,-0.9094461422299531
-0.9766404510159141,-0.9766404510159141
-1.024547504502201,-1.024547504502201
-1.07369889704008,-1.07369889704008
-1.139648866774449,-1.139648866774449
-1.215553548921553,-1.215553548921553
-1.254750229046697,-1.254750229046697
-1.2572389071498806,-1.2572389071498806
-1.254750229046697,-1.254750229046697
-1.2703044671915953,-1.2703044671915953
-1.254750229046697,-1.254750229046697
-1.1713795125900417,-1.1713795125900417
-1.024547504502201,-1.024547504502201
-0.8590504106404824,-0.8590504106404824
-0.6792434176854572,-0.6792434176854572
-0.4957034075756564,-0.4957034075756564
-0.3333171613429174,-0.3333171613429174
-0.22817051148340436,-0.22817051148340436
-0.16035403317164748,-0.16035403317164748
-0.10498094537580926,-0.10498094537580926
-0.04525267089939951,-0.04525267089939951
0.008253908319050894,0.008253908319050894
0.06984869137284845,0.06984869137284845
0.13455432205562567,0.13455432205562567
0.18495005364509642,0.18495005364509642
0.19490476605783136,0.19490476605783136
0.18495005364509642,0.18495005364509642
0.17872835838713708,0.17872835838713708
0.18495005364509642,0.18495005364509642
0.18619439269668828,0.18619439269668828
0.18495005364509642,0.18495005364509642
0.1830835450677086,0.1830835450677086
0.18495005364509642,0.18495005364509642
0.18246137554191266,0.18246137554191266
0.18495005364509642,0.18495005364509642
0.18681656222248422,0.18681656222248422
0.18495005364509642,0.18495005364509642
0.16068544213905495,0.16068544213905495
0.12708828774607447,0.12708828774607447
0.09100245524991024,0.09100245524991024
0.06984869137284845,0.06984869137284845
0.059893978960113496,0.059893978960113496
