ECG,PPG
0.38908349346065196,0.38908349346065196
0.6997623435907583,0.6997623435907583
0.43474757641940776,0.43474757641940776
0.2887855969619562,0.2887855969619562
0.43474757641940776,0.43474757641940776
0.5244448822312495,0.5244448822312495
0.43474757641940776,0.43474757641940776
0.36951317219261376,0.36951317219261376
0.43474757641940776,0.43474757641940776
0.4942739702763573,0.4942739702763573
0.47959622932532864,0.47959622932532864
0.45676418784595074,0.45676418784595074
0.47959622932532864,0.47959622932532864
0.5065054210688811,0.5065054210688811
0.5244448822312495,0.5244448822312495
0.5546157941861417,0.5546157941861417
0.6141421880430912,0.6141421880430912
0.6728531518472057,0.6728531518472057
0.7046549239077678,0.7046549239077678
0.7038394938549329,0.7038394938549329
0.7046549239077678,0.7046549239077678
0.7103629342776123,0.7103629342776123
0.7046549239077678,0.7046549239077678
0.6589908409490121,0.6589908409490121
0.6141421880430912,0.6141421880430912
0.6010953071977324,0.6010953071977324
0.6141421880430912,0.6141421880430912
0.6035415973562371,0.6035415973562371
0.5692935351371703,0.5692935351371703
0.5325991827595987,0.5325991827595987
0.5244448822312495,0.5244448822312495
0.5244448822312495,0.5244448822312495
0.5244448822312495,0.5244448822312495
0.5171060117557351,0.5171060117557351
0.5244448822312495,0.5244448822312495
0.530152892601094,0.530152892601094
0.5244448822312495,0.5244448822312495
0.49672026043486206,0.49672026043486206
0.47959622932532864,0.47959622932532864
0.4763345091139889,0.4763345091139889
0.47959622932532864,0.47959622932532864
0.4592104780044555,0.4592104780044555
0.43474757641940776,0.43474757641940776
0.421700695574049,0.421700695574049
0.43474757641940776,0.43474757641940776
0.4396401567364173,0.4396401567364173
0.43474757641940776,0.43474757641940776
0.4225161256268839,0.4225161256268839
0.43474757641940776,0.43474757641940776
0.4559487577931158,0.4559487577931158
0.47959622932532864,0.47959622932532864
0.4934585402235223,0.4934585402235223
0.5244448822312495,0.5244448822312495
0.5684781050843354,0.5684781050843354
0.6141421880430912,0.6141421880430912
0.637789659575304,0.637789659575304
0.659806271001847,0.659806271001847
0.6834537425340598,0.6834537425340598
0.7046549239077678,0.7046549239077678
0.6907926130095741,0.6907926130095741
0.659806271001847,0.659806271001847
0.6271890688884499,0.6271890688884499
0.6141421880430912,0.6141421880430912
0.5962027268807228,0.5962027268807228
0.5692935351371703,0.5692935351371703
0.5358609029709385,0.5358609029709385
0.5244448822312495,0.5244448822312495
0.5236294521784145,0.5236294521784145
0.5244448822312495,0.5244448822312495
0.5162905817029002,0.5162905817029002
0.5244448822312495,0.5244448822312495
0.5342300428652685,0.5342300428652685
0.5244448822312495,0.5244448822312495
0.4763345091139889,0.4763345091139889
0.43474757641940776,0.43474757641940776
0.420885265521214,0.420885265521214
0.43474757641940776,0.43474757641940776
0.43637843652507763,0.43637843652507763
0.43474757641940776,0.43474757641940776
0.432301286260903,0.432301286260903
0.43474757641940776,0.43474757641940776
0.41436182509853464,0.41436182509853464
0.38908349346065196,0.38908349346065196
0.3760366126152932,0.3760366126152932
0.38908349346065196,0.38908349346065196
0.3964223639361663,0.3964223639361663
0.38908349346065196,0.38908349346065196
0.3744057525096233,0.3744057525096233
0.38908349346065196,0.38908349346065196
0.41762354530987433,0.41762354530987433
0.43474757641940776,0.43474757641940776
0.4241469857325537,0.4241469857325537
0.43474757641940776,0.43474757641940776
0.475519079061154,0.475519079061154
0.5244448822312495,0.5244448822312495
0.5334146128124336,0.5334146128124336
0.5244448822312495,0.5244448822312495
0.51792144180857,0.51792144180857
0.5244448822312495,0.5244448822312495
0.5073208511217161,0.5073208511217161
0.47959622932532864,0.47959622932532864
0.4469790272119316,0.4469790272119316
0.43474757641940776,0.43474757641940776
0.4233315556797188,0.4233315556797188
0.43474757641940776,0.43474757641940776
0.46410305832146503,0.46410305832146503
0.5244448822312495,0.5244448822312495
0.6019107372505673,0.6019107372505673
0.7046549239077678,0.7046549239077678
0.8057682504592985,0.8057682504592985
0.8848649655842862,0.8848649655842862
0.9378679190185563,0.9378679190185563
1.0194109243020488,1.0194109243020488
1.1539568830198113,1.1539568830198113
1.3341669246963297,1.3341669246963297
1.537209007852226,1.537209007852226
1.7842843138612081,1.7842843138612081
2.0835471432516255,2.0835471432516255
2.4146117447026048,2.4146117447026048
2.7301831751497208,2.7301831751497208
3.000090522638081,3.000090522638081
3.149314222306872,3.149314222306872
3.0897878284499227,3.0897878284499227
2.7742163980028067,2.7742163980028067
2.280065785984842,2.280065785984842
1.7149727593702395,1.7149727593702395
1.1547723130726462,1.1547723130726462
0.6084341776732467,0.6084341776732467
0.11917614597229191,0.11917614597229191
-0.2534753881732687,-0.2534753881732687
-0.4654872019103491,-0.4654872019103491
-0.5576307978806956,-0.5576307978806956
-0.6008485906809465,-0.6008485906809465
-0.6717910052775851,-0.6717910052775851
-0.781058632357465,-0.781058632357465
-0.909896580705383,-0.909896580705383
-1.0061173269399042,-1.0061173269399042
-1.0436271093703107,-1.0436271093703107
-1.0061173269399042,-1.0061173269399042
-0.9245743216564117,-0.9245743216564117
-0.8259072852633857,-0.8259072852633857
-0.7378408395572139,-0.7378408395572139
-0.6456972435868674,-0.6456972435868674
-0.5666005284618798,-0.5666005284618798
-0.5111512848691049,-0.5111512848691049
-0.5029969843407556,-0.5029969843407556
-0.5111512848691049,-0.5111512848691049
-0.5152284351332795,-0.5152284351332795
-0.5111512848691049,-0.5111512848691049
-0.5250135957672986,-0.5250135957672986
-0.5559999377750258,-0.5559999377750258
-0.5886171398884227,-0.5886171398884227
-0.6008485906809465,-0.6008485906809465
-0.6024794507866165,-0.6024794507866165
-0.6008485906809465,-0.6008485906809465
-0.6041103108922863,-0.6041103108922863
-0.6008485906809465,-0.6008485906809465
-0.5984023005224418,-0.5984023005224418
-0.6008485906809465,-0.6008485906809465
-0.6081874611564609,-0.6081874611564609
-0.6008485906809465,-0.6008485906809465
-0.5788319792544037,-0.5788319792544037
-0.5559999377750258,-0.5559999377750258
-0.552738217563686,-0.552738217563686
-0.5559999377750258,-0.5559999377750258
-0.5453993470881717,-0.5453993470881717
-0.5111512848691049,-0.5111512848691049
-0.4785340827557079,-0.4785340827557079
-0.4654872019103491,-0.4654872019103491
-0.47119521228019356,-0.47119521228019356
-0.4654872019103491,-0.4654872019103491
-0.4467323106951458,-0.4467323106951458
-0.4206385490044282,-0.4206385490044282
-0.40106822773639006,-0.40106822773639006
-0.3757898960985074,-0.3757898960985074
-0.3480652743021199,-0.3480652743021199
-0.3309412431925865,-0.3309412431925865
-0.34561898414361514,-0.34561898414361514
-0.3757898960985074,-0.3757898960985074
-0.40514537800056466,-0.40514537800056466
-0.4206385490044282,-0.4206385490044282
-0.4418397303781363,-0.4418397303781363
-0.4654872019103491,-0.4654872019103491
-0.4817958029670476,-0.4817958029670476
-0.4654872019103491,-0.4654872019103491
-0.4385780101667966,-0.4385780101667966
-0.4206385490044282,-0.4206385490044282
-0.4132996785289139,-0.4132996785289139
-0.3757898960985074,-0.3757898960985074
-0.30892463176604357,-0.30892463176604357
-0.24042850732790988,-0.24042850732790988
-0.19965700468616365,-0.19965700468616365
-0.15073120151606817,-0.15073120151606817
-0.0822350770779345,-0.0822350770779345
-0.015369812745470666,-0.015369812745470666
0.011539378998081848,0.011539378998081848
0.02947884016045019,0.02947884016045019
0.06535776248518688,0.06535776248518688
0.11917614597229191,0.11917614597229191
0.16320936882537784,0.16320936882537784
0.20968888183696854,0.20968888183696854
0.2602455451127339,0.2602455451127339
0.29938618764881025,0.29938618764881025
0.30264790786014995,0.30264790786014995
0.29938618764881025,0.29938618764881025
0.3140639285998389,0.3140639285998389
0.34423484055473114,0.34423484055473114
0.36543602192843916,0.36543602192843916
0.38908349346065196,0.38908349346065196
0.4159926852042045,0.4159926852042045
0.43474757641940776,0.43474757641940776
0.43067042615523315,0.43067042615523315
0.43474757641940776,0.43474757641940776
0.4437173070005919,0.4437173070005919
0.43474757641940776,0.43474757641940776
0.3866372033021472,0.3866372033021472
0.34423484055473114,0.34423484055473114
0.32303365918102306,0.32303365918102306
0.29938618764881025,0.29938618764881025
0.24638323421454014,0.24638323421454014
0.20968888183696854,0.20968888183696854
0.20724259167846376,0.20724259167846376
0.20968888183696854,0.20968888183696854
0.16728651908955247,0.16728651908955247
0.11917614597229191,0.11917614597229191
0.10449840502126326,0.10449840502126326
0.11917614597229191,0.11917614597229191
0.10694469517976804,0.10694469517976804
0.07432749306637104,0.07432749306637104
0.05394174174549793,0.05394174174549793
0.07432749306637104,0.07432749306637104
0.10205211486275849,0.10205211486275849
0.11917614597229191,0.11917614597229191
0.11672985581378713,0.11672985581378713
0.11917614597229191,0.11917614597229191
0.1322230268176507,0.1322230268176507
0.16402479887821275,0.16402479887821275
0.19093399062176528,0.19093399062176528
0.20968888183696854,0.20968888183696854
0.22192033262949243,0.22192033262949243
0.2545375347428894,0.2545375347428894
0.2871547368562864,0.2871547368562864
0.29938618764881025,0.29938618764881025
0.2863393068034515,0.2863393068034515
0.29938618764881025,0.29938618764881025
0.356466291347255,0.356466291347255
0.43474757641940776,0.43474757641940776
0.475519079061154,0.475519079061154
0.47959622932532864,0.47959622932532864
0.4714419287969794,0.4714419287969794
0.47959622932532864,0.47959622932532864
0.4722573588498143,0.4722573588498143
0.43474757641940776,0.43474757641940776
0.3760366126152932,0.3760366126152932
0.34423484055473114,0.34423484055473114
0.32874166955086753,0.32874166955086753
0.29938618764881025,0.29938618764881025
0.2414906538975306,0.2414906538975306
0.20968888183696854,0.20968888183696854
0.21050431188980348,0.21050431188980348
0.20968888183696854,0.20968888183696854
0.1623939387725429,0.1623939387725429
0.11917614597229191,0.11917614597229191
0.10857555528543789,0.10857555528543789
0.11917614597229191,0.11917614597229191
0.09715953454574894,0.09715953454574894
0.07432749306637104,0.07432749306637104
0.07840464333054567,0.07840464333054567
0.11917614597229191,0.11917614597229191
0.15587049834986352,0.15587049834986352
0.20968888183696854,0.20968888183696854
0.313248498547004,0.313248498547004
0.47959622932532864,0.47959622932532864
0.6524674005263327,0.6524674005263327
0.7943522297196095,0.7943522297196095
0.9011735666409847,0.9011735666409847
1.0194109243020488,1.0194109243020488
1.1751580643935193,1.1751580643935193
1.3798310076550855,1.3798310076550855
1.623644593452728,1.623644593452728
1.9196457026318057,1.9196457026318057
2.2678343351923185,2.2678343351923185
2.639670439285044,2.639670439285044
2.956057299784995,2.956057299784995
3.134636481355843,3.134636481355843
3.1085427196651256,3.1085427196651256
2.8647291338674834,2.8647291338674834
2.4309203457593034,2.4309203457593034
1.8747970497258848,1.8747970497258848
1.2501776292543325,1.2501776292543325
0.6141421880430912,0.6141421880430912
0.02947884016045019,0.02947884016045019
-0.4206385490044282,-0.4206385490044282
-0.7101162177608265,-0.7101162177608265
-0.8707559381693066,-0.8707559381693066
-0.985731575619031,-0.985731575619031
-1.095814632751746,-1.095814632751746
-1.21405199041281,-1.21405199041281
-1.320873327334185,-1.320873327334185
-1.4105706331460268,-1.4105706331460268
-1.4562347161047826,-1.4562347161047826
-1.4448186953650937,-1.4448186953650937
-1.365721980240106,-1.365721980240106
-1.257269783213061,-1.257269783213061
-1.1406632856576668,-1.1406632856576668
-1.0354728088419614,-1.0354728088419614
-0.9156045910752275,-0.9156045910752275
-0.8087832541538523,-0.8087832541538523
-0.7362099794515441,-0.7362099794515441
-0.7141933680250011,-0.7141933680250011
-0.6905458964927883,-0.6905458964927883
-0.6465126736397023,-0.6465126736397023
-0.6008485906809465,-0.6008485906809465
-0.5926942901525973,-0.5926942901525973
-0.6008485906809465,-0.6008485906809465
-0.5902479999940926,-0.5902479999940926
-0.5559999377750258,-0.5559999377750258
-0.5274598859258034,-0.5274598859258034
-0.5111512848691049,-0.5111512848691049
-0.49321182370673655,-0.49321182370673655
-0.4654872019103491,-0.4654872019103491
-0.4393934402196315,-0.4393934402196315
-0.4206385490044282,-0.4206385490044282
-0.4157459686874187,-0.4157459686874187
-0.4206385490044282,-0.4206385490044282
-0.42797741947994256,-0.42797741947994256
-0.4206385490044282,-0.4206385490044282
-0.41166881842324404,-0.41166881842324404
-0.4206385490044282,-0.4206385490044282
-0.4622254816990094,-0.4622254816990094
-0.5111512848691049,-0.5111512848691049
-0.5551845077221909,-0.5551845077221909
-0.6008485906809465,-0.6008485906809465
-0.6668984249605755,-0.6668984249605755
-0.7362099794515441,-0.7362099794515441
-0.791659223044319,-0.791659223044319
-0.8259072852633857,-0.8259072852633857
-0.8536319070597732,-0.8536319070597732
-0.8707559381693066,-0.8707559381693066
-0.877279378591986,-0.877279378591986
-0.8707559381693066,-0.8707559381693066
-0.8707559381693066,-0.8707559381693066
-0.8707559381693066,-0.8707559381693066
-0.8617862075881225,-0.8617862075881225
-0.8259072852633857,-0.8259072852633857
-0.779427772251795,-0.779427772251795
-0.7362099794515441,-0.7362099794515441
-0.7003310571268074,-0.7003310571268074
-0.6456972435868674,-0.6456972435868674
-0.5649696683562099,-0.5649696683562099
-0.4654872019103491,-0.4654872019103491
-0.3741590359928375,-0.3741590359928375
-0.28609259028666567,-0.28609259028666567
-0.19721071452765887,-0.19721071452765887
-0.1058825486101473,-0.1058825486101473
-0.03004755369649931,-0.03004755369649931
0.02947884016045019,0.02947884016045019
0.07432749306637104,0.07432749306637104
0.11917614597229191,0.11917614597229191
0.1623939387725429,0.1623939387725429
0.20968888183696854,0.20968888183696854
0.2545375347428894,0.2545375347428894
0.29938618764881025,0.29938618764881025
0.3311879597093723,0.3311879597093723
0.34423484055473114,0.34423484055473114
0.3303725296565374,0.3303725296565374
0.29938618764881025,0.29938618764881025
0.25535296479572434,0.25535296479572434
0.20968888183696854,0.20968888183696854
0.16076307866687306,0.16076307866687306
0.11917614597229191,0.11917614597229191
0.07351206301353612,0.07351206301353612
0.02947884016045019,0.02947884016045019
-0.00884637232279127,-0.00884637232279127
-0.015369812745470666,-0.015369812745470666
-0.00884637232279127,-0.00884637232279127
-0.015369812745470666,-0.015369812745470666
-0.061033895704226446,-0.061033895704226446
-0.1058825486101473,-0.1058825486101473
-0.12300657971968072,-0.12300657971968072
-0.1058825486101473,-0.1058825486101473
-0.09854367813463298,-0.09854367813463298
-0.1058825486101473,-0.1058825486101473
-0.13360717040653475,-0.13360717040653475
-0.15073120151606817,-0.15073120151606817
-0.15154663156890308,-0.15154663156890308
-0.1058825486101473,-0.1058825486101473
-0.02760126353799454,-0.02760126353799454
0.07432749306637104,0.07432749306637104
0.18930313051609543,0.18930313051609543
0.34423484055473114,0.34423484055473114
0.530152892601094,0.530152892601094
0.7046549239077678,0.7046549239077678
0.8171842711989874,0.8171842711989874
0.8848649655842862,0.8848649655842862
0.9533610900224199,0.9533610900224199
1.0642595772079697,1.0642595772079697
1.2191912872466053,1.2191912872466053
1.4246796605610064,1.4246796605610064
1.6986641583135411,1.6986641583135411
2.0550070914024032,2.0550070914024032
2.4439672266046624,2.4439672266046624
2.7750318280556416,2.7750318280556416
2.9470875692038105,2.9470875692038105
2.9095777867734043,2.9095777867734043
2.6470093097605583,2.6470093097605583
2.189553050120166,2.189553050120166
1.5991816918676802,1.5991816918676802
0.9745622713961279,0.9745622713961279
0.3898989235134869,0.3898989235134869
-0.1058825486101473,-0.1058825486101473
-0.49076553354823177,-0.49076553354823177
-0.7362099794515441,-0.7362099794515441
-0.856893627271113,-0.856893627271113
-0.9156045910752275,-0.9156045910752275
-1.0028556067285646,-1.0028556067285646
-1.1406632856576668,-1.1406632856576668
-1.299672145960477,-1.299672145960477
-1.4105706331460268,-1.4105706331460268
-1.4497112756821031,-1.4497112756821031
-1.4105706331460268,-1.4105706331460268
-1.332289348073874,-1.332289348073874
-1.2311760215223433,-1.2311760215223433
-1.126800974759473,-1.126800974759473
-1.0061173269399042,-1.0061173269399042
-0.8870645392260051,-0.8870645392260051
-0.781058632357465,-0.781058632357465
-0.7207168084476805,-0.7207168084476805
-0.6905458964927883,-0.6905458964927883
-0.6750527254889247,-0.6750527254889247
-0.6456972435868674,-0.6456972435868674
-0.6163417616848101,-0.6163417616848101
-0.6008485906809465,-0.6008485906809465
-0.6041103108922863,-0.6041103108922863
-0.6008485906809465,-0.6008485906809465
-0.5820936994657433,-0.5820936994657433
-0.5559999377750258,-0.5559999377750258
-0.5364296165069875,-0.5364296165069875
-0.5111512848691049,-0.5111512848691049
-0.4695643521745237,-0.4695643521745237
-0.4206385490044282,-0.4206385490044282
-0.38802134689103124,-0.38802134689103124
-0.3757898960985074,-0.3757898960985074
-0.3863904867853614,-0.3863904867853614
-0.4206385490044282,-0.4206385490044282
-0.48424209312555233,-0.48424209312555233
-0.5559999377750258,-0.5559999377750258
-0.6147109015791403,-0.6147109015791403
-0.6456972435868674,-0.6456972435868674
-0.6668984249605755,-0.6668984249605755
-0.6905458964927883,-0.6905458964927883
-0.7329482592402043,-0.7329482592402043
-0.781058632357465,-0.781058632357465
-0.8193838448407064,-0.8193838448407064
-0.8259072852633857,-0.8259072852633857
-0.8210147049463763,-0.8210147049463763
-0.8259072852633857,-0.8259072852633857
-0.8430313163729192,-0.8430313163729192
-0.8259072852633857,-0.8259072852633857
-0.7655654613536014,-0.7655654613536014
-0.6905458964927883,-0.6905458964927883
-0.6408046632698579,-0.6408046632698579
-0.6008485906809465,-0.6008485906809465
-0.5568153678278607,-0.5568153678278607
-0.5111512848691049,-0.5111512848691049
-0.47527236254436817,-0.47527236254436817
-0.4206385490044282,-0.4206385490044282
-0.336649253562431,-0.336649253562431
-0.24042850732790988,-0.24042850732790988
-0.16703980257276665,-0.16703980257276665
-0.1058825486101473,-0.1058825486101473
-0.0528795951758772,-0.0528795951758772
-0.015369812745470666,-0.015369812745470666
-0.0015075018472769472,-0.0015075018472769472
0.02947884016045019,0.02947884016045019
0.09308238428157431,0.09308238428157431
0.16402479887821275,0.16402479887821275
0.19990372120294944,0.19990372120294944
0.20968888183696854,0.20968888183696854
0.2113197419426384,0.2113197419426384
0.20968888183696854,0.20968888183696854
0.18767227041042558,0.18767227041042558
0.16402479887821275,0.16402479887821275
0.14363904755733964,0.14363904755733964
0.11917614597229191,0.11917614597229191
0.0726966329607012,0.0726966329607012
0.02947884016045019,0.02947884016045019
0.002569648416897676,0.002569648416897676
-0.015369812745470666,-0.015369812745470666
-0.05532588533438198,-0.05532588533438198
-0.1058825486101473,-0.1058825486101473
-0.14013061082921413,-0.14013061082921413
-0.15073120151606817,-0.15073120151606817
-0.16296265230859203,-0.16296265230859203
-0.19557985442198902,-0.19557985442198902
-0.23064334669389078,-0.23064334669389078
-0.24042850732790988,-0.24042850732790988
-0.22330447621837646,-0.22330447621837646
-0.19557985442198902,-0.19557985442198902
-0.14339233104055385,-0.14339233104055385
-0.015369812745470666,-0.015369812745470666
0.19990372120294944,0.19990372120294944
0.43474757641940776,0.43474757641940776
0.5774478356655196,0.5774478356655196
0.5692935351371703,0.5692935351371703
0.41028467483436004,0.41028467483436004
0.11917614597229191,0.11917614597229191
-0.3211560825585674,-0.3211560825585674
-0.9156045910752275,-0.9156045910752275
-1.6291058873057866,-1.6291058873057866
-2.3564694944345392,-2.3564694944345392
-2.9965820859099552,-2.9965820859099552
-3.4809475372939005,-3.4809475372939005
-3.81527385895622,-3.81527385895622
-4.021577662323455,-4.021577662323455
-4.122690988874986,-4.122690988874986
-4.111274968135297,-4.111274968135297
-3.998745620844078,-3.998745620844078
-3.7965189677410165,-3.7965189677410165
-3.5323196306225007,-3.5323196306225007
-3.2110401898055403,-3.2110401898055403
-2.869374997667707,-2.869374997667707
-2.5358641060582228,-2.5358641060582228
-2.238232136773475,-2.238232136773475
-1.951200758175582,-1.951200758175582
-1.6739545402117075,-1.6739545402117075
-1.4105706331460268,-1.4105706331460268
-1.170834197612559,-1.170834197612559
-0.9156045910752275,-0.9156045910752275
-0.6408046632698579,-0.6408046632698579
-0.3757898960985074,-0.3757898960985074
-0.17030152278410635,-0.17030152278410635
-0.015369812745470666,-0.015369812745470666
0.10857555528543789,0.10857555528543789
0.20968888183696854,0.20968888183696854
0.280631296433607,0.280631296433607
0.34423484055473114,0.34423484055473114
0.4265932758910585,0.4265932758910585
0.5244448822312495,0.5244448822312495
0.6068033175675769,0.6068033175675769
0.659806271001847,0.659806271001847
0.6867154627453995,0.6867154627453995
0.7046549239077678,0.7046549239077678
0.7209635249644664,0.7209635249644664
0.7495035768136887,0.7495035768136887
0.7764127685572412,0.7764127685572412
0.7943522297196095,0.7943522297196095
0.8033219603007937,0.8033219603007937
0.8392008826255304,0.8392008826255304
0.9019889966938196,0.9019889966938196
0.9745622713961279,0.9745622713961279
1.0210417844077186,1.0210417844077186
1.0642595772079697,1.0642595772079697
1.1188933907479095,1.1188933907479095
1.199620965978567,1.199620965978567
1.2844256914733994,1.2844256914733994
1.3798310076550855,1.3798310076550855
1.471974603625432,1.471974603625432
1.5592256192787688,1.5592256192787688
1.613044002765874,1.613044002765874
1.6497383551434455,1.6497383551434455
1.6815401272040076,1.6815401272040076
1.7394356609552872,1.7394356609552872
1.806300925287751,1.806300925287751
1.8747970497258848,1.8747970497258848
1.9229074228431453,1.9229074228431453
1.9644943555377266,1.9644943555377266
1.992218977334114,1.992218977334114
2.0093430084436474,2.0093430084436474
1.9971115576511234,1.9971115576511234
1.9644943555377266,1.9644943555377266
1.915568552367631,1.915568552367631
1.8747970497258848,1.8747970497258848
1.8307638268727988,1.8307638268727988
1.7842843138612081,1.7842843138612081
1.719049909634414,1.719049909634414
1.6497383551434455,1.6497383551434455
1.5763496503883023,1.5763496503883023
1.5143769663728481,1.5143769663728481
1.4483271320932192,1.4483271320932192
1.3798310076550855,1.3798310076550855
1.2925799920017484,1.2925799920017484
1.199620965978567,1.199620965978567
1.1009539295855413,1.1009539295855413
1.0194109243020488,1.0194109243020488
0.9468376495997405,0.9468376495997405
0.8848649655842862,0.8848649655842862
0.8147379810404827,0.8147379810404827
0.7495035768136887,0.7495035768136887
0.6801920223227201,0.6801920223227201
0.6141421880430912,0.6141421880430912
0.5407534832879479,0.5407534832879479
0.47959622932532864,0.47959622932532864
0.4265932758910585,0.4265932758910585
0.38908349346065196,0.38908349346065196
0.34505027060756605,0.34505027060756605
0.29938618764881025,0.29938618764881025
0.24964495442587986,0.24964495442587986
0.20968888183696854,0.20968888183696854
0.16565565898388263,0.16565565898388263
0.11917614597229191,0.11917614597229191
0.05475717179833286,0.05475717179833286
-0.015369812745470666,-0.015369812745470666
-0.08875851750061389,-0.08875851750061389
-0.15073120151606817,-0.15073120151606817
-0.21596560574286214,-0.21596560574286214
-0.28609259028666567,-0.28609259028666567
-0.36274301525314856,-0.36274301525314856
-0.4206385490044282,-0.4206385490044282
-0.45407118117066014,-0.45407118117066014
-0.4654872019103491,-0.4654872019103491
-0.48424209312555233,-0.48424209312555233
-0.5111512848691049,-0.5111512848691049
-0.542137626876832,-0.542137626876832
-0.5559999377750258,-0.5559999377750258
-0.5584462279335305,-0.5584462279335305
-0.5559999377750258,-0.5559999377750258
-0.5592616579863654,-0.5592616579863654
-0.5559999377750258,-0.5559999377750258
-0.5543690776693558,-0.5543690776693558
-0.5559999377750258,-0.5559999377750258
-0.5649696683562099,-0.5649696683562099
-0.5559999377750258,-0.5559999377750258
-0.532352466242813,-0.532352466242813
-0.5111512848691049,-0.5111512848691049
-0.5119667149219398,-0.5119667149219398
-0.5111512848691049,-0.5111512848691049
-0.49402725375957146,-0.49402725375957146
-0.4654872019103491,-0.4654872019103491
-0.4459168806423109,-0.4459168806423109
-0.4206385490044282,-0.4206385490044282
-0.38149790646835186,-0.38149790646835186
-0.3309412431925865,-0.3309412431925865
-0.28527716023383076,-0.28527716023383076
-0.24042850732790988,-0.24042850732790988
-0.20618044510884304,-0.20618044510884304
-0.19557985442198902,-0.19557985442198902
-0.21759646584853198,-0.21759646584853198
-0.24042850732790988,-0.24042850732790988
-0.2583679684902782,-0.2583679684902782
-0.28609259028666567,-0.28609259028666567
-0.33746468361526594,-0.33746468361526594
-0.3757898960985074,-0.3757898960985074
-0.38231333652118676,-0.38231333652118676
-0.3757898960985074,-0.3757898960985074
-0.3937293572608757,-0.3937293572608757
-0.4206385490044282,-0.4206385490044282
-0.43205456974411716,-0.43205456974411716
-0.4206385490044282,-0.4206385490044282
-0.4173768287930885,-0.4173768287930885
-0.4206385490044282,-0.4206385490044282
-0.4255311293214378,-0.4255311293214378
-0.4206385490044282,-0.4206385490044282
-0.4206385490044282,-0.4206385490044282
-0.4206385490044282,-0.4206385490044282
-0.4222694091100981,-0.4222694091100981
-0.4206385490044282,-0.4206385490044282
-0.423084839162933,-0.423084839162933
-0.4206385490044282,-0.4206385490044282
-0.4214539790572632,-0.4214539790572632
-0.4206385490044282,-0.4206385490044282
-0.4141151085817488,-0.4141151085817488
-0.3757898960985074,-0.3757898960985074
-0.3227869426642373,-0.3227869426642373
-0.28609259028666567,-0.28609259028666567
-0.28609259028666567,-0.28609259028666567
-0.28609259028666567,-0.28609259028666567
-0.2551062482789385,-0.2551062482789385
-0.19557985442198902,-0.19557985442198902
-0.1450231911462237,-0.1450231911462237
-0.1058825486101473,-0.1058825486101473
-0.07897335686659479,-0.07897335686659479
-0.061033895704226446,-0.061033895704226446
-0.06021846565139152,-0.06021846565139152
-0.061033895704226446,-0.061033895704226446
-0.06021846565139152,-0.06021846565139152
-0.061033895704226446,-0.061033895704226446
-0.07978878691942971,-0.07978878691942971
-0.1058825486101473,-0.1058825486101473
-0.13116088024802997,-0.13116088024802997
-0.15073120151606817,-0.15073120151606817
-0.17682496320678576,-0.17682496320678576
-0.19557985442198902,-0.19557985442198902
-0.2021032948446684,-0.2021032948446684
-0.19557985442198902,-0.19557985442198902
-0.20699587516167797,-0.20699587516167797
-0.24042850732790988,-0.24042850732790988
-0.2803845799168212,-0.2803845799168212
-0.28609259028666567,-0.28609259028666567
-0.2632605488072878,-0.2632605488072878
-0.24042850732790988,-0.24042850732790988
-0.24287479748641466,-0.24287479748641466
-0.24042850732790988,-0.24042850732790988
-0.2216736161127066,-0.2216736161127066
-0.19557985442198902,-0.19557985442198902
-0.19231813421064933,-0.19231813421064933
-0.19557985442198902,-0.19557985442198902
-0.1980261445804938,-0.1980261445804938
-0.19557985442198902,-0.19557985442198902
-0.2021032948446684,-0.2021032948446684
-0.19557985442198902,-0.19557985442198902
-0.17437867304828097,-0.17437867304828097
-0.15073120151606817,-0.15073120151606817
-0.13768432067070938,-0.13768432067070938
-0.1058825486101473,-0.1058825486101473
-0.0561413153872169,-0.0561413153872169
-0.015369812745470666,-0.015369812745470666
-0.002322931900111872,-0.002322931900111872
0.02947884016045019,0.02947884016045019
0.09634410449291402,0.09634410449291402
0.16402479887821275,0.16402479887821275
0.17951796988207633,0.17951796988207633
0.16402479887821275,0.16402479887821275
0.14282361750450473,0.14282361750450473
0.11917614597229191,0.11917614597229191
0.07025034280219643,0.07025034280219643
0.02947884016045019,0.02947884016045019
0.01724738936792632,0.01724738936792632
0.02947884016045019,0.02947884016045019
0.01561652926225647,0.01561652926225647
-0.015369812745470666,-0.015369812745470666
-0.04880244491170258,-0.04880244491170258
-0.061033895704226446,-0.061033895704226446
-0.08060421697226464,-0.08060421697226464
-0.1058825486101473,-0.1058825486101473
-0.12789916003669027,-0.12789916003669027
-0.1058825486101473,-0.1058825486101473
-0.037386424172013634,-0.037386424172013634
0.07432749306637104,0.07432749306637104
0.20398087146712407,0.20398087146712407
0.34423484055473114,0.34423484055473114
0.4689956386384746,0.4689956386384746
0.5692935351371703,0.5692935351371703
0.659806271001847,0.659806271001847
0.7943522297196095,0.7943522297196095
0.9941325926641661,0.9941325926641661
1.244469618884488,1.244469618884488
1.5192695466898576,1.5192695466898576
1.829948396819964,1.829948396819964
2.174875309169137,2.174875309169137
2.5051244805672814,2.5051244805672814
2.713059144040187,2.713059144040187
2.7301831751497208,2.7301831751497208
2.5401879728391834,2.5401879728391834
2.189553050120166,2.189553050120166
1.7247579200042586,1.7247579200042586
1.199620965978567,1.199620965978567
0.6581754108961771,0.6581754108961771
0.16402479887821275,0.16402479887821275
-0.23553592701090034,-0.23553592701090034
-0.5111512848691049,-0.5111512848691049
-0.6791298757530994,-0.6791298757530994
-0.781058632357465,-0.781058632357465
-0.878094808644821,-0.878094808644821
-1.0061173269399042,-1.0061173269399042
-1.169203337506889,-1.169203337506889
-1.320873327334185,-1.320873327334185
-1.4252483740970554,-1.4252483740970554
-1.4562347161047826,-1.4562347161047826
-1.4325872445725698,-1.4325872445725698
-1.365721980240106,-1.365721980240106
-1.2825481148509437,-1.2825481148509437
-1.1855119385635875,-1.1855119385635875
-1.095814632751746,-1.095814632751746
-1.0061173269399042,-1.0061173269399042
-0.9310977620790911,-0.9310977620790911
-0.8707559381693066,-0.8707559381693066
-0.8397695961615795,-0.8397695961615795
-0.8259072852633857,-0.8259072852633857
-0.8267227153162208,-0.8267227153162208
-0.8259072852633857,-0.8259072852633857
-0.8267227153162208,-0.8267227153162208
-0.8259072852633857,-0.8259072852633857
-0.8267227153162208,-0.8267227153162208
-0.8259072852633857,-0.8259072852633857
-0.8275381453690557,-0.8275381453690557
-0.8259072852633857,-0.8259072852633857
-0.812860404418027,-0.812860404418027
-0.781058632357465,-0.781058632357465
-0.747626000191233,-0.747626000191233
-0.7362099794515441,-0.7362099794515441
-0.7427334198742235,-0.7427334198742235
-0.7362099794515441,-0.7362099794515441
-0.7101162177608265,-0.7101162177608265
-0.6905458964927883,-0.6905458964927883
-0.6954384768097979,-0.6954384768097979
-0.6905458964927883,-0.6905458964927883
-0.6530361140623818,-0.6530361140623818
-0.6008485906809465,-0.6008485906809465
-0.5820936994657433,-0.5820936994657433
-0.6008485906809465,-0.6008485906809465
-0.6432509534283627,-0.6432509534283627
-0.6905458964927883,-0.6905458964927883
-0.7427334198742235,-0.7427334198742235
-0.781058632357465,-0.781058632357465
-0.8047061038896778,-0.8047061038896778
-0.8259072852633857,-0.8259072852633857
-0.867494217957967,-0.867494217957967
-0.9156045910752275,-0.9156045910752275
-0.9514835133999642,-0.9514835133999642
-0.9604532439811484,-0.9604532439811484
-0.963714964192488,-0.963714964192488
-0.9604532439811484,-0.9604532439811484
-0.9506680833471293,-0.9506680833471293
-0.9156045910752275,-0.9156045910752275
-0.8707559381693066,-0.8707559381693066
-0.8259072852633857,-0.8259072852633857
-0.7892129328858142,-0.7892129328858142
-0.7362099794515441,-0.7362099794515441
-0.6571132643265564,-0.6571132643265564
-0.5559999377750258,-0.5559999377750258
-0.4614100516461745,-0.4614100516461745
-0.3757898960985074,-0.3757898960985074
-0.29343146076217996,-0.29343146076217996
-0.19557985442198902,-0.19557985442198902
-0.0993591081874679,-0.0993591081874679
-0.015369812745470666,-0.015369812745470666
0.04986459148132331,0.04986459148132331
0.11917614597229191,0.11917614597229191
0.19093399062176528,0.19093399062176528
0.2545375347428894,0.2545375347428894
0.29775532754314044,0.29775532754314044
0.34423484055473114,0.34423484055473114
0.39397607377766153,0.39397607377766153
0.43474757641940776,0.43474757641940776
0.45350246763461105,0.45350246763461105
0.47959622932532864,0.47959622932532864
0.5130288614915606,0.5130288614915606
0.5244448822312495,0.5244448822312495
0.486119669748008,0.486119669748008
0.43474757641940776,0.43474757641940776
0.4021303743060108,0.4021303743060108
0.38908349346065196,0.38908349346065196
0.36625145198127407,0.36625145198127407
0.34423484055473114,0.34423484055473114
0.32466451928669293,0.32466451928669293
0.29938618764881025,0.29938618764881025
0.24964495442587986,0.24964495442587986
0.20968888183696854,0.20968888183696854
0.1982728610972796,0.1982728610972796
0.20968888183696854,0.20968888183696854
0.1958265709387748,0.1958265709387748
0.16402479887821275,0.16402479887821275
0.14282361750450473,0.14282361750450473
0.16402479887821275,0.16402479887821275
0.19664200099160975,0.19664200099160975
0.20968888183696854,0.20968888183696854
0.19664200099160975,0.19664200099160975
0.20968888183696854,0.20968888183696854
0.25209124458438464,0.25209124458438464
0.29938618764881025,0.29938618764881025
0.3067250581243246,0.3067250581243246
0.29938618764881025,0.29938618764881025
0.2944936073318007,0.2944936073318007
0.29938618764881025,0.29938618764881025
0.29204731717329596,0.29204731717329596
0.29938618764881025,0.29938618764881025
0.31814107886401355,0.31814107886401355
0.34423484055473114,0.34423484055473114
0.3540200011887502,0.3540200011887502
0.38908349346065196,0.38908349346065196
0.45105617747610627,0.45105617747610627
0.5244448822312495,0.5244448822312495
0.5904947165108784,0.5904947165108784
0.7046549239077678,0.7046549239077678
0.8783415251616068,0.8783415251616068
1.0642595772079697,1.0642595772079697
1.1971746758200623,1.1971746758200623
1.2893182717904088,1.2893182717904088
1.3635224065983869,1.3635224065983869
1.4246796605610064,1.4246796605610064
1.4809443342066162,1.4809443342066162
1.6048897022375246,1.6048897022375246
1.8364718372426432,1.8364718372426432
2.144704397214245,2.144704397214245
2.4627221178198653,2.4627221178198653
2.7750318280556416,2.7750318280556416
3.043308315438332,3.043308315438332
3.179485134261764,3.179485134261764
3.0857106781857477,3.0857106781857477
2.7750318280556416,2.7750318280556416
2.3192064285209186,2.3192064285209186
1.7842843138612081,1.7842843138612081
1.1841277949747036,1.1841277949747036
0.5692935351371703,0.5692935351371703
0.019693679526431095,0.019693679526431095
-0.3757898960985074,-0.3757898960985074
-0.6130800414734705,-0.6130800414734705
-0.7362099794515441,-0.7362099794515441
-0.8250918552105508,-0.8250918552105508
-0.9156045910752275,-0.9156045910752275
-1.028949368419282,-1.028949368419282
-1.1406632856576668,-1.1406632856576668
-1.225468011152499,-1.225468011152499
-1.2311760215223433,-1.2311760215223433
-1.1512638763445207,-1.1512638763445207
-1.0061173269399042,-1.0061173269399042
-0.8609707775352876,-0.8609707775352876
-0.7362099794515441,-0.7362099794515441
-0.6318349326886737,-0.6318349326886737
-0.5111512848691049,-0.5111512848691049
-0.3896522069967011,-0.3896522069967011
-0.28609259028666567,-0.28609259028666567
-0.22738162648255109,-0.22738162648255109
-0.19557985442198902,-0.19557985442198902
-0.18742555389363977,-0.18742555389363977
-0.19557985442198902,-0.19557985442198902
-0.2216736161127066,-0.2216736161127066
-0.24042850732790988,-0.24042850732790988
-0.25592167833177343,-0.25592167833177343
-0.28609259028666567,-0.28609259028666567
-0.33828011366810085,-0.33828011366810085
-0.3757898960985074,-0.3757898960985074
-0.38068247641551695,-0.38068247641551695
-0.3757898960985074,-0.3757898960985074
-0.3945447873137106,-0.3945447873137106
-0.4206385490044282,-0.4206385490044282
-0.42960827958561243,-0.42960827958561243
-0.4206385490044282,-0.4206385490044282
-0.4190076888987584,-0.4190076888987584
-0.4206385490044282,-0.4206385490044282
-0.4214539790572632,-0.4214539790572632
-0.4206385490044282,-0.4206385490044282
-0.4393934402196315,-0.4393934402196315
-0.4654872019103491,-0.4654872019103491
-0.49321182370673655,-0.49321182370673655
-0.5111512848691049,-0.5111512848691049
-0.5339833263484828,-0.5339833263484828
-0.5559999377750258,-0.5559999377750258
-0.5690468186203845,-0.5690468186203845
-0.5559999377750258,-0.5559999377750258
-0.5331678962956479,-0.5331678962956479
-0.5111512848691049,-0.5111512848691049
-0.4956581138652413,-0.4956581138652413
-0.4654872019103491,-0.4654872019103491
-0.42390026921576796,-0.42390026921576796
-0.3757898960985074,-0.3757898960985074
-0.325233232822742,-0.325233232822742
-0.24042850732790988,-0.24042850732790988
-0.12708372998385534,-0.12708372998385534
-0.015369812745470666,-0.015369812745470666
0.05883432206250748,0.05883432206250748
0.11917614597229191,0.11917614597229191
0.18604141030475574,0.18604141030475574
0.2545375347428894,0.2545375347428894
0.2896010270147912,0.2896010270147912
0.29938618764881025,0.29938618764881025
0.29857075759597534,0.29857075759597534
0.29938618764881025,0.29938618764881025
0.28307758659211174,0.28307758659211174
0.2545375347428894,0.2545375347428894
0.22355119273516227,0.22355119273516227
0.20968888183696854,0.20968888183696854
0.20642716162562885,0.20642716162562885
0.20968888183696854,0.20968888183696854
0.1958265709387748,0.1958265709387748
0.16402479887821275,0.16402479887821275
0.12733044650064115,0.12733044650064115
0.11917614597229191,0.11917614597229191
0.12651501644780622,0.12651501644780622
0.11917614597229191,0.11917614597229191
0.07432749306637104,0.07432749306637104
0.02947884016045019,0.02947884016045019
0.013170239103751697,0.013170239103751697
0.02947884016045019,0.02947884016045019
0.03600228058312959,0.03600228058312959
0.02947884016045019,0.02947884016045019
0.01887824947359617,0.01887824947359617
0.02947884016045019,0.02947884016045019
0.049049161428488385,0.049049161428488385
0.07432749306637104,0.07432749306637104
0.09308238428157431,0.09308238428157431
0.11917614597229191,0.11917614597229191
0.14282361750450473,0.14282361750450473
0.16402479887821275,0.16402479887821275
0.17870253982924142,0.17870253982924142
0.20968888183696854,0.20968888183696854
0.25209124458438464,0.25209124458438464
0.29938618764881025,0.29938618764881025
0.32629537939236275,0.32629537939236275
0.34423484055473114,0.34423484055473114
0.34831199081890574,0.34831199081890574
0.34423484055473114,0.34423484055473114
0.31895650891684846,0.31895650891684846
0.29938618764881025,0.29938618764881025
0.27736957622226727,0.27736957622226727
0.2545375347428894,0.2545375347428894
0.2178431823653178,0.2178431823653178
0.20968888183696854,0.20968888183696854
0.23659807358052107,0.23659807358052107
0.29938618764881025,0.29938618764881025
0.3735903224567884,0.3735903224567884
0.47959622932532864,0.47959622932532864
0.6133267579902563,0.6133267579902563
0.7495035768136887,0.7495035768136887
0.8481706132067146,0.8481706132067146
0.9297136184902071,0.9297136184902071
1.0226726445133885,1.0226726445133885
1.1547723130726462,1.1547723130726462
1.3276434842736502,1.3276434842736502
1.5592256192787688,1.5592256192787688
1.839733557453983,1.839733557453983
2.144704397214245,2.144704397214245
2.456198677397186,2.456198677397186
2.7750318280556416,2.7750318280556416
3.0253688542759636,3.0253688542759636
3.0897878284499227,3.0897878284499227
2.9063160665620646,2.9063160665620646
2.5499731334732023,2.5499731334732023
2.0965940240969845,2.0965940240969845
1.5592256192787688,1.5592256192787688
0.9403142091770611,0.9403142091770611
0.34423484055473114,0.34423484055473114
-0.11974485950834103,-0.11974485950834103
-0.4206385490044282,-0.4206385490044282
-0.6032948808394514,-0.6032948808394514
-0.6905458964927883,-0.6905458964927883
-0.7394716996628837,-0.7394716996628837
-0.8259072852633857,-0.8259072852633857
-0.9898087258832057,-0.9898087258832057
-1.1406632856576668,-1.1406632856576668
-1.192035378986267,-1.192035378986267
-1.1406632856576668,-1.1406632856576668
-1.071351731166698,-1.071351731166698
-1.0061173269399042,-1.0061173269399042
-0.931913192131926,-0.931913192131926
-0.8259072852633857,-0.8259072852633857
-0.726424818817525,-0.726424818817525
-0.6456972435868674,-0.6456972435868674
-0.5959560103639371,-0.5959560103639371
-0.5559999377750258,-0.5559999377750258
-0.530721606137143,-0.530721606137143
-0.5111512848691049,-0.5111512848691049
-0.5070741346049302,-0.5070741346049302
-0.5111512848691049,-0.5111512848691049
-0.5168592952389494,-0.5168592952389494
-0.5111512848691049,-0.5111512848691049
-0.5046278444464255,-0.5046278444464255
-0.5111512848691049,-0.5111512848691049
-0.5347987564013177,-0.5347987564013177
-0.5559999377750258,-0.5559999377750258
-0.5625233781977051,-0.5625233781977051
-0.5559999377750258,-0.5559999377750258
-0.5535536476165209,-0.5535536476165209
-0.5559999377750258,-0.5559999377750258
-0.5592616579863654,-0.5592616579863654
-0.5559999377750258,-0.5559999377750258
-0.5551845077221909,-0.5551845077221909
-0.5559999377750258,-0.5559999377750258
-0.5592616579863654,-0.5592616579863654
-0.5559999377750258,-0.5559999377750258
-0.5551845077221909,-0.5551845077221909
-0.5559999377750258,-0.5559999377750258
-0.5617079481448702,-0.5617079481448702
-0.5559999377750258,-0.5559999377750258
-0.5372450465598224,-0.5372450465598224
-0.5111512848691049,-0.5111512848691049
-0.5013661242350858,-0.5013661242350858
-0.5111512848691049,-0.5111512848691049
-0.5241981657144636,-0.5241981657144636
-0.5111512848691049,-0.5111512848691049
-0.4834266630727174,-0.4834266630727174
-0.4654872019103491,-0.4654872019103491
-0.47037978222735866,-0.47037978222735866
-0.4654872019103491,-0.4654872019103491
-0.4434705904838061,-0.4434705904838061
-0.4206385490044282,-0.4206385490044282
-0.4222694091100981,-0.4222694091100981
-0.4206385490044282,-0.4206385490044282
-0.39128306710237093,-0.39128306710237093
-0.3309412431925865,-0.3309412431925865
-0.26570683896579256,-0.26570683896579256
-0.19557985442198902,-0.19557985442198902
-0.1254528698781855,-0.1254528698781855
-0.061033895704226446,-0.061033895704226446
-0.01618524279830559,-0.01618524279830559
0.02947884016045019,0.02947884016045019
0.07677378322487582,0.07677378322487582
0.11917614597229191,0.11917614597229191
0.14119275739883488,0.14119275739883488
0.16402479887821275,0.16402479887821275
0.19256485072743512,0.19256485072743512
0.20968888183696854,0.20968888183696854
0.19093399062176528,0.19093399062176528
0.16402479887821275,0.16402479887821275
0.15342420819135874,0.15342420819135874
0.16402479887821275,0.16402479887821275
0.16810194914238738,0.16810194914238738
0.16402479887821275,0.16402479887821275
0.15831678850836828,0.15831678850836828
0.16402479887821275,0.16402479887821275
0.17788710977640648,0.17788710977640648
0.20968888183696854,0.20968888183696854
0.25209124458438464,0.25209124458438464
0.29938618764881025,0.29938618764881025
0.3173256488111786,0.3173256488111786
0.29938618764881025,0.29938618764881025
0.25290667463721955,0.25290667463721955
0.20968888183696854,0.20968888183696854
0.16565565898388263,0.16565565898388263
0.11917614597229191,0.11917614597229191
0.06372690237951703,0.06372690237951703
0.02947884016045019,0.02947884016045019
0.022139969684935867,0.022139969684935867
0.02947884016045019,0.02947884016045019
0.014801099209421546,0.014801099209421546
-0.015369812745470666,-0.015369812745470666
-0.04880244491170258,-0.04880244491170258
-0.061033895704226446,-0.061033895704226446
-0.06429561591556615,-0.06429561591556615
-0.061033895704226446,-0.061033895704226446
-0.061849325757061376,-0.061849325757061376
-0.061033895704226446,-0.061033895704226446
-0.06429561591556615,-0.06429561591556615
-0.061033895704226446,-0.061033895704226446
-0.06021846565139152,-0.06021846565139152
-0.061033895704226446,-0.061033895704226446
-0.06674190607407092,-0.06674190607407092
-0.061033895704226446,-0.061033895704226446
-0.056956745440051824,-0.056956745440051824
-0.061033895704226446,-0.061033895704226446
-0.07326534649675032,-0.07326534649675032
-0.061033895704226446,-0.061033895704226446
-0.03330927390783901,-0.03330927390783901
-0.015369812745470666,-0.015369812745470666
-0.025970403432324686,-0.025970403432324686
-0.015369812745470666,-0.015369812745470666
0.03844857074163436,0.03844857074163436
0.11917614597229191,0.11917614597229191
0.1746253895650668,0.1746253895650668
0.20968888183696854,0.20968888183696854
0.24801409432021002,0.24801409432021002
0.29938618764881025,0.29938618764881025
0.32221822912818815,0.32221822912818815
0.29938618764881025,0.29938618764881025
0.24638323421454014,0.24638323421454014
0.20968888183696854,0.20968888183696854
0.18767227041042558,0.18767227041042558
0.16402479887821275,0.16402479887821275
0.11836071591945697,0.11836071591945697
0.07432749306637104,0.07432749306637104
0.044972011164313756,0.044972011164313756
0.02947884016045019,0.02947884016045019
0.00501593857540245,0.00501593857540245
-0.015369812745470666,-0.015369812745470666
-0.023524113273819914,-0.023524113273819914
-0.015369812745470666,-0.015369812745470666
-0.014554382692635742,-0.014554382692635742
-0.015369812745470666,-0.015369812745470666
-0.018631532956810366,-0.018631532956810366
-0.015369812745470666,-0.015369812745470666
-0.018631532956810366,-0.018631532956810366
-0.015369812745470666,-0.015369812745470666
-0.015369812745470666,-0.015369812745470666
-0.015369812745470666,-0.015369812745470666
-0.022708683220984988,-0.022708683220984988
-0.015369812745470666,-0.015369812745470666
-0.00884637232279127,-0.00884637232279127
-0.015369812745470666,-0.015369812745470666
-0.04717158480603273,-0.04717158480603273
-0.061033895704226446,-0.061033895704226446
-0.04554072470036288,-0.04554072470036288
-0.015369812745470666,-0.015369812745470666
-0.012923522586965892,-0.012923522586965892
-0.015369812745470666,-0.015369812745470666
-0.00721551221712142,-0.00721551221712142
0.02947884016045019,0.02947884016045019
0.0694349127493615,0.0694349127493615
0.11917614597229191,0.11917614597229191
0.1648402289310477,0.1648402289310477
0.20968888183696854,0.20968888183696854
0.25535296479572434,0.25535296479572434
0.34423484055473114,0.34423484055473114
0.475519079061154,0.475519079061154
0.6141421880430912,0.6141421880430912
0.7152555145946219,0.7152555145946219
0.7943522297196095,0.7943522297196095
0.8881266857956259,0.8881266857956259
1.0194109243020488,1.0194109243020488
1.169450054023675,1.169450054023675
1.3341669246963297,1.3341669246963297
1.5298701373767116,1.5298701373767116
1.7842843138612081,1.7842843138612081
2.0925168738328095,2.0925168738328095
2.4146117447026048,2.4146117447026048
2.6682104911342663,2.6682104911342663
2.7750318280556416,2.7750318280556416
2.674733931556946,2.674733931556946
2.369763091796684,2.369763091796684
1.8984445212580976,1.8984445212580976
1.3341669246963297,1.3341669246963297
0.7364566959683299,0.7364566959683299
0.16402479887821275,0.16402479887821275
-0.3309412431925865,-0.3309412431925865
-0.6905458964927883,-0.6905458964927883
-0.9050040003883735,-0.9050040003883735
-1.0061173269399042,-1.0061173269399042
-1.0689054410081933,-1.0689054410081933
-1.1406632856576668,-1.1406632856576668
-1.2483000526318768,-1.2483000526318768
-1.365721980240106,-1.365721980240106
-1.4521575658406078,-1.4521575658406078
-1.4562347161047826,-1.4562347161047826
-1.398339182353503,-1.398339182353503
-1.320873327334185,-1.320873327334185
-1.2507463427903815,-1.2507463427903815
-1.1406632856576668,-1.1406632856576668
-0.985731575619031,-0.985731575619031
-0.8259072852633857,-0.8259072852633857
-0.7329482592402043,-0.7329482592402043
-0.6905458964927883,-0.6905458964927883
-0.6546669741680516,-0.6546669741680516
-0.6008485906809465,-0.6008485906809465
-0.574754828990229,-0.574754828990229
-0.6008485906809465,-0.6008485906809465
-0.6562978342737215,-0.6562978342737215
-0.6905458964927883,-0.6905458964927883
-0.705223637443817,-0.705223637443817
-0.7362099794515441,-0.7362099794515441
-0.790843792991484,-0.790843792991484
-0.8259072852633857,-0.8259072852633857
-0.8250918552105508,-0.8250918552105508
-0.8259072852633857,-0.8259072852633857
-0.8666787879051321,-0.8666787879051321
-0.9156045910752275,-0.9156045910752275
-0.9294669019734212,-0.9294669019734212
-0.9156045910752275,-0.9156045910752275
-0.9237588916035767,-0.9237588916035767
-0.9604532439811484,-0.9604532439811484
-0.9979630264115549,-0.9979630264115549
-1.0061173269399042,-1.0061173269399042
-0.9914395859888755,-0.9914395859888755
-0.9604532439811484,-0.9604532439811484
-0.931913192131926,-0.931913192131926
-0.9156045910752275,-0.9156045910752275
-0.9302823320262562,-0.9302823320262562
-0.9604532439811484,-0.9604532439811484
-0.9922550160417104,-0.9922550160417104
-1.0061173269399042,-1.0061173269399042
-1.008563617098409,-1.008563617098409
-1.0061173269399042,-1.0061173269399042
-1.007748187045574,-1.007748187045574
-1.0061173269399042,-1.0061173269399042
-0.9955167362530501,-0.9955167362530501
-0.9604532439811484,-0.9604532439811484
-0.9033731402827037,-0.9033731402827037
-0.8259072852633857,-0.8259072852633857
-0.7508877204025727,-0.7508877204025727
-0.6905458964927883,-0.6905458964927883
-0.6481435337453723,-0.6481435337453723
-0.6008485906809465,-0.6008485906809465
-0.5388759066654923,-0.5388759066654923
-0.4654872019103491,-0.4654872019103491
-0.4100379583175742,-0.4100379583175742
-0.3757898960985074,-0.3757898960985074
-0.3439881240379453,-0.3439881240379453
-0.28609259028666567,-0.28609259028666567
-0.2241199062712114,-0.2241199062712114
-0.19557985442198902,-0.19557985442198902
-0.2045495850031732,-0.2045495850031732
-0.19557985442198902,-0.19557985442198902
-0.15154663156890308,-0.15154663156890308
-0.1058825486101473,-0.1058825486101473
-0.10017453824030284,-0.10017453824030284
-0.1058825486101473,-0.1058825486101473
-0.09038937760628374,-0.09038937760628374
-0.061033895704226446,-0.061033895704226446
-0.053695025228712126,-0.053695025228712126
-0.061033895704226446,-0.061033895704226446
-0.06511104596840107,-0.06511104596840107
-0.061033895704226446,-0.061033895704226446
-0.06511104596840107,-0.06511104596840107
-0.061033895704226446,-0.061033895704226446
-0.041463574436188255,-0.041463574436188255
-0.015369812745470666,-0.015369812745470666
-0.011292662481296043,-0.011292662481296043
-0.015369812745470666,-0.015369812745470666
-0.01944696300964529,-0.01944696300964529
-0.015369812745470666,-0.015369812745470666
-0.01944696300964529,-0.01944696300964529
-0.015369812745470666,-0.015369812745470666
-0.0015075018472769472,-0.0015075018472769472
0.02947884016045019,0.02947884016045019
0.0661731925380218,0.0661731925380218
0.11917614597229191,0.11917614597229191
0.17299452945939695,0.17299452945939695
0.20968888183696854,0.20968888183696854
0.21213517199547333,0.21213517199547333
0.20968888183696854,0.20968888183696854
0.2113197419426384,0.2113197419426384
0.20968888183696854,0.20968888183696854
0.17299452945939695,0.17299452945939695
0.11917614597229191,0.11917614597229191
0.07840464333054567,0.07840464333054567
0.07432749306637104,0.07432749306637104
0.08003550343621552,0.08003550343621552
0.07432749306637104,0.07432749306637104
0.04823373137565346,0.04823373137565346
0.02947884016045019,0.02947884016045019
0.022955399737770794,0.022955399737770794
0.02947884016045019,0.02947884016045019
0.02947884016045019,0.02947884016045019
0.02947884016045019,0.02947884016045019
0.027032550001945415,0.027032550001945415
0.02947884016045019,0.02947884016045019
0.025401689896275566,0.025401689896275566
0.02947884016045019,0.02947884016045019
0.04334115105864391,0.04334115105864391
0.07432749306637104,0.07432749306637104
0.10123668480992357,0.10123668480992357
0.11917614597229191,0.11917614597229191
0.12080700607796176,0.12080700607796176
0.11917614597229191,0.11917614597229191
0.11509899570811728,0.11509899570811728
0.11917614597229191,0.11917614597229191
0.11999157602512683,0.11999157602512683
0.11917614597229191,0.11917614597229191
0.11346813560244744,0.11346813560244744
0.11917614597229191,0.11917614597229191
0.1354847470289904,0.1354847470289904
0.16402479887821275,0.16402479887821275
0.1884877004632605,0.1884877004632605
0.20968888183696854,0.20968888183696854
0.21376603210114317,0.21376603210114317
0.20968888183696854,0.20968888183696854
0.20071915125578438,0.20071915125578438
0.20968888183696854,0.20968888183696854
0.21947404247098765,0.21947404247098765
0.20968888183696854,0.20968888183696854
0.1648402289310477,0.1648402289310477
0.11917614597229191,0.11917614597229191
0.08982066407023462,0.08982066407023462
0.07432749306637104,0.07432749306637104
0.04986459148132331,0.04986459148132331
0.02947884016045019,0.02947884016045019
0.009093088839577074,0.009093088839577074
-0.015369812745470666,-0.015369812745470666
-0.05124873507020735,-0.05124873507020735
-0.061033895704226446,-0.061033895704226446
-0.04064814438335333,-0.04064814438335333
-0.015369812745470666,-0.015369812745470666
-0.01781610290397544,-0.01781610290397544
-0.015369812745470666,-0.015369812745470666
0.0033850784697326006,0.0033850784697326006
0.02947884016045019,0.02947884016045019
0.02947884016045019,0.02947884016045019
0.02947884016045019,0.02947884016045019
0.03274056037178989,0.03274056037178989
0.02947884016045019,0.02947884016045019
-0.0015075018472769472,-0.0015075018472769472
-0.015369812745470666,-0.015369812745470666
0.00012335825839290205,0.00012335825839290205
0.02947884016045019,0.02947884016045019
0.027032550001945415,0.027032550001945415
0.02947884016045019,0.02947884016045019
0.05801889200967256,0.05801889200967256
0.11917614597229191,0.11917614597229191
0.17788710977640648,0.17788710977640648
0.2545375347428894,0.2545375347428894
0.36788231208694394,0.36788231208694394
0.5244448822312495,0.5244448822312495
0.6867154627453995,0.6867154627453995
0.8392008826255304,0.8392008826255304
0.9778239916074676,0.9778239916074676
1.1091082301138904,1.1091082301138904
1.2354998883033037,1.2354998883033037
1.3798310076550855,1.3798310076550855
1.5592256192787688,1.5592256192787688
1.7842843138612081,1.7842843138612081
2.0297287597645206,2.0297287597645206
2.280065785984842,2.280065785984842
2.530402812205164,2.530402812205164
2.7750318280556416,2.7750318280556416
2.9242555277244326,2.9242555277244326
2.8647291338674834,2.8647291338674834
2.5467114132618627,2.5467114132618627
2.0550070914024032,2.0550070914024032
1.4964375052104797,1.4964375052104797
0.9297136184902071,0.9297136184902071
0.36135887166426456,0.36135887166426456
-0.15073120151606817,-0.15073120151606817
-0.542137626876832,-0.542137626876832
-0.781058632357465,-0.781058632357465
-0.9172354511808973,-0.9172354511808973
-1.0061173269399042,-1.0061173269399042
-1.1064152234386,-1.1064152234386
-1.2311760215223433,-1.2311760215223433
-1.3689837004514456,-1.3689837004514456
-1.4562347161047826,-1.4562347161047826
-1.4554192860519477,-1.4554192860519477
-1.365721980240106,-1.365721980240106
-1.2507463427903815,-1.2507463427903815
-1.1406632856576668,-1.1406632856576668
-1.0428116793174758,-1.0428116793174758
-0.9156045910752275,-0.9156045910752275
-0.7745351919347856,-0.7745351919347856
-0.6456972435868674,-0.6456972435868674
-0.5666005284618798,-0.5666005284618798
-0.5111512848691049,-0.5111512848691049
-0.4638563418046792,-0.4638563418046792
-0.4206385490044282,-0.4206385490044282
-0.3969910774722154,-0.3969910774722154
-0.3757898960985074,-0.3757898960985074
-0.3480652743021199,-0.3480652743021199
-0.3309412431925865,-0.3309412431925865
-0.35785043493613905,-0.35785043493613905
-0.4206385490044282,-0.4206385490044282
-0.4834266630727174,-0.4834266630727174
-0.5111512848691049,-0.5111512848691049
-0.5119667149219398,-0.5119667149219398
-0.5111512848691049,-0.5111512848691049
-0.5274598859258034,-0.5274598859258034
-0.5559999377750258,-0.5559999377750258
-0.5837245595714131,-0.5837245595714131
-0.6008485906809465,-0.6008485906809465
-0.6196034818961499,-0.6196034818961499
-0.6456972435868674,-0.6456972435868674
-0.6758681555417596,-0.6758681555417596
-0.6905458964927883,-0.6905458964927883
-0.704408207390982,-0.704408207390982
-0.7362099794515441,-0.7362099794515441
-0.7900283629386491,-0.7900283629386491
-0.8259072852633857,-0.8259072852633857
-0.8316152956332302,-0.8316152956332302
-0.8259072852633857,-0.8259072852633857
-0.8446621764785891,-0.8446621764785891
-0.8707559381693066,-0.8707559381693066
-0.8821719589089956,-0.8821719589089956
-0.8707559381693066,-0.8707559381693066
-0.867494217957967,-0.867494217957967
-0.8707559381693066,-0.8707559381693066
-0.8658633578522971,-0.8658633578522971
-0.8259072852633857,-0.8259072852633857
-0.7631191711950966,-0.7631191711950966
-0.6905458964927883,-0.6905458964927883
-0.6261269223188293,-0.6261269223188293
-0.5559999377750258,-0.5559999377750258
-0.47364150243869835,-0.47364150243869835
-0.3757898960985074,-0.3757898960985074
-0.2812000099696561,-0.2812000099696561
-0.19557985442198902,-0.19557985442198902
-0.1254528698781855,-0.1254528698781855
-0.061033895704226446,-0.061033895704226446
-0.009661802375626194,-0.009661802375626194
0.02947884016045019,0.02947884016045019
0.06454233243235195,0.06454233243235195
0.11917614597229191,0.11917614597229191
0.17625624967073664,0.17625624967073664
0.20968888183696854,0.20968888183696854
0.20724259167846376,0.20724259167846376
0.20968888183696854,0.20968888183696854
0.2308900632106766,0.2308900632106766
0.2545375347428894,0.2545375347428894
0.24230608395036554,0.24230608395036554
0.20968888183696854,0.20968888183696854
0.17870253982924142,0.17870253982924142
0.16402479887821275,0.16402479887821275
0.14445447761017458,0.14445447761017458
0.11917614597229191,0.11917614597229191
0.09145152417590446,0.09145152417590446
0.07432749306637104,0.07432749306637104
0.06372690237951703,0.06372690237951703
0.07432749306637104,0.07432749306637104
0.09552867444007909,0.09552867444007909
0.11917614597229191,0.11917614597229191
0.1224378661836316,0.1224378661836316
0.11917614597229191,0.11917614597229191
0.11346813560244744,0.11346813560244744
0.11917614597229191,0.11917614597229191
0.13303845687048563,0.13303845687048563
0.16402479887821275,0.16402479887821275
0.19419571083310497,0.19419571083310497
0.20968888183696854,0.20968888183696854
0.20235001136145422,0.20235001136145422
0.20968888183696854,0.20968888183696854
0.2439369440560354,0.2439369440560354
0.29938618764881025,0.29938618764881025
0.3328188198150422,0.3328188198150422
0.34423484055473114,0.34423484055473114
0.3540200011887502,0.3540200011887502
0.38908349346065196,0.38908349346065196
0.4249624157853887,0.4249624157853887
0.43474757641940776,0.43474757641940776
0.40865381472869017,0.40865381472869017
0.38908349346065196,0.38908349346065196
0.3866372033021472,0.3866372033021472
0.38908349346065196,0.38908349346065196
0.36951317219261376,0.36951317219261376
0.34423484055473114,0.34423484055473114
0.32221822912818815,0.32221822912818815
0.29938618764881025,0.29938618764881025
0.25372210469005446,0.25372210469005446
0.20968888183696854,0.20968888183696854
0.19093399062176528,0.19093399062176528
0.20968888183696854,0.20968888183696854
0.22192033262949243,0.22192033262949243
0.20968888183696854,0.20968888183696854
0.17707167972357155,0.17707167972357155
0.16402479887821275,0.16402479887821275
0.1648402289310477,0.1648402289310477
0.16402479887821275,0.16402479887821275
0.14037732734599995,0.14037732734599995
0.11917614597229191,0.11917614597229191
0.11183727549677758,0.11183727549677758
0.11917614597229191,0.11917614597229191
0.11672985581378713,0.11672985581378713
0.11917614597229191,0.11917614597229191
0.13303845687048563,0.13303845687048563
0.16402479887821275,0.16402479887821275
0.18767227041042558,0.18767227041042558
0.20968888183696854,0.20968888183696854
0.22681291294650197,0.22681291294650197
0.2545375347428894,0.2545375347428894
0.27573871611659745,0.27573871611659745
0.29938618764881025,0.29938618764881025
0.3165102187583437,0.3165102187583437
0.34423484055473114,0.34423484055473114
0.36625145198127407,0.36625145198127407
0.38908349346065196,0.38908349346065196
0.39234521367199165,0.39234521367199165
0.38908349346065196,0.38908349346065196
0.377667472720963,0.377667472720963
0.38908349346065196,0.38908349346065196
0.432301286260903,0.432301286260903
0.5244448822312495,0.5244448822312495
0.6500211103678278,0.6500211103678278
0.7943522297196095,0.7943522297196095
0.9207438879090228,0.9207438879090228
1.0194109243020488,1.0194109243020488
1.0993230694798715,1.0993230694798715
1.199620965978567,1.199620965978567
1.3357977848019995,1.3357977848019995
1.5143769663728481,1.5143769663728481
1.7329122205326077,1.7329122205326077
2.0093430084436474,2.0093430084436474
2.329807019207773,2.329807019207773
2.639670439285044,2.639670439285044
2.8508668229692895,2.8508668229692895
2.9095777867734043,2.9095777867734043
2.7905249990595054,2.7905249990595054
2.5051244805672814,2.5051244805672814
2.064792252036422,2.064792252036422
1.5143769663728481,1.5143769663728481
0.9003581365881498,0.9003581365881498
0.29938618764881025,0.29938618764881025
-0.2110730254258526,-0.2110730254258526
-0.5559999377750258,-0.5559999377750258
-0.7411025597685537,-0.7411025597685537
-0.8259072852633857,-0.8259072852633857
-0.8919571195430147,-0.8919571195430147
-0.9604532439811484,-0.9604532439811484
-1.0362882388947963,-1.0362882388947963
-1.095814632751746,-1.095814632751746
-1.1276164048123078,-1.1276164048123078
-1.095814632751746,-1.095814632751746
-1.0159024875739233,-1.0159024875739233
-0.9156045910752275,-0.9156045910752275
-0.8307998655803953,-0.8307998655803953
-0.7362099794515441,-0.7362099794515441
-0.6367275130056833,-0.6367275130056833
-0.5559999377750258,-0.5559999377750258
-0.5266444558729685,-0.5266444558729685
-0.5111512848691049,-0.5111512848691049
-0.488319243389727,-0.488319243389727
-0.4654872019103491,-0.4654872019103491
-0.4785340827557079,-0.4785340827557079
-0.5111512848691049,-0.5111512848691049
-0.5388759066654923,-0.5388759066654923
-0.5559999377750258,-0.5559999377750258
-0.5788319792544037,-0.5788319792544037
-0.6008485906809465,-0.6008485906809465
-0.6090028912092958,-0.6090028912092958
-0.6008485906809465,-0.6008485906809465
-0.5975868704696069,-0.5975868704696069
-0.6008485906809465,-0.6008485906809465
-0.6049257409451212,-0.6049257409451212
-0.6008485906809465,-0.6008485906809465
-0.5992177305752767,-0.5992177305752767
-0.6008485906809465,-0.6008485906809465
-0.6049257409451212,-0.6049257409451212
-0.6008485906809465,-0.6008485906809465
-0.596771440416772,-0.596771440416772
-0.6008485906809465,-0.6008485906809465
-0.6228652021074895,-0.6228652021074895
-0.6456972435868674,-0.6456972435868674
-0.6571132643265564,-0.6571132643265564
-0.6456972435868674,-0.6456972435868674
-0.6253114922659944,-0.6253114922659944
-0.6008485906809465,-0.6008485906809465
-0.5804628393600735,-0.5804628393600735
-0.5559999377750258,-0.5559999377750258
-0.5339833263484828,-0.5339833263484828
-0.5111512848691049,-0.5111512848691049
-0.4915809636010667,-0.4915809636010667
-0.4654872019103491,-0.4654872019103491
-0.4410243003253014,-0.4410243003253014
-0.4206385490044282,-0.4206385490044282
-0.4181922588459235,-0.4181922588459235
-0.4206385490044282,-0.4206385490044282
-0.42471569926860286,-0.42471569926860286
-0.4206385490044282,-0.4206385490044282
-0.40922252826473926,-0.40922252826473926
-0.3757898960985074,-0.3757898960985074
-0.33175667324542146,-0.33175667324542146
-0.28609259028666567,-0.28609259028666567
-0.2477673778034242,-0.2477673778034242
-0.19557985442198902,-0.19557985442198902
-0.12953002014236012,-0.12953002014236012
-0.061033895704226446,-0.061033895704226446
-0.012923522586965892,-0.012923522586965892
0.02947884016045019,0.02947884016045019
0.07351206301353612,0.07351206301353612
0.11917614597229191,0.11917614597229191
0.14526990766300948,0.14526990766300948
0.16402479887821275,0.16402479887821275
0.1844105501990859,0.1844105501990859
0.20968888183696854,0.20968888183696854
0.21702775231248286,0.21702775231248286
0.20968888183696854,0.20968888183696854
0.18604141030475574,0.18604141030475574
0.16402479887821275,0.16402479887821275
0.15097791803285396,0.15097791803285396
0.16402479887821275,0.16402479887821275
0.19011856056893034,0.19011856056893034
0.20968888183696854,0.20968888183696854
0.20642716162562885,0.20642716162562885
0.20968888183696854,0.20968888183696854
0.22762834299933687,0.22762834299933687
0.2545375347428894,0.2545375347428894
0.27329242595809267,0.27329242595809267
0.29938618764881025,0.29938618764881025
0.31569478870550877,0.31569478870550877
0.29938618764881025,0.29938618764881025
0.2447523741088703,0.2447523741088703
0.20968888183696854,0.20968888183696854
0.2088734517841336,0.2088734517841336
0.20968888183696854,0.20968888183696854
0.16647108903671753,0.16647108903671753
0.11917614597229191,0.11917614597229191
0.10612926512693312,0.10612926512693312
0.11917614597229191,0.11917614597229191
0.10531383507409818,0.10531383507409818
0.07432749306637104,0.07432749306637104
0.05720346195683763,0.05720346195683763
0.07432749306637104,0.07432749306637104
0.08574351380605999,0.08574351380605999
0.07432749306637104,0.07432749306637104
0.04415658111147883,0.04415658111147883
0.02947884016045019,0.02947884016045019
0.026217119949110492,0.026217119949110492
0.02947884016045019,0.02947884016045019
0.023770829790605717,0.023770829790605717
0.02947884016045019,0.02947884016045019
0.04660287126998361,0.04660287126998361
0.07432749306637104,0.07432749306637104
0.08085093348905044,0.08085093348905044
0.07432749306637104,0.07432749306637104
0.07677378322487582,0.07677378322487582
0.11917614597229191,0.11917614597229191
0.1754408196179017,0.1754408196179017
0.20968888183696854,0.20968888183696854
0.20561173157279392,0.20561173157279392
0.20968888183696854,0.20968888183696854
0.2439369440560354,0.2439369440560354
0.29938618764881025,0.29938618764881025
0.3328188198150422,0.3328188198150422
0.34423484055473114,0.34423484055473114
0.34260398044906126,0.34260398044906126
0.34423484055473114,0.34423484055473114
0.34260398044906126,0.34260398044906126
0.34423484055473114,0.34423484055473114
0.3328188198150422,0.3328188198150422
0.29938618764881025,0.29938618764881025
0.24312151400320045,0.24312151400320045
0.20968888183696854,0.20968888183696854
0.20561173157279392,0.20561173157279392
0.20968888183696854,0.20968888183696854
0.17299452945939695,0.17299452945939695
0.11917614597229191,0.11917614597229191
0.07758921327771075,0.07758921327771075
0.07432749306637104,0.07432749306637104
0.07514292311920598,0.07514292311920598
0.07432749306637104,0.07432749306637104
0.05231088163982808,0.05231088163982808
0.02947884016045019,0.02947884016045019
0.009908518892411998,0.009908518892411998
0.02947884016045019,0.02947884016045019
0.08085093348905044,0.08085093348905044
0.16402479887821275,0.16402479887821275
0.27329242595809267,0.27329242595809267
0.43474757641940776,0.43474757641940776
0.6231119186242754,0.6231119186242754
0.7943522297196095,0.7943522297196095
0.9248210381731975,0.9248210381731975
1.0642595772079697,1.0642595772079697
1.2371307484089737,1.2371307484089737
1.4246796605610064,1.4246796605610064
1.6187520131357185,1.6187520131357185
1.8747970497258848,1.8747970497258848
2.1928147703315055,2.1928147703315055
2.5051244805672814,2.5051244805672814
2.7644312373687874,2.7644312373687874
3.000090522638081,3.000090522638081
3.149314222306872,3.149314222306872
3.044939175544002,3.044939175544002
2.5988989366432977,2.5988989366432977
1.9644943555377266,1.9644943555377266
1.3325360645906599,1.3325360645906599
0.7495035768136887,0.7495035768136887
0.17380995951223185,0.17380995951223185
-0.3309412431925865,-0.3309412431925865
-0.6636367047492358,-0.6636367047492358
-0.8259072852633857,-0.8259072852633857
-0.9335440522375958,-0.9335440522375958
-1.050965979845825,-1.050965979845825
-1.1757267779295686,-1.1757267779295686
-1.2760246744282642,-1.2760246744282642
-1.3591985398174264,-1.3591985398174264
-1.4105706331460268,-1.4105706331460268
-1.4211712238328809,-1.4211712238328809
-1.365721980240106,-1.365721980240106
-1.267870373899915,-1.267870373899915
-1.1406632856576668,-1.1406632856576668
-1.0240567881022724,-1.0240567881022724
-0.9156045910752275,-0.9156045910752275
-0.8259072852633857,-0.8259072852633857
-0.7362099794515441,-0.7362099794515441
-0.661190414590731,-0.661190414590731
-0.6008485906809465,-0.6008485906809465
-0.5706776787260543,-0.5706776787260543
-0.5559999377750258,-0.5559999377750258
-0.542137626876832,-0.542137626876832
-0.5111512848691049,-0.5111512848691049
-0.4785340827557079,-0.4785340827557079
-0.4654872019103491,-0.4654872019103491
-0.47282607238586344,-0.47282607238586344
-0.4654872019103491,-0.4654872019103491
-0.4402088702724664,-0.4402088702724664
-0.4206385490044282,-0.4206385490044282
-0.42390026921576796,-0.42390026921576796
-0.4206385490044282,-0.4206385490044282
-0.3969910774722154,-0.3969910774722154
-0.3757898960985074,-0.3757898960985074
-0.37823618625701216,-0.37823618625701216
-0.3757898960985074,-0.3757898960985074
-0.3505115644606247,-0.3505115644606247
-0.3309412431925865,-0.3309412431925865
-0.35948129504180887,-0.35948129504180887
-0.4206385490044282,-0.4206385490044282
-0.4891346734425619,-0.4891346734425619
-0.5559999377750258,-0.5559999377750258
-0.6318349326886737,-0.6318349326886737
-0.6905458964927883,-0.6905458964927883
-0.7199013783948456,-0.7199013783948456
-0.7362099794515441,-0.7362099794515441
-0.7753506219876205,-0.7753506219876205
-0.8259072852633857,-0.8259072852633857
-0.8626016376409574,-0.8626016376409574
-0.8707559381693066,-0.8707559381693066
-0.8732022283278115,-0.8732022283278115
-0.8707559381693066,-0.8707559381693066
-0.8609707775352876,-0.8609707775352876
-0.8259072852633857,-0.8259072852633857
-0.7826894924631348,-0.7826894924631348
-0.7362099794515441,-0.7362099794515441
-0.683207026017274,-0.683207026017274
-0.6008485906809465,-0.6008485906809465
-0.5046278444464255,-0.5046278444464255
-0.4206385490044282,-0.4206385490044282
-0.36111215514747874,-0.36111215514747874
-0.28609259028666567,-0.28609259028666567
-0.1915027041578144,-0.1915027041578144
-0.1058825486101473,-0.1058825486101473
-0.0594030355985566,-0.0594030355985566
-0.015369812745470666,-0.015369812745470666
0.04823373137565346,0.04823373137565346
0.11917614597229191,0.11917614597229191
0.16647108903671753,0.16647108903671753
0.20968888183696854,0.20968888183696854
0.25943011505989894,0.25943011505989894
0.29938618764881025,0.29938618764881025
0.30264790786014995,0.30264790786014995
0.29938618764881025,0.29938618764881025
0.3173256488111786,0.3173256488111786
0.34423484055473114,0.34423484055473114
0.3360805400263819,0.3360805400263819
0.29938618764881025,0.29938618764881025
0.2643226953769085,0.2643226953769085
0.2545375347428894,0.2545375347428894
0.2414906538975306,0.2414906538975306
0.20968888183696854,0.20968888183696854
0.15913221856120321,0.15913221856120321
0.11917614597229191,0.11917614597229191
0.09226695422873939,0.09226695422873939
0.07432749306637104,0.07432749306637104
0.04823373137565346,0.04823373137565346
0.02947884016045019,0.02947884016045019
0.022139969684935867,0.022139969684935867
0.02947884016045019,0.02947884016045019
0.02947884016045019,0.02947884016045019
0.02947884016045019,0.02947884016045019
0.026217119949110492,0.026217119949110492
0.02947884016045019,0.02947884016045019
0.027032550001945415,0.027032550001945415
0.02947884016045019,0.02947884016045019
0.028663410107615264,0.028663410107615264
0.02947884016045019,0.02947884016045019
0.024586259843440643,0.024586259843440643
0.02947884016045019,0.02947884016045019
0.03192513031895496,0.03192513031895496
0.02947884016045019,0.02947884016045019
0.01887824947359617,0.01887824947359617
0.02947884016045019,0.02947884016045019
0.05475717179833286,0.05475717179833286
0.07432749306637104,0.07432749306637104
0.06861948269652658,0.06861948269652658
0.07432749306637104,0.07432749306637104
0.10939098533827281,0.10939098533827281
0.16402479887821275,0.16402479887821275
0.19664200099160975,0.19664200099160975
0.20968888183696854,0.20968888183696854
0.2088734517841336,0.2088734517841336
0.20968888183696854,0.20968888183696854
0.19011856056893034,0.19011856056893034
0.16402479887821275,0.16402479887821275
0.14771619782151427,0.14771619782151427
0.16402479887821275,0.16402479887821275
0.17788710977640648,0.17788710977640648
0.16402479887821275,0.16402479887821275
0.11346813560244744,0.11346813560244744
0.07432749306637104,0.07432749306637104
0.04823373137565346,0.04823373137565346
0.02947884016045019,0.02947884016045019
0.005831368628237374,0.005831368628237374
0.02947884016045019,0.02947884016045019
0.10612926512693312,0.10612926512693312
0.20968888183696854,0.20968888183696854
0.30590962807148964,0.30590962807148964
0.43474757641940776,0.43474757641940776
0.6100650377789165,0.6100650377789165
0.7943522297196095,0.7943522297196095
0.9354216288600515,0.9354216288600515
1.0642595772079697,1.0642595772079697
1.2248992976164497,1.2248992976164497
1.4246796605610064,1.4246796605610064
1.6358760442452518,1.6358760442452518
1.8747970497258848,1.8747970497258848
2.152858697742594,2.152858697742594
2.4594603976085256,2.4594603976085256
2.7644312373687874,2.7644312373687874
3.044939175544002,3.044939175544002
3.2096560462166566,3.2096560462166566
3.134636481355843,3.134636481355843
2.772585537897137,2.772585537897137
2.2344017030260863,2.2344017030260863
1.6489229250906106,1.6489229250906106
1.0642595772079697,1.0642595772079697
0.47388821895548416,0.47388821895548416
-0.061033895704226446,-0.061033895704226446
-0.45814833143483474,-0.45814833143483474
-0.6905458964927883,-0.6905458964927883
-0.823460995104881,-0.823460995104881
-0.9156045910752275,-0.9156045910752275
-1.018348777732428,-1.018348777732428
-1.1406632856576668,-1.1406632856576668
-1.2752092443754293,-1.2752092443754293
-1.365721980240106,-1.365721980240106
-1.3820305812968043,-1.3820305812968043
-1.320873327334185,-1.320873327334185
-1.235253171786518,-1.235253171786518
-1.1406632856576668,-1.1406632856576668
-1.0419962492646409,-1.0419962492646409
-0.9156045910752275,-0.9156045910752275
-0.791659223044319,-0.791659223044319
-0.6905458964927883,-0.6905458964927883
-0.6367275130056833,-0.6367275130056833
-0.6008485906809465,-0.6008485906809465
-0.586170849729918,-0.586170849729918
-0.6008485906809465,-0.6008485906809465
-0.650589823903877,-0.650589823903877
-0.6905458964927883,-0.6905458964927883
-0.6987001970211375,-0.6987001970211375
-0.6905458964927883,-0.6905458964927883
-0.694623046756963,-0.694623046756963
-0.6905458964927883,-0.6905458964927883
-0.6562978342737215,-0.6562978342737215
-0.6008485906809465,-0.6008485906809465
-0.5633388082505401,-0.5633388082505401
-0.5559999377750258,-0.5559999377750258
-0.5706776787260543,-0.5706776787260543
-0.6008485906809465,-0.6008485906809465
-0.6481435337453723,-0.6481435337453723
-0.6905458964927883,-0.6905458964927883
-0.7068544975494868,-0.7068544975494868
-0.6905458964927883,-0.6905458964927883
-0.6774990156474295,-0.6774990156474295
-0.6905458964927883,-0.6905458964927883
-0.7362099794515441,-0.7362099794515441
-0.781058632357465,-0.781058632357465
-0.8112295443123572,-0.8112295443123572
-0.8259072852633857,-0.8259072852633857
-0.8462930365842589,-0.8462930365842589
-0.8707559381693066,-0.8707559381693066
-0.8984805599656941,-0.8984805599656941
-0.9156045910752275,-0.9156045910752275
-0.9245743216564117,-0.9245743216564117
-0.9156045910752275,-0.9156045910752275
-0.8968496998600243,-0.8968496998600243
-0.8707559381693066,-0.8707559381693066
-0.8511856169012685,-0.8511856169012685
-0.8259072852633857,-0.8259072852633857
-0.790843792991484,-0.790843792991484
-0.7362099794515441,-0.7362099794515441
-0.6717910052775851,-0.6717910052775851
-0.6008485906809465,-0.6008485906809465
-0.5347987564013177,-0.5347987564013177
-0.4654872019103491,-0.4654872019103491
-0.38802134689103124,-0.38802134689103124
-0.28609259028666567,-0.28609259028666567
-0.17111695283694128,-0.17111695283694128
-0.061033895704226446,-0.061033895704226446
0.01887824947359617,0.01887824947359617
0.07432749306637104,0.07432749306637104
0.11754528586662205,0.11754528586662205
0.16402479887821275,0.16402479887821275
0.1982728610972796,0.1982728610972796
0.20968888183696854,0.20968888183696854
0.19093399062176528,0.19093399062176528
0.16402479887821275,0.16402479887821275
0.13793103718749516,0.13793103718749516
0.11917614597229191,0.11917614597229191
0.10939098533827281,0.10939098533827281
0.11917614597229191,0.11917614597229191
0.13059216671198084,0.13059216671198084
0.11917614597229191,0.11917614597229191
0.07351206301353612,0.07351206301353612
0.02947884016045019,0.02947884016045019
0.014801099209421546,0.014801099209421546
0.02947884016045019,0.02947884016045019
0.03600228058312959,0.03600228058312959
0.02947884016045019,0.02947884016045019
0.019693679526431095,0.019693679526431095
0.02947884016045019,0.02947884016045019
0.03763314068879944,0.03763314068879944
0.02947884016045019,0.02947884016045019
0.0009387883112278267,0.0009387883112278267
-0.015369812745470666,-0.015369812745470666
-0.018631532956810366,-0.018631532956810366
-0.015369812745470666,-0.015369812745470666
-0.022708683220984988,-0.022708683220984988
-0.015369812745470666,-0.015369812745470666
0.0066467986810723,0.0066467986810723
0.02947884016045019,0.02947884016045019
0.028663410107615264,0.028663410107615264
0.02947884016045019,0.02947884016045019
0.045787441217148686,0.045787441217148686
0.07432749306637104,0.07432749306637104
0.08085093348905044,0.08085093348905044
0.07432749306637104,0.07432749306637104
0.06780405264369165,0.06780405264369165
0.07432749306637104,0.07432749306637104
0.07514292311920598,0.07514292311920598
0.07432749306637104,0.07432749306637104
0.07025034280219643,0.07025034280219643
0.07432749306637104,0.07432749306637104
0.07351206301353612,0.07351206301353612
0.07432749306637104,0.07432749306637104
0.07106577285503135,0.07106577285503135
0.07432749306637104,0.07432749306637104
0.0726966329607012,0.0726966329607012
0.07432749306637104,0.07432749306637104
0.07106577285503135,0.07106577285503135
0.07432749306637104,0.07432749306637104
0.0726966329607012,0.0726966329607012
0.07432749306637104,0.07432749306637104
0.06780405264369165,0.06780405264369165
0.07432749306637104,0.07432749306637104
0.0890052340173997,0.0890052340173997
0.11917614597229191,0.11917614597229191
0.12977673665914594,0.12977673665914594
0.11917614597229191,0.11917614597229191
0.08492808375322507,0.08492808375322507
0.07432749306637104,0.07432749306637104
0.09797496459858386,0.09797496459858386
0.16402479887821275,0.16402479887821275
0.25698382490139415,0.25698382490139415
0.38908349346065196,0.38908349346065196
0.5456460636049575,0.5456460636049575
0.7046549239077678,0.7046549239077678
0.8506169033652193,0.8506169033652193
1.0194109243020488,1.0194109243020488
1.2273455877749546,1.2273455877749546
1.4695283134669272,1.4695283134669272
1.7386202309024523,1.7386202309024523
2.0550070914024032,2.0550070914024032
2.3885179830118872,2.3885179830118872
2.684519092190965,2.684519092190965
2.935671548464122,2.935671548464122
3.179485134261764,3.179485134261764
3.3360477044060697,3.3360477044060697
3.22514921722052,3.22514921722052
2.7831861285839907,2.7831861285839907
2.189553050120166,2.189553050120166
1.6179365830828836,1.6179365830828836
1.0642595772079697,1.0642595772079697
0.46165676816296025,0.46165676816296025
-0.1058825486101473,-0.1058825486101473
-0.5087049947106,-0.5087049947106
-0.7362099794515441,-0.7362099794515441
-0.88787996927884,-0.88787996927884
-1.0061173269399042,-1.0061173269399042
-1.0982609229102507,-1.0982609229102507
-1.1855119385635875,-1.1855119385635875
-1.3070110164359914,-1.3070110164359914
-1.4105706331460268,-1.4105706331460268
-1.4350335347310745,-1.4350335347310745
-1.365721980240106,-1.365721980240106
-1.2743938143225944,-1.2743938143225944
-1.1855119385635875,-1.1855119385635875
-1.092552912540406,-1.092552912540406
-0.9604532439811484,-0.9604532439811484
-0.8291690054747255,-0.8291690054747255
-0.7362099794515441,-0.7362099794515441
-0.705223637443817,-0.705223637443817
-0.6905458964927883,-0.6905458964927883
-0.6693447151190802,-0.6693447151190802
-0.6456972435868674,-0.6456972435868674
-0.6562978342737215,-0.6562978342737215
-0.6905458964927883,-0.6905458964927883
-0.7239785286590202,-0.7239785286590202
-0.7362099794515441,-0.7362099794515441
-0.7386562696100488,-0.7386562696100488
-0.7362099794515441,-0.7362099794515441
-0.7345791193458743,-0.7345791193458743
-0.7362099794515441,-0.7362099794515441
-0.7402871297157188,-0.7402871297157188
-0.7362099794515441,-0.7362099794515441
-0.7280556789231949,-0.7280556789231949
-0.7362099794515441,-0.7362099794515441
-0.7631191711950966,-0.7631191711950966
-0.781058632357465,-0.781058632357465
-0.7802432023046301,-0.7802432023046301
-0.781058632357465,-0.781058632357465
-0.8038906738368429,-0.8038906738368429
-0.8259072852633857,-0.8259072852633857
-0.8307998655803953,-0.8307998655803953
-0.8259072852633857,-0.8259072852633857
-0.8307998655803953,-0.8307998655803953
-0.8259072852633857,-0.8259072852633857
-0.8055215339425127,-0.8055215339425127
-0.781058632357465,-0.781058632357465
-0.779427772251795,-0.779427772251795
-0.781058632357465,-0.781058632357465
-0.7671963214592712,-0.7671963214592712
-0.7362099794515441,-0.7362099794515441
-0.7125625079193313,-0.7125625079193313
-0.6905458964927883,-0.6905458964927883
-0.6571132643265564,-0.6571132643265564
-0.6008485906809465,-0.6008485906809465
-0.5494764973523464,-0.5494764973523464
-0.5111512848691049,-0.5111512848691049
-0.47771865270287295,-0.47771865270287295
-0.4206385490044282,-0.4206385490044282
-0.3496961344077898,-0.3496961344077898
-0.28609259028666567,-0.28609259028666567
-0.24369022753924957,-0.24369022753924957
-0.19557985442198902,-0.19557985442198902
-0.13116088024802997,-0.13116088024802997
-0.061033895704226446,-0.061033895704226446
-0.012108092534130968,-0.012108092534130968
0.02947884016045019,0.02947884016045019
0.07351206301353612,0.07351206301353612
0.11917614597229191,0.11917614597229191
0.14526990766300948,0.14526990766300948
0.16402479887821275,0.16402479887821275
0.1852259802519208,0.1852259802519208
0.20968888183696854,0.20968888183696854
0.21539689220681302,0.21539689220681302
0.20968888183696854,0.20968888183696854
0.2015345813086193,0.2015345813086193
0.20968888183696854,0.20968888183696854
0.22599748289366703,0.22599748289366703
0.2545375347428894,0.2545375347428894
0.27981586638077205,0.27981586638077205
0.29938618764881025,0.29938618764881025
0.30183247780731504,0.30183247780731504
0.29938618764881025,0.29938618764881025
0.2944936073318007,0.2944936073318007
0.29938618764881025,0.29938618764881025
0.30020161770164516,0.30020161770164516
0.29938618764881025,0.29938618764881025
0.29286274722613087,0.29286274722613087
0.29938618764881025,0.29938618764881025
0.3165102187583437,0.3165102187583437
0.34423484055473114,0.34423484055473114
0.36706688203410903,0.36706688203410903
0.38908349346065196,0.38908349346065196
0.3972377939890012,0.3972377939890012
0.38908349346065196,0.38908349346065196
0.3629897317699344,0.3629897317699344
0.34423484055473114,0.34423484055473114
0.3271108094451977,0.3271108094451977
0.29938618764881025,0.29938618764881025
0.24801409432021002,0.24801409432021002
0.20968888183696854,0.20968888183696854
0.1974574310444447,0.1974574310444447
0.20968888183696854,0.20968888183696854
0.2113197419426384,0.2113197419426384
0.20968888183696854,0.20968888183696854
0.20642716162562885,0.20642716162562885
0.20968888183696854,0.20968888183696854
0.20561173157279392,0.20561173157279392
0.20968888183696854,0.20968888183696854
0.21213517199547333,0.21213517199547333
0.20968888183696854,0.20968888183696854
0.1958265709387748,0.1958265709387748
0.20968888183696854,0.20968888183696854
0.25209124458438464,0.25209124458438464
0.29938618764881025,0.29938618764881025
0.3083559182299944,0.3083559182299944
0.29938618764881025,0.29938618764881025
0.29204731717329596,0.29204731717329596
0.29938618764881025,0.29938618764881025
0.29857075759597534,0.29857075759597534
0.29938618764881025,0.29938618764881025
0.29857075759597534,0.29857075759597534
0.29938618764881025,0.29938618764881025
0.29204731717329596,0.29204731717329596
0.29938618764881025,0.29938618764881025
0.31977193896968337,0.31977193896968337
0.34423484055473114,0.34423484055473114
0.34505027060756605,0.34505027060756605
0.34423484055473114,0.34423484055473114
0.3548354312415851,0.3548354312415851
0.38908349346065196,0.38908349346065196
0.41517725515136955,0.41517725515136955
0.43474757641940776,0.43474757641940776
0.43474757641940776,0.43474757641940776
0.43474757641940776,0.43474757641940776
0.41273096499286477,0.41273096499286477
0.38908349346065196,0.38908349346065196
0.3572817214000899,0.3572817214000899
0.34423484055473114,0.34423484055473114
0.32221822912818815,0.32221822912818815
0.29938618764881025,0.29938618764881025
0.27166156585242285,0.27166156585242285
0.29938618764881025,0.29938618764881025
0.38582177324931227,0.38582177324931227
0.5244448822312495,0.5244448822312495
0.6663297114245263,0.6663297114245263
0.8392008826255304,0.8392008826255304
1.0862761886345125,1.0862761886345125
1.4695283134669272,1.4695283134669272
1.9726486560660756,1.9726486560660756
2.5499731334732023,2.5499731334732023
3.116697020193475,3.116697020193475
3.6296025234266427,3.6296025234266427
4.064226741587658,4.064226741587658
4.440139995944558,4.440139995944558
4.770389167342702,4.770389167342702
5.070467426785955,5.070467426785955
5.325697033323286,5.325697033323286
5.520584815950833,5.520584815950833
5.620882712449529,5.620882712449529
5.610282121762674,5.610282121762674
5.478997883256252,5.478997883256252
5.249862038409638,5.249862038409638
4.953860929230561,4.953860929230561
4.620350037621076,4.620350037621076
4.243621353211341,4.243621353211341
3.809812565103161,3.809812565103161
3.309953942715352,3.309953942715352
2.7750318280556416,2.7750318280556416
2.241740573501601,2.241740573501601
1.7394356609552872,1.7394356609552872
1.2493621992014976,1.2493621992014976
0.7495035768136887,0.7495035768136887
0.21458146215397808,0.21458146215397808
-0.3309412431925865,-0.3309412431925865
-0.8487393267427636,-0.8487393267427636
-1.2760246744282642,-1.2760246744282642
-1.5989349753508943,-1.5989349753508943
-1.8158393694049844,-1.8158393694049844
-1.9626167789152709,-1.9626167789152709
-2.0408980639874237,-2.0408980639874237
-2.079223276470665,-2.079223276470665
-2.0857467168933446,-2.0857467168933446
-2.092270157316024,-2.092270157316024
-2.0857467168933446,-2.0857467168933446
-2.0841158567876747,-2.0841158567876747
-2.0857467168933446,-2.0857467168933446
-2.1085787583727225,-2.1085787583727225
-2.1314107998521004,-2.1314107998521004
-2.1534274112786433,-2.1534274112786433
-2.1762594527580212,-2.1762594527580212
-2.2039840745544086,-2.2039840745544086
-2.221108105663942,-2.221108105663942
-2.2341549865093007,-2.2341549865093007
-2.265956758569863,-2.265956758569863
-2.318959712004133,-2.318959712004133
-2.3564694944345392,-2.3564694944345392
-2.357284924487374,-2.357284924487374
-2.3564694944345392,-2.3564694944345392
-2.3890866965479365,-2.3890866965479365
-2.446166800246381,-2.446166800246381
-2.481230292518283,-2.481230292518283
-2.491015453152302,-2.491015453152302
-2.513032064578845,-2.513032064578845
-2.5815281890169786,-2.5815281890169786
-2.675302645092995,-2.675302645092995
-2.760922800640662,-2.760922800640662
-2.826972634920291,-2.826972634920291
-2.8962841894112596,-2.8962841894112596
-2.9827197750117618,-2.9827197750117618
-3.076494231087778,-3.076494231087778
-3.16619153689962,-3.16619153689962
-3.255888842711461,-3.255888842711461
-3.3423244283119633,-3.3423244283119633
-3.3912502314820587,-3.3912502314820587
-3.3863576511650493,-3.3863576511650493
-3.346401578576138,-3.346401578576138
-3.3039992158287217,-3.3039992158287217
-3.255888842711461,-3.255888842711461
-3.182500137956318,-3.182500137956318
-3.076494231087778,-3.076494231087778
-2.9501025728983645,-2.9501025728983645
-2.805771453546583,-2.805771453546583
-2.651655173560782,-2.651655173560782
-2.491015453152302,-2.491015453152302
-2.3246677223739773,-2.3246677223739773
-2.1314107998521004,-2.1314107998521004
-1.9096138254810007,-1.9096138254810007
-1.6812934106872217,-1.6812934106872217
-1.472543317161481,-1.472543317161481
-1.2760246744282642,-1.2760246744282642
-1.0762443114837077,-1.0762443114837077
-0.8707559381693066,-0.8707559381693066
-0.6799453058059343,-0.6799453058059343
-0.5111512848691049,-0.5111512848691049
-0.3529578546191295,-0.3529578546191295
-0.19557985442198902,-0.19557985442198902
-0.04880244491170258,-0.04880244491170258
0.07432749306637104,0.07432749306637104
0.18277969009341602,0.18277969009341602
0.29938618764881025,0.29938618764881025
0.4233315556797188,0.4233315556797188
0.5244448822312495,0.5244448822312495
0.5807095558768592,0.5807095558768592
0.6141421880430912,0.6141421880430912
0.6557291207376723,0.6557291207376723
0.7046549239077678,0.7046549239077678
0.7258561052814758,0.7258561052814758
0.7046549239077678,0.7046549239077678
0.6557291207376723,0.6557291207376723
0.6141421880430912,0.6141421880430912
0.5872329962995386,0.5872329962995386
0.5692935351371703,0.5692935351371703
0.5456460636049575,0.5456460636049575
0.5244448822312495,0.5244448822312495
0.5007974106990366,0.5007974106990366
0.47959622932532864,0.47959622932532864
0.4518716075289412,0.4518716075289412
0.43474757641940776,0.43474757641940776
0.4265932758910585,0.4265932758910585
0.43474757641940776,0.43474757641940776
0.43556300647224266,0.43556300647224266
0.43474757641940776,0.43474757641940776
0.4290395660495633,0.4290395660495633
0.43474757641940776,0.43474757641940776
0.43556300647224266,0.43556300647224266
0.43474757641940776,0.43474757641940776
0.4257778458382236,0.4257778458382236
0.43474757641940776,0.43474757641940776
0.4526870375817761,0.4526870375817761
0.47959622932532864,0.47959622932532864
0.49753569048769697,0.49753569048769697
0.5244448822312495,0.5244448822312495
0.5497232138691321,0.5497232138691321
0.5692935351371703,0.5692935351371703
0.5668472449786656,0.5668472449786656
0.5692935351371703,0.5692935351371703
0.5847867061410339,0.5847867061410339
0.6141421880430912,0.6141421880430912
0.6361587994696342,0.6361587994696342
0.659806271001847,0.659806271001847
0.68182288242839,0.68182288242839
0.7046549239077678,0.7046549239077678
0.7071012140662726,0.7071012140662726
0.7046549239077678,0.7046549239077678
0.7013932036964281,0.7013932036964281
0.7046549239077678,0.7046549239077678
0.6883463228510693,0.6883463228510693
0.659806271001847,0.659806271001847
0.626373638835615,0.626373638835615
0.6141421880430912,0.6141421880430912
0.6133267579902563,0.6133267579902563
0.6141421880430912,0.6141421880430912
0.5953872968278879,0.5953872968278879
0.5692935351371703,0.5692935351371703
0.5407534832879479,0.5407534832879479
0.5244448822312495,0.5244448822312495
0.5032437008575414,0.5032437008575414
0.47959622932532864,0.47959622932532864
0.4494253173704364,0.4494253173704364
0.43474757641940776,0.43474757641940776
0.4290395660495633,0.4290395660495633
0.43474757641940776,0.43474757641940776
0.432301286260903,0.432301286260903
0.43474757641940776,0.43474757641940776
0.43148585620806806,0.43148585620806806
0.43474757641940776,0.43474757641940776
0.4298549961023982,0.4298549961023982
0.43474757641940776,0.43474757641940776
0.43393214636657285,0.43393214636657285
0.43474757641940776,0.43474757641940776
0.4249624157853887,0.4249624157853887
0.43474757641940776,0.43474757641940776
0.4518716075289412,0.4518716075289412
0.47959622932532864,0.47959622932532864
0.4934585402235223,0.4934585402235223
0.5244448822312495,0.5244448822312495
0.5758169755598497,0.5758169755598497
0.659806271001847,0.659806271001847
0.756842447289203,0.756842447289203
0.8848649655842862,0.8848649655842862
1.0365349554115821,1.0365349554115821
1.199620965978567,1.199620965978567
1.33090520448499,1.33090520448499
1.4246796605610064,1.4246796605610064
1.4882832046821304,1.4882832046821304
1.5592256192787688,1.5592256192787688
1.6636006660416391,1.6636006660416391
1.829948396819964,1.829948396819964
2.0533762312967334,2.0533762312967334
2.324914438890763,2.324914438890763
2.608684097277317,2.608684097277317
2.8647291338674834,2.8647291338674834
3.017214553747614,3.017214553747614
3.000090522638081,3.000090522638081
2.7831861285839907,2.7831861285839907
2.4146117447026048,2.4146117447026048
1.948185754481028,1.948185754481028
1.4246796605610064,1.4246796605610064
0.8555094836822289,0.8555094836822289
0.29938618764881025,0.29938618764881025
-0.16622437251993175,-0.16622437251993175
-0.4654872019103491,-0.4654872019103491
-0.61797262179048,-0.61797262179048
-0.6905458964927883,-0.6905458964927883
-0.769642611617776,-0.769642611617776
-0.8707559381693066,-0.8707559381693066
-0.9922550160417104,-0.9922550160417104
-1.095814632751746,-1.095814632751746
-1.15941817687287,-1.15941817687287
-1.1406632856576668,-1.1406632856576668
-1.050965979845825,-1.050965979845825
-0.9156045910752275,-0.9156045910752275
-0.7843203525688046,-0.7843203525688046
-0.6456972435868674,-0.6456972435868674
-0.5087049947106,-0.5087049947106
-0.3757898960985074,-0.3757898960985074
-0.27630742965264654,-0.27630742965264654
-0.19557985442198902,-0.19557985442198902
-0.13931518077637922,-0.13931518077637922
-0.1058825486101473,-0.1058825486101473
-0.10425168850447745,-0.10425168850447745
-0.1058825486101473,-0.1058825486101473
-0.10180539834597269,-0.10180539834597269
-0.1058825486101473,-0.1058825486101473
-0.14420776109338876,-0.14420776109338876
-0.19557985442198902,-0.19557985442198902
-0.23145877674672571,-0.23145877674672571
-0.24042850732790988,-0.24042850732790988
-0.2534753881732687,-0.2534753881732687
-0.28609259028666567,-0.28609259028666567
-0.33501839345676115,-0.33501839345676115
-0.3757898960985074,-0.3757898960985074
-0.40351451789489484,-0.40351451789489484
-0.4206385490044282,-0.4206385490044282
-0.4426551604309712,-0.4426551604309712
-0.4654872019103491,-0.4654872019103491
-0.4923963936539016,-0.4923963936539016
-0.5111512848691049,-0.5111512848691049
-0.520936445503124,-0.520936445503124
-0.5111512848691049,-0.5111512848691049
-0.5021815542879207,-0.5021815542879207
-0.5111512848691049,-0.5111512848691049
-0.5405067667711622,-0.5405067667711622
-0.5559999377750258,-0.5559999377750258
-0.5559999377750258,-0.5559999377750258
-0.5559999377750258,-0.5559999377750258
-0.5682313885675496,-0.5682313885675496
-0.5559999377750258,-0.5559999377750258
-0.5127821449747747,-0.5127821449747747
-0.4654872019103491,-0.4654872019103491
-0.4467323106951458,-0.4467323106951458
-0.4206385490044282,-0.4206385490044282
-0.36437387535881843,-0.36437387535881843
-0.28609259028666567,-0.28609259028666567
-0.21922732595420183,-0.21922732595420183
-0.15073120151606817,-0.15073120151606817
-0.06429561591556615,-0.06429561591556615
0.02947884016045019,0.02947884016045019
0.0890052340173997,0.0890052340173997
0.11917614597229191,0.11917614597229191
0.15097791803285396,0.15097791803285396
0.20968888183696854,0.20968888183696854
0.2675844155882482,0.2675844155882482
0.29938618764881025,0.29938618764881025
0.29857075759597534,0.29857075759597534
0.29938618764881025,0.29938618764881025
0.3165102187583437,0.3165102187583437
0.34423484055473114,0.34423484055473114
0.3532045711359153,0.3532045711359153
0.34423484055473114,0.34423484055473114
0.32140279907535324,0.32140279907535324
0.29938618764881025,0.29938618764881025
0.27329242595809267,0.27329242595809267
0.2545375347428894,0.2545375347428894
0.23252092331634644,0.23252092331634644
0.20968888183696854,0.20968888183696854
0.17870253982924142,0.17870253982924142
0.16402479887821275,0.16402479887821275
0.161578508719708,0.161578508719708
0.16402479887821275,0.16402479887821275
0.14282361750450473,0.14282361750450473
0.11917614597229191,0.11917614597229191
0.10449840502126326,0.10449840502126326
0.11917614597229191,0.11917614597229191
0.13793103718749516,0.13793103718749516
0.16402479887821275,0.16402479887821275
0.19419571083310497,0.19419571083310497
0.2545375347428894,0.2545375347428894
0.3580971514529248,0.3580971514529248
0.5244448822312495,0.5244448822312495
0.7283023954399807,0.7283023954399807
0.9297136184902071,0.9297136184902071
1.0862761886345125,1.0862761886345125
1.199620965978567,1.199620965978567
1.2730096707337104,1.2730096707337104
1.3341669246963297,1.3341669246963297
1.439357401512035,1.439357401512035
1.6497383551434455,1.6497383551434455
1.9294308632658248,1.9294308632658248
2.189553050120166,2.189553050120166
2.3950414234345665,2.3950414234345665
2.594821786379123,2.594821786379123
2.7334448953610604,2.7334448953610604
2.639670439285044,2.639670439285044
2.2164622418637183,2.2164622418637183
1.6048897022375246,1.6048897022375246
0.9900554423999914,0.9900554423999914
0.43474757641940776,0.43474757641940776
-0.08957394755344882,-0.08957394755344882
-0.5111512848691049,-0.5111512848691049
-0.748441430244068,-0.748441430244068
-0.8259072852633857,-0.8259072852633857
-0.8756485184863162,-0.8756485184863162
-0.9604532439811484,-0.9604532439811484
-1.0786906016422124,-1.0786906016422124
-1.1855119385635875,-1.1855119385635875
-1.254823493054556,-1.254823493054556
-1.2311760215223433,-1.2311760215223433
-1.117831244178289,-1.117831244178289
-0.9604532439811484,-0.9604532439811484
-0.8242764251577159,-0.8242764251577159
-0.6905458964927883,-0.6905458964927883
-0.552738217563686,-0.552738217563686
-0.4206385490044282,-0.4206385490044282
-0.33828011366810085,-0.33828011366810085
-0.28609259028666567,-0.28609259028666567
-0.2445056575920845,-0.2445056575920845
-0.19557985442198902,-0.19557985442198902
-0.15399292172740786,-0.15399292172740786
-0.1058825486101473,-0.1058825486101473
-0.05532588533438198,-0.05532588533438198
-0.015369812745470666,-0.015369812745470666
-0.008030942269956345,-0.008030942269956345
-0.015369812745470666,-0.015369812745470666
-0.03249384385500408,-0.03249384385500408
-0.061033895704226446,-0.061033895704226446
-0.109144268821487,-0.109144268821487
-0.15073120151606817,-0.15073120151606817
-0.1751941031011159,-0.1751941031011159
-0.19557985442198902,-0.19557985442198902
-0.2379822171694051,-0.2379822171694051
-0.28609259028666567,-0.28609259028666567
-0.31952522245289755,-0.31952522245289755
-0.3309412431925865,-0.3309412431925865
-0.3480652743021199,-0.3480652743021199
-0.3757898960985074,-0.3757898960985074
-0.40759166815906944,-0.40759166815906944
-0.4206385490044282,-0.4206385490044282
-0.42390026921576796,-0.42390026921576796
-0.4206385490044282,-0.4206385490044282
-0.423084839162933,-0.423084839162933
-0.4206385490044282,-0.4206385490044282
-0.4206385490044282,-0.4206385490044282
-0.4206385490044282,-0.4206385490044282
-0.42797741947994256,-0.42797741947994256
-0.4206385490044282,-0.4206385490044282
-0.39128306710237093,-0.39128306710237093
-0.3309412431925865,-0.3309412431925865
-0.2632605488072878,-0.2632605488072878
-0.19557985442198902,-0.19557985442198902
-0.13442260045936966,-0.13442260045936966
-0.061033895704226446,-0.061033895704226446
0.022955399737770794,0.022955399737770794
0.11917614597229191,0.11917614597229191
0.2113197419426384,0.2113197419426384
0.29938618764881025,0.29938618764881025
0.3727748924039535,0.3727748924039535
0.43474757641940776,0.43474757641940776
0.48122708943099846,0.48122708943099846
0.5244448822312495,0.5244448822312495
0.5554312242389766,0.5554312242389766
0.5692935351371703,0.5692935351371703
0.5546157941861417,0.5546157941861417
0.5244448822312495,0.5244448822312495
0.48122708943099846,0.48122708943099846
0.43474757641940776,0.43474757641940776
0.3825600530379726,0.3825600530379726
0.34423484055473114,0.34423484055473114
0.31814107886401355,0.31814107886401355
0.29938618764881025,0.29938618764881025
0.2618764052184037,0.2618764052184037
0.20968888183696854,0.20968888183696854
0.15342420819135874,0.15342420819135874
0.11917614597229191,0.11917614597229191
0.09552867444007909,0.09552867444007909
0.07432749306637104,0.07432749306637104
0.04415658111147883,0.04415658111147883
0.02947884016045019,0.02947884016045019
0.027032550001945415,0.027032550001945415
0.02947884016045019,0.02947884016045019
0.009908518892411998,0.009908518892411998
-0.015369812745470666,-0.015369812745470666
-0.030862983749334237,-0.030862983749334237
-0.015369812745470666,-0.015369812745470666
0.008277658786742149,0.008277658786742149
0.02947884016045019,0.02947884016045019
0.030294270213285117,0.030294270213285117
0.02947884016045019,0.02947884016045019
0.03844857074163436,0.03844857074163436
0.07432749306637104,0.07432749306637104
0.12080700607796176,0.12080700607796176
0.16402479887821275,0.16402479887821275
0.18767227041042558,0.18767227041042558
0.20968888183696854,0.20968888183696854
0.24312151400320045,0.24312151400320045
0.29938618764881025,0.29938618764881025
0.3401576902905565,0.3401576902905565
0.34423484055473114,0.34423484055473114
0.3148793586526738,0.3148793586526738
0.29938618764881025,0.29938618764881025
0.30264790786014995,0.30264790786014995
0.29938618764881025,0.29938618764881025
0.258614685007064,0.258614685007064
0.20968888183696854,0.20968888183696854
0.17625624967073664,0.17625624967073664
0.16402479887821275,0.16402479887821275
0.14363904755733964,0.14363904755733964
0.11917614597229191,0.11917614597229191
0.09389781433440925,0.09389781433440925
0.07432749306637104,0.07432749306637104
0.04823373137565346,0.04823373137565346
0.02947884016045019,0.02947884016045019
0.021324539632100944,0.021324539632100944
0.02947884016045019,0.02947884016045019
0.02947884016045019,0.02947884016045019
0.02947884016045019,0.02947884016045019
0.024586259843440643,0.024586259843440643
0.02947884016045019,0.02947884016045019
0.02784798005478034,0.02784798005478034
0.02947884016045019,0.02947884016045019
0.025401689896275566,0.025401689896275566
0.02947884016045019,0.02947884016045019
0.026217119949110492,0.026217119949110492
0.02947884016045019,0.02947884016045019
0.03763314068879944,0.03763314068879944
0.07432749306637104,0.07432749306637104
0.10694469517976804,0.10694469517976804
0.11917614597229191,0.11917614597229191
0.10368297496842833,0.10368297496842833
0.11917614597229191,0.11917614597229191
0.18767227041042558,0.18767227041042558
0.29938618764881025,0.29938618764881025
0.420885265521214,0.420885265521214
0.5692935351371703,0.5692935351371703
0.7470572866551839,0.7470572866551839
0.9297136184902071,0.9297136184902071
1.0756755979476587,1.0756755979476587
1.199620965978567,1.199620965978567
1.3243817640623106,1.3243817640623106
1.4695283134669272,1.4695283134669272
1.644845774826436,1.644845774826436
1.8747970497258848,1.8747970497258848
2.14388896716141,2.14388896716141
2.4146117447026048,2.4146117447026048
2.6665796310285965,2.6665796310285965
2.9095777867734043,2.9095777867734043
3.0685866470762146,3.0685866470762146
3.000090522638081,3.000090522638081
2.638855009232209,2.638855009232209
2.099855744308324,2.099855744308324
1.5176386865841878,1.5176386865841878
0.9297136184902071,0.9297136184902071
0.3173256488111786,0.3173256488111786
-0.24042850732790988,-0.24042850732790988
-0.6440663834811976,-0.6440663834811976
-0.8707559381693066,-0.8707559381693066
-1.0020401766757294,-1.0020401766757294
-1.095814632751746,-1.095814632751746
-1.1863273686164224,-1.1863273686164224
-1.2760246744282642,-1.2760246744282642
-1.365721980240106,-1.365721980240106
-1.4105706331460268,-1.4105706331460268
-1.3926311719836584,-1.3926311719836584
-1.320873327334185,-1.320873327334185
-1.2385148919978577,-1.2385148919978577
-1.1406632856576668,-1.1406632856576668
-1.0346573787891264,-1.0346573787891264
-0.9156045910752275,-0.9156045910752275
-0.8055215339425127,-0.8055215339425127
-0.6905458964927883,-0.6905458964927883
-0.5878017098355878,-0.5878017098355878
-0.5111512848691049,-0.5111512848691049
-0.48016494286137773,-0.48016494286137773
-0.4654872019103491,-0.4654872019103491
-0.4459168806423109,-0.4459168806423109
-0.4206385490044282,-0.4206385490044282
-0.4255311293214378,-0.4255311293214378
-0.4654872019103491,-0.4654872019103491
-0.520121015450289,-0.520121015450289
-0.5559999377750258,-0.5559999377750258
-0.5763856890958988,-0.5763856890958988
-0.6008485906809465,-0.6008485906809465
-0.6448818135340325,-0.6448818135340325
-0.6905458964927883,-0.6905458964927883
-0.7223476685533504,-0.7223476685533504
-0.7362099794515441,-0.7362099794515441
-0.7533340105610775,-0.7533340105610775
-0.781058632357465,-0.781058632357465
-0.8120449743651921,-0.8120449743651921
-0.8259072852633857,-0.8259072852633857
-0.8267227153162208,-0.8267227153162208
-0.8259072852633857,-0.8259072852633857
-0.8438467464257542,-0.8438467464257542
-0.8707559381693066,-0.8707559381693066
-0.88787996927884,-0.88787996927884
-0.8707559381693066,-0.8707559381693066
-0.8397695961615795,-0.8397695961615795
-0.8259072852633857,-0.8259072852633857
-0.8471084666370938,-0.8471084666370938
-0.8707559381693066,-0.8707559381693066
-0.8789102386976559,-0.8789102386976559
-0.8707559381693066,-0.8707559381693066
-0.8707559381693066,-0.8707559381693066
-0.8707559381693066,-0.8707559381693066
-0.8601553474824526,-0.8601553474824526
-0.8259072852633857,-0.8259072852633857
-0.7712734717234458,-0.7712734717234458
-0.6905458964927883,-0.6905458964927883
-0.5992177305752767,-0.5992177305752767
-0.5111512848691049,-0.5111512848691049
-0.43042370963844734,-0.43042370963844734
-0.3309412431925865,-0.3309412431925865
-0.21270388553152245,-0.21270388553152245
-0.1058825486101473,-0.1058825486101473
-0.04554072470036288,-0.04554072470036288
-0.015369812745470666,-0.015369812745470666
0.0066467986810723,0.0066467986810723
0.02947884016045019,0.02947884016045019
0.03437142047745974,0.03437142047745974
0.02947884016045019,0.02947884016045019
0.024586259843440643,0.024586259843440643
0.02947884016045019,0.02947884016045019
0.030294270213285117,0.030294270213285117
0.02947884016045019,0.02947884016045019
0.027032550001945415,0.027032550001945415
0.02947884016045019,0.02947884016045019
0.028663410107615264,0.028663410107615264
0.02947884016045019,0.02947884016045019
0.02784798005478034,0.02784798005478034
0.02947884016045019,0.02947884016045019
0.027032550001945415,0.027032550001945415
0.02947884016045019,0.02947884016045019
0.028663410107615264,0.028663410107615264
0.02947884016045019,0.02947884016045019
0.025401689896275566,0.025401689896275566
0.02947884016045019,0.02947884016045019
0.030294270213285117,0.030294270213285117
0.02947884016045019,0.02947884016045019
0.021324539632100944,0.021324539632100944
0.02947884016045019,0.02947884016045019
0.04986459148132331,0.04986459148132331
0.07432749306637104,0.07432749306637104
0.07677378322487582,0.07677378322487582
0.07432749306637104,0.07432749306637104
0.0824817935947203,0.0824817935947203
0.11917614597229191,0.11917614597229191
0.16565565898388263,0.16565565898388263
0.20968888183696854,0.20968888183696854
0.23496721347485122,0.23496721347485122
0.2545375347428894,0.2545375347428894
0.27166156585242285,0.27166156585242285
0.29938618764881025,0.29938618764881025
0.3140639285998389,0.3140639285998389
0.29938618764881025,0.29938618764881025
0.25209124458438464,0.25209124458438464
0.20968888183696854,0.20968888183696854
0.1819642600405811,0.1819642600405811
0.16402479887821275,0.16402479887821275
0.13711560713466026,0.13711560713466026
0.11917614597229191,0.11917614597229191
0.1159144257609522,0.1159144257609522
0.11917614597229191,0.11917614597229191
0.10205211486275849,0.10205211486275849
0.07432749306637104,0.07432749306637104
0.045787441217148686,0.045787441217148686
0.02947884016045019,0.02947884016045019
0.018062819420761246,0.018062819420761246
0.02947884016045019,0.02947884016045019
0.05231088163982808,0.05231088163982808
0.07432749306637104,0.07432749306637104
0.07432749306637104,0.07432749306637104
0.07432749306637104,0.07432749306637104
0.0759583531720409,0.0759583531720409
0.07432749306637104,0.07432749306637104
0.04986459148132331,0.04986459148132331
0.02947884016045019,0.02947884016045019
0.022955399737770794,0.022955399737770794
0.02947884016045019,0.02947884016045019
0.026217119949110492,0.026217119949110492
0.02947884016045019,0.02947884016045019
0.044972011164313756,0.044972011164313756
0.07432749306637104,0.07432749306637104
0.09471324438724417,0.09471324438724417
0.11917614597229191,0.11917614597229191
0.1550550682970286,0.1550550682970286
0.20968888183696854,0.20968888183696854
0.25943011505989894,0.25943011505989894
0.29938618764881025,0.29938618764881025
0.3124330684941691,0.3124330684941691
0.29938618764881025,0.29938618764881025
0.25616839484855924,0.25616839484855924
0.20968888183696854,0.20968888183696854
0.17380995951223185,0.17380995951223185
0.16402479887821275,0.16402479887821275
0.16320936882537784,0.16320936882537784
0.16402479887821275,0.16402479887821275
0.1485316278743492,0.1485316278743492
0.11917614597229191,0.11917614597229191
0.07106577285503135,0.07106577285503135
0.02947884016045019,0.02947884016045019
-0.003953792005781722,-0.003953792005781722
-0.015369812745470666,-0.015369812745470666
-0.021893253168150065,-0.021893253168150065
-0.015369812745470666,-0.015369812745470666
-0.017000672851140517,-0.017000672851140517
-0.015369812745470666,-0.015369812745470666
-0.022708683220984988,-0.022708683220984988
-0.015369812745470666,-0.015369812745470666
-0.0031383619529467967,-0.0031383619529467967
0.02947884016045019,0.02947884016045019
0.07677378322487582,0.07677378322487582
0.16402479887821275,0.16402479887821275
0.2871547368562864,0.2871547368562864
0.43474757641940776,0.43474757641940776
0.5717398252956751,0.5717398252956751
0.7046549239077678,0.7046549239077678
0.8563249137350638,0.8563249137350638
1.0642595772079697,1.0642595772079697
1.3219354739038058,1.3219354739038058
1.6048897022375246,1.6048897022375246
1.8886593606240785,1.8886593606240785
2.189553050120166,2.189553050120166
2.52143308162398,2.52143308162398
2.8647291338674834,2.8647291338674834
3.1305593310916686,3.1305593310916686
3.22514921722052,3.22514921722052
3.096311268872602,3.096311268872602
2.7750318280556416,2.7750318280556416
2.306974977728395,2.306974977728395
1.7394356609552872,1.7394356609552872
1.1188933907479095,1.1188933907479095
0.5244448822312495,0.5244448822312495
0.014801099209421546,0.014801099209421546
-0.3757898960985074,-0.3757898960985074
-0.6530361140623818,-0.6530361140623818
-0.8259072852633857,-0.8259072852633857
-0.9531143735056341,-0.9531143735056341
-1.095814632751746,-1.095814632751746
-1.2727629542169245,-1.2727629542169245
-1.4105706331460268,-1.4105706331460268
-1.4660198767388017,-1.4660198767388017
-1.4562347161047826,-1.4562347161047826
-1.4407415451009191,-1.4407415451009191
-1.4105706331460268,-1.4105706331460268
-1.3445207988663979,-1.3445207988663979
-1.2311760215223433,-1.2311760215223433
-1.116200384072619,-1.116200384072619
-1.0061173269399042,-1.0061173269399042
-0.909896580705383,-0.909896580705383
-0.8259072852633857,-0.8259072852633857
-0.7859512126744745,-0.7859512126744745
-0.781058632357465,-0.781058632357465
-0.790843792991484,-0.790843792991484
-0.781058632357465,-0.781058632357465
-0.7565957307724172,-0.7565957307724172
-0.7362099794515441,-0.7362099794515441
-0.7345791193458743,-0.7345791193458743
-0.7362099794515441,-0.7362099794515441
-0.7223476685533504,-0.7223476685533504
-0.6905458964927883,-0.6905458964927883
-0.6628212746964008,-0.6628212746964008
-0.6456972435868674,-0.6456972435868674
-0.6302040725830039,-0.6302040725830039
-0.6008485906809465,-0.6008485906809465
-0.5682313885675496,-0.5682313885675496
-0.5559999377750258,-0.5559999377750258
-0.5739393989373941,-0.5739393989373941
-0.6008485906809465,-0.6008485906809465
-0.6236806321603244,-0.6236806321603244
-0.6456972435868674,-0.6456972435868674
-0.6856533161757787,-0.6856533161757787
-0.7362099794515441,-0.7362099794515441
-0.7867666427273095,-0.7867666427273095
-0.8259072852633857,-0.8259072852633857
-0.8552627671654431,-0.8552627671654431
-0.8707559381693066,-0.8707559381693066
-0.8870645392260051,-0.8870645392260051
-0.9156045910752275,-0.9156045910752275
-0.965345824298158,-0.965345824298158
-1.0061173269399042,-1.0061173269399042
-1.0199796378380979,-1.0199796378380979
-1.0061173269399042,-1.0061173269399042
-0.9987784564643898,-0.9987784564643898
-1.0061173269399042,-1.0061173269399042
-1.018348777732428,-1.018348777732428
-1.0061173269399042,-1.0061173269399042
-0.9686075445094976,-0.9686075445094976
-0.9156045910752275,-0.9156045910752275
-0.8707559381693066,-0.8707559381693066
-0.8259072852633857,-0.8259072852633857
-0.7704580416706109,-0.7704580416706109
-0.6905458964927883,-0.6905458964927883
-0.6016640207337816,-0.6016640207337816
-0.5111512848691049,-0.5111512848691049
-0.42471569926860286,-0.42471569926860286
-0.3309412431925865,-0.3309412431925865
-0.2371667871165702,-0.2371667871165702
-0.15073120151606817,-0.15073120151606817
-0.0822350770779345,-0.0822350770779345
-0.015369812745470666,-0.015369812745470666
0.053126311692663006,0.053126311692663006
0.11917614597229191,0.11917614597229191
0.15668592840269843,0.15668592840269843
0.16402479887821275,0.16402479887821275
0.15831678850836828,0.15831678850836828
0.16402479887821275,0.16402479887821275
0.172179099406562,0.172179099406562
0.16402479887821275,0.16402479887821275
0.13630017708182532,0.13630017708182532
0.11917614597229191,0.11917614597229191
0.11999157602512683,0.11999157602512683
0.11917614597229191,0.11917614597229191
0.08329722364755522,0.08329722364755522
0.02947884016045019,0.02947884016045019
-0.012108092534130968,-0.012108092534130968
-0.015369812745470666,-0.015369812745470666
-0.009661802375626194,-0.009661802375626194
-0.015369812745470666,-0.015369812745470666
-0.041463574436188255,-0.041463574436188255
-0.061033895704226446,-0.061033895704226446
-0.06755733612690584,-0.06755733612690584
-0.061033895704226446,-0.061033895704226446
-0.06021846565139152,-0.06021846565139152
-0.061033895704226446,-0.061033895704226446
-0.06429561591556615,-0.06429561591556615
-0.061033895704226446,-0.061033895704226446
-0.06266475580989629,-0.06266475580989629
-0.061033895704226446,-0.061033895704226446
-0.049617874964537505,-0.049617874964537505
-0.015369812745470666,-0.015369812745470666
0.016431959315091397,0.016431959315091397
0.02947884016045019,0.02947884016045019
0.020509109579266018,0.020509109579266018
0.02947884016045019,0.02947884016045019
0.0661731925380218,0.0661731925380218
0.11917614597229191,0.11917614597229191
0.15016248798001905,0.15016248798001905
0.16402479887821275,0.16402479887821275
0.17788710977640648,0.17788710977640648
0.20968888183696854,0.20968888183696854
0.23659807358052107,0.23659807358052107
0.2545375347428894,0.2545375347428894
0.2683998456410831,0.2683998456410831
0.29938618764881025,0.29938618764881025
0.31895650891684846,0.31895650891684846
0.29938618764881025,0.29938618764881025
0.24230608395036554,0.24230608395036554
0.20968888183696854,0.20968888183696854
0.2113197419426384,0.2113197419426384
0.20968888183696854,0.20968888183696854
0.1648402289310477,0.1648402289310477
0.11917614597229191,0.11917614597229191
0.10857555528543789,0.10857555528543789
0.11917614597229191,0.11917614597229191
0.10368297496842833,0.10368297496842833
0.07432749306637104,0.07432749306637104
0.060465182168177325,0.060465182168177325
0.07432749306637104,0.07432749306637104
0.0792200733833806,0.0792200733833806
0.07432749306637104,0.07432749306637104
0.06698862259085672,0.06698862259085672
0.07432749306637104,0.07432749306637104
0.07677378322487582,0.07677378322487582
0.07432749306637104,0.07432749306637104
0.06780405264369165,0.06780405264369165
0.07432749306637104,0.07432749306637104
0.07758921327771075,0.07758921327771075
0.07432749306637104,0.07432749306637104
0.06454233243235195,0.06454233243235195
0.07432749306637104,0.07432749306637104
0.09797496459858386,0.09797496459858386
0.11917614597229191,0.11917614597229191
0.11672985581378713,0.11672985581378713
0.11917614597229191,0.11917614597229191
0.1485316278743492,0.1485316278743492
0.20968888183696854,0.20968888183696854
0.2635072653240736,0.2635072653240736
0.29938618764881025,0.29938618764881025
0.31895650891684846,0.31895650891684846
0.34423484055473114,0.34423484055473114
0.3556508612944201,0.3556508612944201
0.34423484055473114,0.34423484055473114
0.3124330684941691,0.3124330684941691
0.29938618764881025,0.29938618764881025
0.30183247780731504,0.30183247780731504
0.29938618764881025,0.29938618764881025
0.2577992549542291,0.2577992549542291
0.20968888183696854,0.20968888183696854
0.1746253895650668,0.1746253895650668
0.16402479887821275,0.16402479887821275
0.14282361750450473,0.14282361750450473
0.11917614597229191,0.11917614597229191
0.10286754491559341,0.10286754491559341
0.11917614597229191,0.11917614597229191
0.1526087781385238,0.1526087781385238
0.20968888183696854,0.20968888183696854
0.29612446743747056,0.29612446743747056
0.43474757641940776,0.43474757641940776
0.5970181569335578,0.5970181569335578
0.7495035768136887,0.7495035768136887
0.8661100743690829,0.8661100743690829
0.9745622713961279,0.9745622713961279
1.0960613492685316,1.0960613492685316
1.244469618884488,1.244469618884488
1.4197870802439967,1.4197870802439967
1.6497383551434455,1.6497383551434455
1.9424777441111836,1.9424777441111836
2.280065785984842,2.280065785984842
2.6054223770659775,2.6054223770659775
2.8647291338674834,2.8647291338674834
2.986228211739887,2.986228211739887
2.9095777867734043,2.9095777867734043
2.609499527330152,2.609499527330152
2.144704397214245,2.144704397214245
1.6040742721846897,1.6040742721846897
1.0642595772079697,1.0642595772079697
0.5448306335521226,0.5448306335521226
0.07432749306637104,0.07432749306637104
-0.29587775092068475,-0.29587775092068475
-0.5111512848691049,-0.5111512848691049
-0.6106337513149657,-0.6106337513149657
-0.6905458964927883,-0.6905458964927883
-0.8316152956332302,-0.8316152956332302
-1.0061173269399042,-1.0061173269399042
-1.1651261872427146,-1.1651261872427146
-1.2760246744282642,-1.2760246744282642
-1.3388127884965535,-1.3388127884965535
-1.320873327334185,-1.320873327334185
-1.2270988712581687,-1.2270988712581687
-1.095814632751746,-1.095814632751746
-0.9947013062002152,-0.9947013062002152
-0.9156045910752275,-0.9156045910752275
-0.8365078759502398,-0.8365078759502398
-0.7362099794515441,-0.7362099794515441
-0.6530361140623818,-0.6530361140623818
-0.6008485906809465,-0.6008485906809465
-0.5910634300469275,-0.5910634300469275
-0.6008485906809465,-0.6008485906809465
-0.6130800414734705,-0.6130800414734705
-0.6008485906809465,-0.6008485906809465
-0.5739393989373941,-0.5739393989373941
-0.5559999377750258,-0.5559999377750258
-0.5592616579863654,-0.5592616579863654
-0.5559999377750258,-0.5559999377750258
-0.5356141864541526,-0.5356141864541526
-0.5111512848691049,-0.5111512848691049
-0.5062587045520953,-0.5062587045520953
-0.5111512848691049,-0.5111512848691049
-0.5119667149219398,-0.5119667149219398
-0.5111512848691049,-0.5111512848691049
-0.5168592952389494,-0.5168592952389494
-0.5111512848691049,-0.5111512848691049
-0.47690322265003804,-0.47690322265003804
-0.4206385490044282,-0.4206385490044282
-0.38149790646835186,-0.38149790646835186
-0.3757898960985074,-0.3757898960985074
-0.3969910774722154,-0.3969910774722154
-0.4206385490044282,-0.4206385490044282
-0.4434705904838061,-0.4434705904838061
-0.4654872019103491,-0.4654872019103491
-0.5054432744992604,-0.5054432744992604
-0.5559999377750258,-0.5559999377750258
-0.6098183212621308,-0.6098183212621308
-0.6456972435868674,-0.6456972435868674
-0.6709755752247502,-0.6709755752247502
-0.6905458964927883,-0.6905458964927883
-0.7174550882363409,-0.7174550882363409
-0.7362099794515441,-0.7362099794515441
