ECG,PPG
0.29682989685141686,0.29682989685141686
0.4183378414188987,0.4183378414188987
0.1318089721347693,0.1318089721347693
-0.034032952207334224,-0.034032952207334224
0.00783802869091964,0.00783802869091964
-0.023359957076406767,-0.023359957076406767
-0.19823287729852584,-0.19823287729852584
-0.332055816247847,-0.332055816247847
-0.3640748016406294,-0.3640748016406294
-0.4166187776698107,-0.4166187776698107
-0.529095726357277,-0.529095726357277
-0.6087326900265049,-0.6087326900265049
-0.6120166885283287,-0.6120166885283287
-0.5988806945210334,-0.5988806945210334
-0.6120166885283287,-0.6120166885283287
-0.626794681786536,-0.626794681786536
-0.6120166885283287,-0.6120166885283287
-0.5816397023864582,-0.5816397023864582
-0.5701457076300749,-0.5701457076300749
-0.5890286990155619,-0.5890286990155619
-0.6120166885283287,-0.6120166885283287
-0.6169426862810644,-0.6169426862810644
-0.6120166885283287,-0.6120166885283287
-0.6153006870301525,-0.6153006870301525
-0.6120166885283287,-0.6120166885283287
-0.5923126975173857,-0.5923126975173857
-0.5701457076300749,-0.5701457076300749
-0.5693247080046189,-0.5693247080046189
-0.5701457076300749,-0.5701457076300749
-0.5545467147464116,-0.5545467147464116
-0.529095726357277,-0.529095726357277
-0.5217067297281733,-0.5217067297281733
-0.529095726357277,-0.529095726357277
-0.5348427237354686,-0.5348427237354686
-0.529095726357277,-0.529095726357277
-0.5143177330990697,-0.5143177330990697
-0.488045745084479,-0.488045745084479
-0.4593107581935205,-0.4593107581935205
-0.44617476418622515,-0.44617476418622515
-0.4617737570698884,-0.4617737570698884
-0.488045745084479,-0.488045745084479
-0.5102127349717899,-0.5102127349717899
-0.529095726357277,-0.529095726357277
-0.5529047154954997,-0.5529047154954997
-0.5701457076300749,-0.5701457076300749
-0.5742507057573546,-0.5742507057573546
-0.5701457076300749,-0.5701457076300749
-0.5717877068809868,-0.5717877068809868
-0.5701457076300749,-0.5701457076300749
-0.5553677143718676,-0.5553677143718676
-0.529095726357277,-0.529095726357277
-0.5167807319754376,-0.5167807319754376
-0.529095726357277,-0.529095726357277
-0.5553677143718676,-0.5553677143718676
-0.5701457076300749,-0.5701457076300749
-0.5726087065064427,-0.5726087065064427
-0.5701457076300749,-0.5701457076300749
-0.5734297061318987,-0.5734297061318987
-0.5701457076300749,-0.5701457076300749
-0.5537257151209557,-0.5537257151209557
-0.529095726357277,-0.529095726357277
-0.5200647304772614,-0.5200647304772614
-0.529095726357277,-0.529095726357277
-0.5405897211136603,-0.5405897211136603
-0.529095726357277,-0.529095726357277
-0.5061077368445102,-0.5061077368445102
-0.488045745084479,-0.488045745084479
-0.4913297435863029,-0.4913297435863029
-0.488045745084479,-0.488045745084479
-0.47244675220081583,-0.47244675220081583
-0.44617476418622515,-0.44617476418622515
-0.43878576755712156,-0.43878576755712156
-0.44617476418622515,-0.44617476418622515
-0.46587875519716815,-0.46587875519716815
-0.488045745084479,-0.488045745084479
-0.5110337345972459,-0.5110337345972459
-0.529095726357277,-0.529095726357277
-0.5471577181173081,-0.5471577181173081
-0.5701457076300749,-0.5701457076300749
-0.5841027012628262,-0.5841027012628262
-0.529095726357277,-0.529095726357277
-0.3419078117533185,-0.3419078117533185
0.00783802869091964,0.00783802869091964
0.5078268005935981,0.5078268005935981
1.1235765196855667,1.1235765196855667
1.7869442170539807,1.7869442170539807
2.404335935396861,2.404335935396861
2.8640957256521977,2.8640957256521977
3.0652406338889073,3.0652406338889073
2.9191027005577466,2.9191027005577466
2.404335935396861,2.404335935396861
1.6120712968318618,1.6120712968318618
0.7516636893540176,0.7516636893540176
0.030826018203686467,0.030826018203686467
-0.44617476418622515,-0.44617476418622515
-0.704789646204852,-0.704789646204852
-0.8180875945177741,-0.8180875945177741
-0.8566745769142042,-0.8566745769142042
-0.859137575790572,-0.859137575790572
-0.8566745769142042,-0.8566745769142042
-0.859137575790572,-0.859137575790572
-0.8648845731687638,-0.8648845731687638
-0.859137575790572,-0.859137575790572
-0.8525695787869244,-0.8525695787869244
-0.859137575790572,-0.859137575790572
-0.8845885641797068,-0.8845885641797068
-0.901008556688826,-0.901008556688826
-0.9042925551906498,-0.9042925551906498
-0.901008556688826,-0.901008556688826
-0.9083975533179296,-0.9083975533179296
-0.901008556688826,-0.901008556688826
-0.880483566052427,-0.880483566052427
-0.859137575790572,-0.859137575790572
-0.86160057466694,-0.86160057466694
-0.859137575790572,-0.859137575790572
-0.8410755840305411,-0.8410755840305411
-0.8180875945177741,-0.8180875945177741
-0.8156245956414063,-0.8156245956414063
-0.8180875945177741,-0.8180875945177741
-0.8057726001359348,-0.8057726001359348
-0.7770376132449762,-0.7770376132449762
-0.7556916229831213,-0.7556916229831213
-0.7351666323467224,-0.7351666323467224
-0.704789646204852,-0.704789646204852
-0.6530666698011266,-0.6530666698011266
-0.5947756963937536,-0.5947756963937536
-0.529095726357277,-0.529095726357277
-0.4535637608153288,-0.4535637608153288
-0.3640748016406294,-0.3640748016406294
-0.2754068420913859,-0.2754068420913859
-0.19823287729852584,-0.19823287729852584
-0.13665790538932898,-0.13665790538932898
-0.07426193385467617,-0.07426193385467617
-0.00037196756363994034,-0.00037196756363994034
0.09075899086197141,0.09075899086197141
0.1810689496621268,0.1810689496621268
0.25577991557861895,0.25577991557861895
0.31653388786235986,0.31653388786235986
0.37975085902246863,0.37975085902246863
0.4462518286844013,0.4462518286844013
0.5037218024663184,0.5037218024663184
0.5464137829900282,0.5464137829900282
0.5866427646373701,0.5866427646373701
0.6211247489065204,0.6211247489065204
0.627692745910168,0.627692745910168
0.5817167668846344,0.5817167668846344
0.5037218024663184,0.5037218024663184
0.4298318361752821,0.4298318361752821
0.37975085902246863,0.37975085902246863
0.3288488822441992,0.3288488822441992
0.25577991557861895,0.25577991557861895
0.1671119560293755,0.1671119560293755
0.09075899086197141,0.09075899086197141
0.028363019327318592,0.028363019327318592
-0.033211952581878264,-0.033211952581878264
-0.10381792037109065,-0.10381792037109065
-0.15718289602572794,-0.15718289602572794
-0.1834548840403186,-0.1834548840403186
-0.19823287729852584,-0.19823287729852584
-0.23353586119313202,-0.23353586119313202
-0.2811538394695776,-0.2811538394695776
-0.31563582373872784,-0.31563582373872784
-0.3222038207423755,-0.3222038207423755
-0.33123481662239107,-0.33123481662239107
-0.3640748016406294,-0.3640748016406294
-0.41497677841889874,-0.41497677841889874
-0.44617476418622515,-0.44617476418622515
-0.4519217615644169,-0.4519217615644169
-0.44617476418622515,-0.44617476418622515
-0.44863776306259306,-0.44863776306259306
-0.44617476418622515,-0.44617476418622515
-0.4412487664334894,-0.4412487664334894
-0.44617476418622515,-0.44617476418622515
-0.47244675220081583,-0.47244675220081583
-0.488045745084479,-0.488045745084479
-0.47408875145172774,-0.47408875145172774
-0.44617476418622515,-0.44617476418622515
-0.44042776680803347,-0.44042776680803347
-0.44617476418622515,-0.44617476418622515
-0.4379647679316656,-0.4379647679316656
-0.4051247829134273,-0.4051247829134273
-0.37638979602246875,-0.37638979602246875
-0.3640748016406294,-0.3640748016406294
-0.36653780051699725,-0.36653780051699725
-0.3640748016406294,-0.3640748016406294
-0.35011780800787806,-0.35011780800787806
-0.3222038207423755,-0.3222038207423755
-0.29593183272778484,-0.29593183272778484
-0.2811538394695776,-0.2811538394695776
-0.28197483909503357,-0.28197483909503357
-0.2811538394695776,-0.2811538394695776
-0.26801784546228224,-0.26801784546228224
-0.2401038581967797,-0.2401038581967797
-0.21383187018218905,-0.21383187018218905
-0.19823287729852584,-0.19823287729852584
-0.1974118776730699,-0.1974118776730699
-0.19823287729852584,-0.19823287729852584
-0.2006958761748937,-0.2006958761748937
-0.19823287729852584,-0.19823287729852584
-0.2006958761748937,-0.2006958761748937
-0.19823287729852584,-0.19823287729852584
-0.19987487654943775,-0.19987487654943775
-0.19823287729852584,-0.19823287729852584
-0.2031588750512616,-0.2031588750512616
-0.19823287729852584,-0.19823287729852584
-0.1974118776730699,-0.1974118776730699
-0.19823287729852584,-0.19823287729852584
-0.20397987467671755,-0.20397987467671755
-0.19823287729852584,-0.19823287729852584
-0.19002288104396625,-0.19002288104396625
-0.19823287729852584,-0.19823287729852584
-0.23681985969495586,-0.23681985969495586
-0.2811538394695776,-0.2811538394695776
-0.29182683460050507,-0.29182683460050507
-0.2401038581967797,-0.2401038581967797
-0.12105891250566578,-0.12105891250566578
0.09075899086197141,0.09075899086197141
0.4528198256880489,0.4528198256880489
0.999605576241717,0.999605576241717
1.6613312743592192,1.6613312743592192
2.321414973225809,2.321414973225809
2.919923700183203,2.919923700183203
3.437153464220456,3.437153464220456
3.731892329759145,3.731892329759145
3.561124407664306,3.561124407664306
2.831255740633959,2.831255740633959
1.7844812181776126,1.7844812181776126
0.7984606680050073,0.7984606680050073
0.09075899086197141,0.09075899086197141
-0.35340180650970193,-0.35340180650970193
-0.6120166885283287,-0.6120166885283287
-0.7392716304740022,-0.7392716304740022
-0.7770376132449762,-0.7770376132449762
-0.7803216117468001,-0.7803216117468001
-0.7770376132449762,-0.7770376132449762
-0.7762166136195203,-0.7762166136195203
-0.7770376132449762,-0.7770376132449762
-0.781963610997712,-0.781963610997712
-0.7770376132449762,-0.7770376132449762
-0.7597966211104011,-0.7597966211104011
-0.7351666323467224,-0.7351666323467224
-0.7294196349685307,-0.7294196349685307
-0.7351666323467224,-0.7351666323467224
-0.7474816267285618,-0.7474816267285618
-0.7351666323467224,-0.7351666323467224
-0.7154626413357794,-0.7154626413357794
-0.6941166510739245,-0.6941166510739245
-0.6842646555684531,-0.6842646555684531
-0.6530666698011266,-0.6530666698011266
-0.5955966960192095,-0.5955966960192095
-0.529095726357277,-0.529095726357277
-0.4814777480808314,-0.4814777480808314
-0.44617476418622515,-0.44617476418622515
-0.40922978104070706,-0.40922978104070706
-0.3640748016406294,-0.3640748016406294
-0.3222038207423755,-0.3222038207423755
-0.2811538394695776,-0.2811538394695776
-0.23928285857132373,-0.23928285857132373
-0.19823287729852584,-0.19823287729852584
-0.1736028885348471,-0.1736028885348471
-0.15718289602572794,-0.15718289602572794
-0.13008990838568132,-0.13008990838568132
-0.07426193385467617,-0.07426193385467617
-0.007760964192743563,-0.007760964192743563
0.0497090095891735,0.0497090095891735
0.08829599198560353,0.08829599198560353
0.1318089721347693,0.1318089721347693
0.19009994554214232,0.19009994554214232
0.25577991557861895,0.25577991557861895
0.3157128882369039,0.3157128882369039
0.37975085902246863,0.37975085902246863
0.44707282830985723,0.44707282830985723
0.5037218024663184,0.5037218024663184
0.5316357897318209,0.5316357897318209
0.5447717837391162,0.5447717837391162
0.5636547751246033,0.5636547751246033
0.5866427646373701,0.5866427646373701
0.5825377665100903,0.5825377665100903
0.5447717837391162,0.5447717837391162
0.49469080658630277,0.49469080658630277
0.4626718211935204,0.4626718211935204
0.43393683430256186,0.43393683430256186
0.37975085902246863,0.37975085902246863
0.2927248987241371,0.2927248987241371
0.21472993430582107,0.21472993430582107
0.1671119560293755,0.1671119560293755
0.1318089721347693,0.1318089721347693
0.07433899835285225,0.07433899835285225
0.00783802869091964,0.00783802869091964
-0.04388494771280572,-0.04388494771280572
-0.07426193385467617,-0.07426193385467617
-0.11038591737473832,-0.11038591737473832
-0.15718289602572794,-0.15718289602572794
-0.2162948690585569,-0.2162948690585569
-0.2811538394695776,-0.2811538394695776
-0.350938807633334,-0.350938807633334
-0.4051247829134273,-0.4051247829134273
-0.4355017690552977,-0.4355017690552977
-0.44617476418622515,-0.44617476418622515
-0.45274276118987283,-0.45274276118987283
-0.44617476418622515,-0.44617476418622515
-0.4281127724261941,-0.4281127724261941
-0.4051247829134273,-0.4051247829134273
-0.3985567859097796,-0.3985567859097796
-0.4051247829134273,-0.4051247829134273
-0.4116927799170749,-0.4116927799170749
-0.4051247829134273,-0.4051247829134273
-0.39937778553523556,-0.39937778553523556
-0.4051247829134273,-0.4051247829134273
-0.4264707731752822,-0.4264707731752822
-0.44617476418622515,-0.44617476418622515
-0.4650577555717122,-0.4650577555717122
-0.488045745084479,-0.488045745084479
-0.5151387327245257,-0.5151387327245257
-0.529095726357277,-0.529095726357277
-0.528274726731821,-0.528274726731821
-0.529095726357277,-0.529095726357277
-0.54879971736822,-0.54879971736822
-0.5701457076300749,-0.5701457076300749
-0.5775347042591784,-0.5775347042591784
-0.5701457076300749,-0.5701457076300749
-0.5693247080046189,-0.5693247080046189
-0.5701457076300749,-0.5701457076300749
-0.5602937121246033,-0.5602937121246033
-0.529095726357277,-0.529095726357277
-0.4995397398408625,-0.4995397398408625
-0.488045745084479,-0.488045745084479
-0.4913297435863029,-0.4913297435863029
-0.488045745084479,-0.488045745084479
-0.4806567484553754,-0.4806567484553754
-0.488045745084479,-0.488045745084479
-0.5143177330990697,-0.5143177330990697
-0.529095726357277,-0.529095726357277
-0.5159597323499816,-0.5159597323499816
-0.488045745084479,-0.488045745084479
-0.4666997548226241,-0.4666997548226241
-0.44617476418622515,-0.44617476418622515
-0.4223657750480024,-0.4223657750480024
-0.4051247829134273,-0.4051247829134273
-0.4067667821643392,-0.4067667821643392
-0.4051247829134273,-0.4051247829134273
-0.38624179152794025,-0.38624179152794025
-0.3640748016406294,-0.3640748016406294
-0.3607908031388055,-0.3607908031388055
-0.3640748016406294,-0.3640748016406294
-0.3624328023897174,-0.3624328023897174
-0.3640748016406294,-0.3640748016406294
-0.3829577930261164,-0.3829577930261164
-0.4051247829134273,-0.4051247829134273
-0.4223657750480024,-0.4223657750480024
-0.44617476418622515,-0.44617476418622515
-0.4905087439608469,-0.4905087439608469
-0.529095726357277,-0.529095726357277
-0.5405897211136603,-0.5405897211136603
-0.529095726357277,-0.529095726357277
-0.5241697286045411,-0.5241697286045411
-0.529095726357277,-0.529095726357277
-0.5340217241100127,-0.5340217241100127
-0.529095726357277,-0.529095726357277
-0.5299167259827329,-0.5299167259827329
-0.529095726357277,-0.529095726357277
-0.5217067297281733,-0.5217067297281733
-0.488045745084479,-0.488045745084479
-0.4568477593171526,-0.4568477593171526
-0.44617476418622515,-0.44617476418622515
-0.46834175407353607,-0.46834175407353607
-0.488045745084479,-0.488045745084479
-0.4798357488299195,-0.4798357488299195
-0.44617476418622515,-0.44617476418622515
-0.41743977729526666,-0.41743977729526666
-0.4051247829134273,-0.4051247829134273
-0.39773578628432366,-0.39773578628432366
-0.3640748016406294,-0.3640748016406294
-0.27869084059320975,-0.27869084059320975
-0.11613291475293003,-0.11613291475293003
0.15069196352025635,0.15069196352025635
0.5447717837391162,0.5447717837391162
1.0718535432818412,1.0718535432818412
1.701560256006561,1.701560256006561
2.3591809559967833,2.3591809559967833
2.9412696904450577,2.9412696904450577
3.3328865117875495,3.3328865117875495
3.437153464220456,3.437153464220456
3.1810015810781973,3.1810015810781973
2.569356860113509,2.569356860113509
1.7155172496393123,1.7155172496393123
0.8345846515250694,0.8345846515250694
0.12441997550566569,0.12441997550566569
-0.3222038207423755,-0.3222038207423755
-0.5504417166191319,-0.5504417166191319
-0.6530666698011266,-0.6530666698011266
-0.7064316454557639,-0.7064316454557639
-0.7351666323467224,-0.7351666323467224
-0.7450186278521939,-0.7450186278521939
-0.7351666323467224,-0.7351666323467224
-0.7285986353430748,-0.7285986353430748
-0.7351666323467224,-0.7351666323467224
-0.7483026263540178,-0.7483026263540178
-0.7351666323467224,-0.7351666323467224
-0.7088946443321318,-0.7088946443321318
-0.6941166510739245,-0.6941166510739245
-0.7154626413357794,-0.7154626413357794
-0.7351666323467224,-0.7351666323467224
-0.742555628975826,-0.742555628975826
-0.7351666323467224,-0.7351666323467224
-0.742555628975826,-0.742555628975826
-0.7351666323467224,-0.7351666323467224
-0.70314764695394,-0.70314764695394
-0.6530666698011266,-0.6530666698011266
-0.624331682910168,-0.624331682910168
-0.6120166885283287,-0.6120166885283287
-0.58738669976465,-0.58738669976465
-0.529095726357277,-0.529095726357277
-0.4609527574444324,-0.4609527574444324
-0.4051247829134273,-0.4051247829134273
-0.36817979976790915,-0.36817979976790915
-0.3222038207423755,-0.3222038207423755
-0.2614498484586346,-0.2614498484586346
-0.19823287729852584,-0.19823287729852584
-0.1653928922802875,-0.1653928922802875
-0.15718289602572794,-0.15718289602572794
-0.15061489902208028,-0.15061489902208028
-0.11613291475293003,-0.11613291475293003
-0.05866294097101296,-0.05866294097101296
0.00783802869091964,0.00783802869091964
0.06777100134920458,0.06777100134920458
0.1318089721347693,0.1318089721347693
0.20651993805126148,0.20651993805126148
0.29682989685141686,0.29682989685141686
0.3846768567752044,0.3846768567752044
0.4626718211935204,0.4626718211935204
0.5382037867354685,0.5382037867354685
0.627692745910168,0.627692745910168
0.7089717088303078,0.7089717088303078
0.7516636893540176,0.7516636893540176
0.7508426897285617,0.7508426897285617
0.7516636893540176,0.7516636893540176
0.7730096796158725,0.7730096796158725
0.7927136706268155,0.7927136706268155
0.7787566769940643,0.7787566769940643
0.7516636893540176,0.7516636893540176
0.7426326934740021,0.7426326934740021
0.7516636893540176,0.7516636893540176
0.7327806979685306,0.7327806979685306
0.6687427271829659,0.6687427271829659
0.5800747676337225,0.5800747676337225
0.5037218024663184,0.5037218024663184
0.44214683055712145,0.44214683055712145
0.37975085902246863,0.37975085902246863
0.2992928957277848,0.2992928957277848
0.21472993430582107,0.21472993430582107
0.14083996801478485,0.14083996801478485
0.09075899086197141,0.09075899086197141
0.048888009963717546,0.048888009963717546
0.00783802869091964,0.00783802869091964
-0.03731695070915805,-0.03731695070915805
-0.07426193385467617,-0.07426193385467617
-0.1128489162511062,-0.1128489162511062
-0.15718289602572794,-0.15718289602572794
-0.20726387317854136,-0.20726387317854136
-0.2401038581967797,-0.2401038581967797
-0.2598078492077227,-0.2598078492077227
-0.2811538394695776,-0.2811538394695776
-0.31317282486236,-0.31317282486236
-0.3222038207423755,-0.3222038207423755
-0.3049628286078004,-0.3049628286078004
-0.2811538394695776,-0.2811538394695776
-0.2795118402186657,-0.2795118402186657
-0.2811538394695776,-0.2811538394695776
-0.2795118402186657,-0.2795118402186657
-0.2811538394695776,-0.2811538394695776
-0.29428983347687293,-0.29428983347687293
-0.2811538394695776,-0.2811538394695776
-0.23681985969495586,-0.23681985969495586
-0.19823287729852584,-0.19823287729852584
-0.19987487654943775,-0.19987487654943775
-0.19823287729852584,-0.19823287729852584
-0.15307789789844814,-0.15307789789844814
-0.07426193385467617,-0.07426193385467617
-0.019254958949126978,-0.019254958949126978
0.00783802869091964,0.00783802869091964
0.03493101633096626,0.03493101633096626
0.09075899086197141,0.09075899086197141
0.15479696164753615,0.15479696164753615
0.21472993430582107,0.21472993430582107
0.24592792007314748,0.24592792007314748
0.25577991557861895,0.25577991557861895
0.23689692419313194,0.23689692419313194
0.21472993430582107,0.21472993430582107
0.18927894591668637,0.18927894591668637
0.17367995303302317,0.17367995303302317
0.15397596202208017,0.15397596202208017
0.1318089721347693,0.1318089721347693
0.11785197850201802,0.11785197850201802
0.1318089721347693,0.1318089721347693
0.1498709638948004,0.1498709638948004
0.1318089721347693,0.1318089721347693
0.08665399273469161,0.08665399273469161
0.09075899086197141,0.09075899086197141
0.18599494741486255,0.18599494741486255
0.37975085902246863,0.37975085902246863
0.7196447039612353,0.7196447039612353
1.2885974444022141,1.2885974444022141
2.020929110308929,2.020929110308929
2.7343777848301563,2.7343777848301563
3.344380506543933,3.344380506543933
3.891166257097601,3.891166257097601
4.222850105781808,4.222850105781808
3.974087219268653,3.974087219268653
3.0217276537397417,3.0217276537397417
1.7844812181776126,1.7844812181776126
0.7984606680050073,0.7984606680050073
0.21472993430582107,0.21472993430582107
-0.15143589864753623,-0.15143589864753623
-0.4051247829134273,-0.4051247829134273
-0.5225277293536292,-0.5225277293536292
-0.529095726357277,-0.529095726357277
-0.5356637233609246,-0.5356637233609246
-0.5701457076300749,-0.5701457076300749
-0.5882076993901059,-0.5882076993901059
-0.5701457076300749,-0.5701457076300749
-0.5611147117500593,-0.5611147117500593
-0.5701457076300749,-0.5701457076300749
-0.5799977031355463,-0.5799977031355463
-0.5701457076300749,-0.5701457076300749
-0.5553677143718676,-0.5553677143718676
-0.529095726357277,-0.529095726357277
-0.4978977405899505,-0.4978977405899505
-0.44617476418622515,-0.44617476418622515
-0.39116778928067597,-0.39116778928067597
-0.3222038207423755,-0.3222038207423755
-0.2581658499568108,-0.2581658499568108
-0.19823287729852584,-0.19823287729852584
-0.16457189265483155,-0.16457189265483155
-0.15718289602572794,-0.15718289602572794
-0.16621389190574348,-0.16621389190574348
-0.15718289602572794,-0.15718289602572794
-0.12187991213112173,-0.12187991213112173
-0.07426193385467617,-0.07426193385467617
-0.04552694696371763,-0.04552694696371763
-0.033211952581878264,-0.033211952581878264
-0.033211952581878264,-0.033211952581878264
-0.033211952581878264,-0.033211952581878264
-0.03731695070915805,-0.03731695070915805
-0.033211952581878264,-0.033211952581878264
-0.019254958949126978,-0.019254958949126978
0.00783802869091964,0.00783802869091964
0.04067801370915796,0.04067801370915796
0.09075899086197141,0.09075899086197141
0.1630069579020957,0.1630069579020957
0.25577991557861895,0.25577991557861895
0.3452688747533184,0.3452688747533184
0.42080084029526654,0.42080084029526654
0.48155481257900745,0.48155481257900745
0.5447717837391162,0.5447717837391162
0.6096307541501369,0.6096307541501369
0.6687427271829659,0.6687427271829659
0.7130767069575876,0.7130767069575876
0.7516636893540176,0.7516636893540176
0.7795776766195203,0.7795776766195203
0.7927136706268155,0.7927136706268155
0.7910716713759036,0.7910716713759036
0.7927136706268155,0.7927136706268155
0.7877876728740798,0.7877876728740798
0.7516636893540176,0.7516636893540176
0.6712057260593338,0.6712057260593338
0.5866427646373701,0.5866427646373701
0.5217837942263494,0.5217837942263494
0.4626718211935204,0.4626718211935204
0.3690778638915412,0.3690778638915412
0.25577991557861895,0.25577991557861895
0.1671119560293755,0.1671119560293755
0.1318089721347693,0.1318089721347693
0.11867297812747397,0.11867297812747397
0.09075899086197141,0.09075899086197141
0.04149901333461392,0.04149901333461392
0.00783802869091964,0.00783802869091964
0.002091031312727934,0.002091031312727934
0.00783802869091964,0.00783802869091964
-0.006118964941831647,-0.006118964941831647
-0.033211952581878264,-0.033211952581878264
-0.06030494022192488,-0.06030494022192488
-0.07426193385467617,-0.07426193385467617
-0.09396592486561917,-0.09396592486561917
-0.11613291475293003,-0.11613291475293003
-0.13994190389115282,-0.13994190389115282
-0.15718289602572794,-0.15718289602572794
-0.17852888628758284,-0.17852888628758284
-0.19823287729852584,-0.19823287729852584
-0.20972687205490925,-0.20972687205490925
-0.19823287729852584,-0.19823287729852584
-0.1875598821675984,-0.1875598821675984
-0.19823287729852584,-0.19823287729852584
-0.22943086306585225,-0.22943086306585225
-0.2401038581967797,-0.2401038581967797
-0.22204186643674861,-0.22204186643674861
-0.19823287729852584,-0.19823287729852584
-0.19823287729852584,-0.19823287729852584
-0.19823287729852584,-0.19823287729852584
-0.18263388441486264,-0.18263388441486264
-0.15718289602572794,-0.15718289602572794
-0.15143589864753623,-0.15143589864753623
-0.15718289602572794,-0.15718289602572794
-0.15882489527663984,-0.15882489527663984
-0.15718289602572794,-0.15718289602572794
-0.17278188890939114,-0.17278188890939114
-0.19823287729852584,-0.19823287729852584
-0.21301087055673307,-0.21301087055673307
-0.19823287729852584,-0.19823287729852584
-0.1736028885348471,-0.1736028885348471
-0.15718289602572794,-0.15718289602572794
-0.15718289602572794,-0.15718289602572794
-0.15718289602572794,-0.15718289602572794
-0.15718289602572794,-0.15718289602572794
-0.15718289602572794,-0.15718289602572794
-0.1621088937784637,-0.1621088937784637
-0.15718289602572794,-0.15718289602572794
-0.15061489902208028,-0.15061489902208028
-0.15718289602572794,-0.15718289602572794
-0.1818128847894067,-0.1818128847894067
-0.19823287729852584,-0.19823287729852584
-0.1974118776730699,-0.1974118776730699
-0.19823287729852584,-0.19823287729852584
-0.23271486156767607,-0.23271486156767607
-0.2811538394695776,-0.2811538394695776
-0.3049628286078004,-0.3049628286078004
-0.2811538394695776,-0.2811538394695776
-0.23681985969495586,-0.23681985969495586
-0.19823287729852584,-0.19823287729852584
-0.17688688703667094,-0.17688688703667094
-0.15718289602572794,-0.15718289602572794
-0.14733090052025644,-0.14733090052025644
-0.15718289602572794,-0.15718289602572794
-0.1850968832912305,-0.1850968832912305
-0.19823287729852584,-0.19823287729852584
-0.19412787917124605,-0.19412787917124605
-0.19823287729852584,-0.19823287729852584
-0.2359988600694999,-0.2359988600694999
-0.2811538394695776,-0.2811538394695776
-0.30906782673508015,-0.30906782673508015
-0.3222038207423755,-0.3222038207423755
-0.34354981100423043,-0.34354981100423043
-0.3640748016406294,-0.3640748016406294
-0.370642798644277,-0.370642798644277
-0.3640748016406294,-0.3640748016406294
-0.3640748016406294,-0.3640748016406294
-0.3640748016406294,-0.3640748016406294
-0.35175980725878997,-0.35175980725878997
-0.3222038207423755,-0.3222038207423755
-0.2967528323532408,-0.2967528323532408
-0.2811538394695776,-0.2811538394695776
-0.2795118402186657,-0.2795118402186657
-0.2811538394695776,-0.2811538394695776
-0.28607983722231334,-0.28607983722231334
-0.2811538394695776,-0.2811538394695776
-0.26637584621137034,-0.26637584621137034
-0.2401038581967797,-0.2401038581967797
-0.2162948690585569,-0.2162948690585569
-0.19823287729852584,-0.19823287729852584
-0.18427588366577455,-0.18427588366577455
-0.15718289602572794,-0.15718289602572794
-0.1185959136292979,-0.1185959136292979
-0.07426193385467617,-0.07426193385467617
-0.03567495145824614,-0.03567495145824614
0.00783802869091964,0.00783802869091964
0.052993008090997336,0.052993008090997336
0.09075899086197141,0.09075899086197141
0.10143198599289886,0.10143198599289886
0.09075899086197141,0.09075899086197141
0.0694130006001165,0.0694130006001165
0.0497090095891735,0.0497090095891735
0.025900020450950717,0.025900020450950717
0.00783802869091964,0.00783802869091964
-0.0011929671890958983,-0.0011929671890958983
0.00783802869091964,0.00783802869091964
0.013585026069111347,0.013585026069111347
0.00783802869091964,0.00783802869091964
-0.01761295969821506,-0.01761295969821506
-0.033211952581878264,-0.033211952581878264
-0.038137950334614014,-0.038137950334614014
-0.033211952581878264,-0.033211952581878264
-0.04634794658917359,-0.04634794658917359
-0.07426193385467617,-0.07426193385467617
-0.10381792037109065,-0.10381792037109065
-0.11613291475293003,-0.11613291475293003
-0.12762690950931344,-0.12762690950931344
-0.15718289602572794,-0.15718289602572794
-0.1974118776730699,-0.1974118776730699
-0.19823287729852584,-0.19823287729852584
-0.12352191138203365,-0.12352191138203365
0.0497090095891735,0.0497090095891735
0.3436268755024065,0.3436268755024065
0.7927136706268155,0.7927136706268155
1.3690554076968982,1.3690554076968982
1.991373123792514,1.991373123792514
2.5742828578662444,2.5742828578662444
3.0652406338889073,3.0652406338889073
3.3517695031730366,3.3517695031730366
3.271311539878353,3.271311539878353
2.744229780335628,2.744229780335628
1.9084521616214625,1.9084521616214625
1.0225935657544838,1.0225935657544838
0.29682989685141686,0.29682989685141686
-0.20151687580034966,-0.20151687580034966
-0.488045745084479,-0.488045745084479
-0.6169426862810644,-0.6169426862810644
-0.6530666698011266,-0.6530666698011266
-0.6579926675538623,-0.6579926675538623
-0.6530666698011266,-0.6530666698011266
-0.6382886765429193,-0.6382886765429193
-0.6120166885283287,-0.6120166885283287
-0.58738669976465,-0.58738669976465
-0.5701457076300749,-0.5701457076300749
-0.567682708753707,-0.567682708753707
-0.5701457076300749,-0.5701457076300749
-0.5767137046337225,-0.5767137046337225
-0.5701457076300749,-0.5701457076300749
-0.5561887139973235,-0.5561887139973235
-0.529095726357277,-0.529095726357277
-0.508570735720878,-0.508570735720878
-0.488045745084479,-0.488045745084479
-0.47244675220081583,-0.47244675220081583
-0.44617476418622515,-0.44617476418622515
-0.42072377579709047,-0.42072377579709047
-0.4051247829134273,-0.4051247829134273
-0.41579777804435475,-0.41579777804435475
-0.44617476418622515,-0.44617476418622515
-0.488866744709935,-0.488866744709935
-0.529095726357277,-0.529095726357277
-0.5594727124991474,-0.5594727124991474
-0.5701457076300749,-0.5701457076300749
-0.5717877068809868,-0.5717877068809868
-0.5701457076300749,-0.5701457076300749
-0.565219709877339,-0.565219709877339
-0.529095726357277,-0.529095726357277
-0.46752075444808006,-0.46752075444808006
-0.4051247829134273,-0.4051247829134273
-0.36489580126608534,-0.36489580126608534
-0.3222038207423755,-0.3222038207423755
-0.26473384696045843,-0.26473384696045843
-0.19823287729852584,-0.19823287729852584
-0.14240490276752069,-0.14240490276752069
-0.07426193385467617,-0.07426193385467617
0.018511023821847095,0.018511023821847095
0.1318089721347693,0.1318089721347693
0.23853892344404387,0.23853892344404387
0.3387008777496707,0.3387008777496707
0.42901083654982614,0.42901083654982614
0.5037218024663184,0.5037218024663184
0.5620127758736914,0.5620127758736914
0.627692745910168,0.627692745910168
0.7007617125757483,0.7007617125757483
0.7516636893540176,0.7516636893540176
0.7582316863576654,0.7582316863576654
0.7516636893540176,0.7516636893540176
0.7557686874812974,0.7557686874812974
0.7516636893540176,0.7516636893540176
0.7040457110775721,0.7040457110775721
0.627692745910168,0.627692745910168
0.5562657784954996,0.5562657784954996
0.5037218024663184,0.5037218024663184
0.4478938279353132,0.4478938279353132
0.37975085902246863,0.37975085902246863
0.2992928957277848,0.2992928957277848
0.21472993430582107,0.21472993430582107
0.1277039740074895,0.1277039740074895
0.0497090095891735,0.0497090095891735
-0.029106954454598474,-0.029106954454598474
-0.11613291475293003,-0.11613291475293003
-0.2105478716803652,-0.2105478716803652
-0.2811538394695776,-0.2811538394695776
-0.32548781924419934,-0.32548781924419934
-0.3640748016406294,-0.3640748016406294
-0.4141557787934428,-0.4141557787934428
-0.44617476418622515,-0.44617476418622515
-0.45027976231350497,-0.45027976231350497
-0.44617476418622515,-0.44617476418622515
-0.46587875519716815,-0.46587875519716815
-0.488045745084479,-0.488045745084479
-0.49379274246267074,-0.49379274246267074
-0.488045745084479,-0.488045745084479
-0.4905087439608469,-0.4905087439608469
-0.488045745084479,-0.488045745084479
-0.4708047529499039,-0.4708047529499039
-0.44617476418622515,-0.44617476418622515
-0.4313967709280179,-0.4313967709280179
-0.4051247829134273,-0.4051247829134273
-0.36325380201517343,-0.36325380201517343
-0.3222038207423755,-0.3222038207423755
-0.3033208293568885,-0.3033208293568885
-0.2811538394695776,-0.2811538394695776
-0.2401038581967797,-0.2401038581967797
-0.19823287729852584,-0.19823287729852584
-0.1892018814185103,-0.1892018814185103
-0.19823287729852584,-0.19823287729852584
-0.2031588750512616,-0.2031588750512616
-0.19823287729852584,-0.19823287729852584
-0.20972687205490925,-0.20972687205490925
-0.2401038581967797,-0.2401038581967797
-0.2811538394695776,-0.2811538394695776
-0.3222038207423755,-0.3222038207423755
-0.3657168008915413,-0.3657168008915413
-0.4051247829134273,-0.4051247829134273
-0.44617476418622515,-0.44617476418622515
-0.488045745084479,-0.488045745084479
-0.5233487289790852,-0.5233487289790852
-0.529095726357277,-0.529095726357277
-0.509391735346334,-0.509391735346334
-0.488045745084479,-0.488045745084479
-0.4864037458335671,-0.4864037458335671
-0.488045745084479,-0.488045745084479
-0.4732677518262718,-0.4732677518262718
-0.44617476418622515,-0.44617476418622515
-0.4363227686807537,-0.4363227686807537
-0.44617476418622515,-0.44617476418622515
-0.4576687589426086,-0.4576687589426086
-0.44617476418622515,-0.44617476418622515
-0.42318677467345833,-0.42318677467345833
-0.4051247829134273,-0.4051247829134273
-0.4043037832879713,-0.4043037832879713
-0.4051247829134273,-0.4051247829134273
-0.3928097885315879,-0.3928097885315879
-0.3640748016406294,-0.3640748016406294
-0.3361608143751268,-0.3361608143751268
-0.3222038207423755,-0.3222038207423755
-0.3230248203678315,-0.3230248203678315
-0.3222038207423755,-0.3222038207423755
-0.3197408218660076,-0.3197408218660076
-0.3222038207423755,-0.3222038207423755
-0.3394448128769506,-0.3394448128769506
-0.3640748016406294,-0.3640748016406294
-0.3985567859097796,-0.3985567859097796
-0.44617476418622515,-0.44617476418622515
-0.4995397398408625,-0.4995397398408625
-0.529095726357277,-0.529095726357277
-0.5307377256081889,-0.5307377256081889
-0.529095726357277,-0.529095726357277
-0.54879971736822,-0.54879971736822
-0.5701457076300749,-0.5701457076300749
-0.5783557038846344,-0.5783557038846344
-0.5701457076300749,-0.5701457076300749
-0.5726087065064427,-0.5726087065064427
-0.5701457076300749,-0.5701457076300749
-0.5578307132482355,-0.5578307132482355
-0.529095726357277,-0.529095726357277
-0.5184227312263495,-0.5184227312263495
-0.529095726357277,-0.529095726357277
-0.5422317203645722,-0.5422317203645722
-0.529095726357277,-0.529095726357277
-0.5011817390917743,-0.5011817390917743
-0.488045745084479,-0.488045745084479
-0.4962557413390386,-0.4962557413390386
-0.488045745084479,-0.488045745084479
-0.4240077742989143,-0.4240077742989143
-0.2811538394695776,-0.2811538394695776
-0.03977994958552593,-0.03977994958552593
0.3387008777496707,0.3387008777496707
0.863319638416028,0.863319638416028
1.4954893500171156,1.4954893500171156
2.1588570473855295,2.1588570473855295
2.7762487657284103,2.7762487657284103
3.2376505552346586,3.2376505552346586
3.3952824833222026,3.3952824833222026
3.125994606172648,3.125994606172648
2.4453859166696588,2.4453859166696588
1.5316133335371778,1.5316133335371778
0.627692745910168,0.627692745910168
-0.09068192636379532,-0.09068192636379532
-0.5701457076300749,-0.5701457076300749
-0.8476435810341887,-0.8476435810341887
-0.9831085192344218,-0.9831085192344218
-1.0405784930163389,-1.0405784930163389
-1.0660294814054736,-1.0660294814054736
-1.0906594701691523,-1.0906594701691523
-1.1070794626782714,-1.1070794626782714
-1.0996904660491678,-1.0996904660491678
-1.0660294814054736,-1.0660294814054736
-1.0340104960126912,-1.0340104960126912
-1.0249795001326756,-1.0249795001326756
-1.0438624915181627,-1.0438624915181627
-1.0660294814054736,-1.0660294814054736
-1.0783444757873129,-1.0783444757873129
-1.0660294814054736,-1.0660294814054736
-1.0471464900199865,-1.0471464900199865
-1.0249795001326756,-1.0249795001326756
-1.02005350237994,-1.02005350237994
-1.0249795001326756,-1.0249795001326756
-1.0340104960126912,-1.0340104960126912
-1.0249795001326756,-1.0249795001326756
-0.9921395151144373,-0.9921395151144373
-0.9420585379616239,-0.9420585379616239
-0.8969035585615461,-0.8969035585615461
-0.859137575790572,-0.859137575790572
-0.8254765911468778,-0.8254765911468778
-0.7770376132449762,-0.7770376132449762
-0.7162836409612354,-0.7162836409612354
-0.6530666698011266,-0.6530666698011266
-0.6054486915246811,-0.6054486915246811
-0.5701457076300749,-0.5701457076300749
-0.5373057226118365,-0.5373057226118365
-0.488045745084479,-0.488045745084479
-0.42564977354982625,-0.42564977354982625
-0.3640748016406294,-0.3640748016406294
-0.3180988226150957,-0.3180988226150957
-0.2811538394695776,-0.2811538394695776
-0.23353586119313202,-0.23353586119313202
-0.15718289602572794,-0.15718289602572794
-0.06851493647648446,-0.06851493647648446
0.00783802869091964,0.00783802869091964
0.06695000172374863,0.06695000172374863
0.1318089721347693,0.1318089721347693
0.21390893468036512,0.21390893468036512
0.29682989685141686,0.29682989685141686
0.3633308665133495,0.3633308665133495
0.42080084029526654,0.42080084029526654
0.47334481632444786,0.47334481632444786
0.5037218024663184,0.5037218024663184
0.49469080658630277,0.49469080658630277
0.4626718211935204,0.4626718211935204
0.42408483879709036,0.42408483879709036
0.37975085902246863,0.37975085902246863
0.32145988561509564,0.32145988561509564
0.25577991557861895,0.25577991557861895
0.1827109489130387,0.1827109489130387
0.09075899086197141,0.09075899086197141
-0.018433959323671017,-0.018433959323671017
-0.11613291475293003,-0.11613291475293003
-0.19412787917124605,-0.19412787917124605
-0.2811538394695776,-0.2811538394695776
-0.40348278366251533,-0.40348278366251533
-0.529095726357277,-0.529095726357277
-0.6144796874046966,-0.6144796874046966
-0.6530666698011266,-0.6530666698011266
-0.685906654819365,-0.685906654819365
-0.7351666323467224,-0.7351666323467224
-0.7901736072522716,-0.7901736072522716
-0.8180875945177741,-0.8180875945177741
-0.8213715930195981,-0.8213715930195981
-0.8180875945177741,-0.8180875945177741
-0.8328655877759814,-0.8328655877759814
-0.859137575790572,-0.859137575790572
-0.8862305634306187,-0.8862305634306187
-0.901008556688826,-0.901008556688826
-0.9174285491979451,-0.9174285491979451
-0.9420585379616239,-0.9420585379616239
-0.9699725252271264,-0.9699725252271264
-0.9831085192344218,-0.9831085192344218
-0.9847505184853337,-0.9847505184853337
-0.9831085192344218,-0.9831085192344218
-0.9872135173617016,-0.9872135173617016
-0.9831085192344218,-0.9831085192344218
-0.9666885267253026,-0.9666885267253026
-0.9420585379616239,-0.9420585379616239
-0.9215335473252249,-0.9215335473252249
-0.901008556688826,-0.901008556688826
-0.8780205671760591,-0.8780205671760591
-0.859137575790572,-0.859137575790572
-0.8574955765396601,-0.8574955765396601
-0.859137575790572,-0.859137575790572
-0.8484645806596446,-0.8484645806596446
-0.8180875945177741,-0.8180875945177741
-0.7877106083759038,-0.7877106083759038
-0.7770376132449762,-0.7770376132449762
-0.7918156065031835,-0.7918156065031835
-0.8180875945177741,-0.8180875945177741
-0.8451805821578208,-0.8451805821578208
-0.859137575790572,-0.859137575790572
-0.8665265724196757,-0.8665265724196757
-0.859137575790572,-0.859137575790572
-0.8574955765396601,-0.8574955765396601
-0.859137575790572,-0.859137575790572
-0.8673475720451317,-0.8673475720451317
-0.859137575790572,-0.859137575790572
-0.8377915855287171,-0.8377915855287171
-0.8180875945177741,-0.8180875945177741
-0.8156245956414063,-0.8156245956414063
-0.8180875945177741,-0.8180875945177741
-0.8172665948923182,-0.8172665948923182
-0.8180875945177741,-0.8180875945177741
-0.8189085941432301,-0.8189085941432301
-0.7770376132449762,-0.7770376132449762
-0.6284366810374479,-0.6284366810374479
-0.3222038207423755,-0.3222038207423755
0.16382795752755167,0.16382795752755167
0.8345846515250694,0.8345846515250694
1.646553281101012,1.646553281101012
2.486435897942457,2.486435897942457
3.1645815885690785,3.1645815885690785
3.4782034454932544,3.4782034454932544
3.300867526394767,3.300867526394767
2.65227782228456,2.65227782228456
1.7032022552574728,1.7032022552574728
0.7106137080812197,0.7106137080812197
-0.10956491774928237,-0.10956491774928237
-0.6530666698011266,-0.6530666698011266
-0.9428795375870798,-0.9428795375870798
-1.0660294814054736,-1.0660294814054736
-1.116110458558287,-1.116110458558287
-1.1489504435765252,-1.1489504435765252
-1.176043431216572,-1.176043431216572
-1.1900004248493232,-1.1900004248493232
-1.1900004248493232,-1.1900004248493232
-1.1900004248493232,-1.1900004248493232
-1.2064204173584423,-1.2064204173584423
-1.231050406122121,-1.231050406122121
-1.2450073997548723,-1.2450073997548723
-1.231050406122121,-1.231050406122121
-1.2080624166093543,-1.2080624166093543
-1.1900004248493232,-1.1900004248493232
-1.192463423725691,-1.192463423725691
-1.1900004248493232,-1.1900004248493232
-1.1883584255984112,-1.1883584255984112
-1.1900004248493232,-1.1900004248493232
-1.2105254154857221,-1.2105254154857221
-1.231050406122121,-1.231050406122121
-1.2400814020021367,-1.2400814020021367
-1.231050406122121,-1.231050406122121
-1.2162724128639137,-1.2162724128639137
-1.1900004248493232,-1.1900004248493232
-1.152234442078349,-1.152234442078349
-1.1070794626782714,-1.1070794626782714
-1.0676714806563854,-1.0676714806563854
-1.0249795001326756,-1.0249795001326756
-0.9699725252271264,-0.9699725252271264
-0.901008556688826,-0.901008556688826
-0.8336865874014374,-0.8336865874014374
-0.7770376132449762,-0.7770376132449762
-0.723672637590339,-0.723672637590339
-0.6530666698011266,-0.6530666698011266
-0.5570097136227795,-0.5570097136227795
-0.44617476418622515,-0.44617476418622515
-0.350938807633334,-0.350938807633334
-0.2811538394695776,-0.2811538394695776
-0.22532586493857246,-0.22532586493857246
-0.15718289602572794,-0.15718289602572794
-0.07344093422922021,-0.07344093422922021
0.00783802869091964,0.00783802869091964
0.07351799872739628,0.07351799872739628
0.1318089721347693,0.1318089721347693
0.19502594329487807,0.19502594329487807
0.25577991557861895,0.25577991557861895
0.2927248987241371,0.2927248987241371
0.29682989685141686,0.29682989685141686
0.29026189984776923,0.29026189984776923
0.29682989685141686,0.29682989685141686
0.3107868904841682,0.3107868904841682
0.29682989685141686,0.29682989685141686
0.23361292569130812,0.23361292569130812
0.1318089721347693,0.1318089721347693
0.023437021574582845,0.023437021574582845
-0.07426193385467617,-0.07426193385467617
-0.1719608892839352,-0.1719608892839352
-0.2811538394695776,-0.2811538394695776
-0.4043037832879713,-0.4043037832879713
-0.529095726357277,-0.529095726357277
-0.6423936746701991,-0.6423936746701991
-0.7351666323467224,-0.7351666323467224
-0.8074145993868467,-0.8074145993868467
-0.859137575790572,-0.859137575790572
-0.9026505559397379,-0.9026505559397379
-0.9420585379616239,-0.9420585379616239
-0.9839295188598777,-0.9839295188598777
-1.0249795001326756,-1.0249795001326756
-1.0660294814054736,-1.0660294814054736
-1.1070794626782714,-1.1070794626782714
-1.1514134424528932,-1.1514134424528932
-1.1900004248493232,-1.1900004248493232
-1.2179144121148258,-1.2179144121148258
-1.231050406122121,-1.231050406122121
-1.2466493990057843,-1.2466493990057843
-1.272921387020375,-1.272921387020375
-1.3024773735367894,-1.3024773735367894
-1.3139713682931728,-1.3139713682931728
-1.3123293690422608,-1.3123293690422608
-1.3139713682931728,-1.3139713682931728
-1.3238233637986443,-1.3238233637986443
-1.3139713682931728,-1.3139713682931728
-1.2745633862712868,-1.2745633862712868
-1.231050406122121,-1.231050406122121
-1.2080624166093543,-1.2080624166093543
-1.1900004248493232,-1.1900004248493232
-1.153876441329261,-1.153876441329261
-1.1070794626782714,-1.1070794626782714
-1.0775234761618568,-1.0775234761618568
-1.0660294814054736,-1.0660294814054736
-1.0512514881472663,-1.0512514881472663
-1.0249795001326756,-1.0249795001326756
-0.997065512867173,-0.997065512867173
-0.9831085192344218,-0.9831085192344218
-0.9929605147398932,-0.9929605147398932
-1.0249795001326756,-1.0249795001326756
-1.056177485900002,-1.056177485900002
-1.0660294814054736,-1.0660294814054736
-1.05864048477637,-1.05864048477637
-1.0660294814054736,-1.0660294814054736
-1.091480469794608,-1.091480469794608
-1.1070794626782714,-1.1070794626782714
-1.1013324653000798,-1.1013324653000798
-1.1070794626782714,-1.1070794626782714
-1.1456664450747014,-1.1456664450747014
-1.1900004248493232,-1.1900004248493232
-1.21298841436209,-1.21298841436209
-1.231050406122121,-1.231050406122121
-1.269637388518551,-1.269637388518551
-1.3139713682931728,-1.3139713682931728
-1.3402433563077636,-1.3402433563077636
-1.3550213495659709,-1.3550213495659709
-1.3771883394532816,-1.3771883394532816
-1.3968923304642247,-1.3968923304642247
-1.3985343297151365,-1.3985343297151365
-1.3968923304642247,-1.3968923304642247
-1.4124913233478877,-1.4124913233478877
-1.4379423117370225,-1.4379423117370225
-1.447794307242494,-1.447794307242494
-1.4379423117370225,-1.4379423117370225
-1.4207013196024474,-1.4207013196024474
-1.3968923304642247,-1.3968923304642247
-1.3599473473187065,-1.3599473473187065
-1.3139713682931728,-1.3139713682931728
-1.269637388518551,-1.269637388518551
-1.231050406122121,-1.231050406122121
-1.2023154192311625,-1.2023154192311625
-1.1900004248493232,-1.1900004248493232
-1.1900004248493232,-1.1900004248493232
-1.1900004248493232,-1.1900004248493232
-1.1858954267220434,-1.1858954267220434
-1.1900004248493232,-1.1900004248493232
-1.2097044158602661,-1.2097044158602661
-1.231050406122121,-1.231050406122121
-1.2367974035003129,-1.2367974035003129
-1.231050406122121,-1.231050406122121
-1.2285874072457532,-1.2285874072457532
-1.231050406122121,-1.231050406122121
-1.232692405373033,-1.232692405373033
-1.231050406122121,-1.231050406122121
-1.231050406122121,-1.231050406122121
-1.231050406122121,-1.231050406122121
-1.2302294064966652,-1.2302294064966652
-1.231050406122121,-1.231050406122121
-1.2441864001294165,-1.2441864001294165
-1.272921387020375,-1.272921387020375
-1.3024773735367894,-1.3024773735367894
-1.3139713682931728,-1.3139713682931728
-1.3000143746604216,-1.3000143746604216
-1.272921387020375,-1.272921387020375
-1.2474703986312403,-1.2474703986312403
-1.231050406122121,-1.231050406122121
-1.2261244083693854,-1.2261244083693854
-1.231050406122121,-1.231050406122121
-1.2384394027512247,-1.2384394027512247
-1.231050406122121,-1.231050406122121
-1.2105254154857221,-1.2105254154857221
-1.1900004248493232,-1.1900004248493232
-1.17440143196566,-1.17440143196566
-1.1489504435765252,-1.1489504435765252
-1.1062584630528154,-1.1062584630528154
-1.0660294814054736,-1.0660294814054736
-1.0438624915181627,-1.0438624915181627
-1.0249795001326756,-1.0249795001326756
-0.9888555166126135,-0.9888555166126135
-0.9420585379616239,-0.9420585379616239
-0.9100395525688415,-0.9100395525688415
-0.901008556688826,-0.901008556688826
-0.9018295563142819,-0.9018295563142819
-0.901008556688826,-0.901008556688826
-0.899366557437914,-0.899366557437914
-0.901008556688826,-0.901008556688826
-0.9034715555651939,-0.9034715555651939
-0.901008556688826,-0.901008556688826
-0.8977245581870021,-0.8977245581870021
-0.901008556688826,-0.901008556688826
-0.9067555540670177,-0.9067555540670177
-0.901008556688826,-0.901008556688826
-0.879662566426971,-0.879662566426971
-0.859137575790572,-0.859137575790572
-0.8648845731687638,-0.8648845731687638
-0.901008556688826,-0.901008556688826
-0.9478055353398156,-0.9478055353398156
-0.9831085192344218,-0.9831085192344218
-1.0069175083726445,-1.0069175083726445
-1.0249795001326756,-1.0249795001326756
-1.034831495638147,-1.034831495638147
-1.0249795001326756,-1.0249795001326756
-1.0003495113689969,-1.0003495113689969
-0.9831085192344218,-0.9831085192344218
-0.9847505184853337,-0.9847505184853337
-0.9831085192344218,-0.9831085192344218
-0.9658675270998466,-0.9658675270998466
-0.9420585379616239,-0.9420585379616239
-0.9371325402088881,-0.9371325402088881
-0.9420585379616239,-0.9420585379616239
-0.9371325402088881,-0.9371325402088881
-0.901008556688826,-0.901008556688826
-0.8574955765396601,-0.8574955765396601
-0.8180875945177741,-0.8180875945177741
-0.7975626038813752,-0.7975626038813752
-0.7770376132449762,-0.7770376132449762
-0.7556916229831213,-0.7556916229831213
-0.7351666323467224,-0.7351666323467224
-0.7302406345939867,-0.7302406345939867
-0.7351666323467224,-0.7351666323467224
-0.7409136297249141,-0.7409136297249141
-0.7351666323467224,-0.7351666323467224
-0.7212096387139711,-0.7212096387139711
-0.6941166510739245,-0.6941166510739245
-0.6325416791647277,-0.6325416791647277
-0.488045745084479,-0.488045745084479
-0.2121898709312771,-0.2121898709312771
0.21472993430582107,0.21472993430582107
0.7721886799904166,0.7721886799904166
1.412568387846064,1.412568387846064
2.0685470885853743,2.0685470885853743
2.65227782228456,2.65227782228456
3.0414316447506846,3.0414316447506846
3.106290615161705,3.106290615161705
2.769680768724762,2.769680768724762
2.07347308633811,2.07347308633811
1.1785834945911158,1.1785834945911158
0.29682989685141686,0.29682989685141686
-0.4043037832879713,-0.4043037832879713
-0.859137575790572,-0.859137575790572
-1.0988694664237117,-1.0988694664237117
-1.1900004248493232,-1.1900004248493232
-1.2039574184820745,-1.2039574184820745
-1.1900004248493232,-1.1900004248493232
-1.1826114282202196,-1.1826114282202196
-1.1900004248493232,-1.1900004248493232
-1.2006734199802507,-1.2006734199802507
-1.1900004248493232,-1.1900004248493232
-1.153055441703805,-1.153055441703805
-1.1070794626782714,-1.1070794626782714
-1.0799864750382249,-1.0799864750382249
-1.0660294814054736,-1.0660294814054736
-1.0537144870236341,-1.0537144870236341
-1.0249795001326756,-1.0249795001326756
-0.999528511743541,-0.999528511743541
-0.9831085192344218,-0.9831085192344218
-0.9748985229798621,-0.9748985229798621
-0.9420585379616239,-0.9420585379616239
-0.8936195600597223,-0.8936195600597223
-0.859137575790572,-0.859137575790572
-0.8681685716705876,-0.8681685716705876
-0.901008556688826,-0.901008556688826
-0.918249548823401,-0.918249548823401
-0.901008556688826,-0.901008556688826
-0.8730945694233234,-0.8730945694233234
-0.859137575790572,-0.859137575790572
-0.86160057466694,-0.86160057466694
-0.859137575790572,-0.859137575790572
-0.8558535772887482,-0.8558535772887482
-0.859137575790572,-0.859137575790572
-0.8714525701724114,-0.8714525701724114
-0.859137575790572,-0.859137575790572
-0.8090565986377587,-0.8090565986377587
-0.7351666323467224,-0.7351666323467224
-0.6809806570666291,-0.6809806570666291
-0.6530666698011266,-0.6530666698011266
-0.6276156814119919,-0.6276156814119919
-0.5701457076300749,-0.5701457076300749
-0.4765517503280956,-0.4765517503280956
-0.3640748016406294,-0.3640748016406294
-0.2671968458368263,-0.2671968458368263
-0.19823287729852584,-0.19823287729852584
-0.14568890126934453,-0.14568890126934453
-0.07426193385467617,-0.07426193385467617
0.024258021200038803,0.024258021200038803
0.1318089721347693,0.1318089721347693
0.21308793505490917,0.21308793505490917
0.25577991557861895,0.25577991557861895
0.27548390658956196,0.27548390658956196
0.29682989685141686,0.29682989685141686
0.32310188486600755,0.32310188486600755
0.3387008777496707,0.3387008777496707
0.3395218773751267,0.3395218773751267
0.3387008777496707,0.3387008777496707
0.3304908814951112,0.3304908814951112
0.29682989685141686,0.29682989685141686
0.23525492494222003,0.23525492494222003
0.17367995303302317,0.17367995303302317
0.11949397775292994,0.11949397775292994
0.0497090095891735,0.0497090095891735
-0.05373694321827722,-0.05373694321827722
-0.15718289602572794,-0.15718289602572794
-0.22860986344039627,-0.22860986344039627
-0.2811538394695776,-0.2811538394695776
-0.3542228061351579,-0.3542228061351579
-0.44617476418622515,-0.44617476418622515
-0.5258117278554532,-0.5258117278554532
-0.5701457076300749,-0.5701457076300749
-0.606269691150137,-0.606269691150137
-0.6530666698011266,-0.6530666698011266
-0.7064316454557639,-0.7064316454557639
-0.7351666323467224,-0.7351666323467224
-0.7392716304740022,-0.7392716304740022
-0.7351666323467224,-0.7351666323467224
-0.74173462935037,-0.74173462935037
-0.7351666323467224,-0.7351666323467224
-0.7129996424594115,-0.7129996424594115
-0.6941166510739245,-0.6941166510739245
-0.7072526450812199,-0.7072526450812199
-0.7351666323467224,-0.7351666323467224
-0.761438620361313,-0.761438620361313
-0.7770376132449762,-0.7770376132449762
-0.7868896087504478,-0.7868896087504478
-0.7770376132449762,-0.7770376132449762
-0.7524076244812975,-0.7524076244812975
-0.7351666323467224,-0.7351666323467224
-0.7409136297249141,-0.7409136297249141
-0.7351666323467224,-0.7351666323467224
-0.7006846480775721,-0.7006846480775721
-0.6530666698011266,-0.6530666698011266
-0.626794681786536,-0.626794681786536
-0.6120166885283287,-0.6120166885283287
-0.5808187027610023,-0.5808187027610023
-0.529095726357277,-0.529095726357277
-0.48229874770628733,-0.48229874770628733
-0.44617476418622515,-0.44617476418622515
-0.41087178029161897,-0.41087178029161897
-0.3640748016406294,-0.3640748016406294
-0.32877181774602315,-0.32877181774602315
-0.3222038207423755,-0.3222038207423755
-0.3476548091315102,-0.3476548091315102
-0.3640748016406294,-0.3640748016406294
-0.35668580501152575,-0.35668580501152575
-0.3222038207423755,-0.3222038207423755
-0.2951108331023289,-0.2951108331023289
-0.2811538394695776,-0.2811538394695776
-0.2910058349750491,-0.2910058349750491
-0.3222038207423755,-0.3222038207423755
-0.3690007993933651,-0.3690007993933651
-0.4051247829134273,-0.4051247829134273
-0.4141557787934428,-0.4141557787934428
-0.4051247829134273,-0.4051247829134273
-0.40348278366251533,-0.40348278366251533
-0.4051247829134273,-0.4051247829134273
-0.370642798644277,-0.370642798644277
-0.2401038581967797,-0.2401038581967797
0.03246801745459838,0.03246801745459838
0.4626718211935204,0.4626718211935204
1.0332665608854112,1.0332665608854112
1.701560256006561,1.701560256006561
2.3895579421386537,2.3895579421386537
2.9823196717178555,2.9823196717178555
3.3337075114130057,3.3337075114130057
3.3131825207766066,3.3131825207766066
2.8649167252776535,2.8649167252776535
2.07347308633811,2.07347308633811
1.1391755125692298,1.1391755125692298
0.29682989685141686,0.29682989685141686
-0.30578382823325634,-0.30578382823325634
-0.6530666698011266,-0.6530666698011266
-0.8238345918959659,-0.8238345918959659
-0.901008556688826,-0.901008556688826
-0.9346695413325202,-0.9346695413325202
-0.9420585379616239,-0.9420585379616239
-0.9412375383361679,-0.9412375383361679
-0.9420585379616239,-0.9420585379616239
-0.9469845357143596,-0.9469845357143596
-0.9420585379616239,-0.9420585379616239
-0.9256385454525047,-0.9256385454525047
-0.901008556688826,-0.901008556688826
-0.881304565677883,-0.881304565677883
-0.859137575790572,-0.859137575790572
-0.839433584779629,-0.839433584779629
-0.8180875945177741,-0.8180875945177741
-0.8164455952668622,-0.8164455952668622
-0.8180875945177741,-0.8180875945177741
-0.8123405971395825,-0.8123405971395825
-0.7770376132449762,-0.7770376132449762
-0.742555628975826,-0.742555628975826
-0.7351666323467224,-0.7351666323467224
-0.7491236259794737,-0.7491236259794737
-0.7351666323467224,-0.7351666323467224
-0.6900116529466447,-0.6900116529466447
-0.6530666698011266,-0.6530666698011266
-0.6538876694265826,-0.6538876694265826
-0.6530666698011266,-0.6530666698011266
-0.6185846855319763,-0.6185846855319763
-0.5701457076300749,-0.5701457076300749
-0.5471577181173081,-0.5471577181173081
-0.529095726357277,-0.529095726357277
-0.4814777480808314,-0.4814777480808314
-0.4051247829134273,-0.4051247829134273
-0.33698181400058275,-0.33698181400058275
-0.2811538394695776,-0.2811538394695776
-0.22532586493857246,-0.22532586493857246
-0.15718289602572794,-0.15718289602572794
-0.08247193010923574,-0.08247193010923574
0.00783802869091964,0.00783802869091964
0.11128398149837036,0.11128398149837036
0.21472993430582107,0.21472993430582107
0.30011389535324073,0.30011389535324073
0.37975085902246863,0.37975085902246863
0.46185082156806445,0.46185082156806445
0.5447717837391162,0.5447717837391162
0.6129147526519607,0.6129147526519607
0.6687427271829659,0.6687427271829659
0.7147187062084995,0.7147187062084995
0.7516636893540176,0.7516636893540176
0.7762936781176965,0.7762936781176965
0.7927136706268155,0.7927136706268155
0.7894296721249917,0.7894296721249917
0.7516636893540176,0.7516636893540176
0.6753107241866135,0.6753107241866135
0.5866427646373701,0.5866427646373701
0.5029008028408624,0.5029008028408624
0.42080084029526654,0.42080084029526654
0.32310188486600755,0.32310188486600755
0.21472993430582107,0.21472993430582107
0.10717898337109057,0.10717898337109057
0.00783802869091964,0.00783802869091964
-0.08493492898560362,-0.08493492898560362
-0.15718289602572794,-0.15718289602572794
-0.19576987842215796,-0.19576987842215796
-0.19823287729852584,-0.19823287729852584
-0.1933068795457901,-0.1933068795457901
-0.19823287729852584,-0.19823287729852584
-0.2203998671858367,-0.2203998671858367
-0.2401038581967797,-0.2401038581967797
-0.2581658499568108,-0.2581658499568108
-0.2811538394695776,-0.2811538394695776
-0.32056182149146356,-0.32056182149146356
-0.3640748016406294,-0.3640748016406294
-0.4067667821643392,-0.4067667821643392
-0.44617476418622515,-0.44617476418622515
-0.4913297435863029,-0.4913297435863029
-0.529095726357277,-0.529095726357277
-0.5553677143718676,-0.5553677143718676
-0.5701457076300749,-0.5701457076300749
-0.5914916978919298,-0.5914916978919298
-0.6120166885283287,-0.6120166885283287
-0.6226896836592561,-0.6226896836592561
-0.6120166885283287,-0.6120166885283287
-0.5914916978919298,-0.5914916978919298
-0.5701457076300749,-0.5701457076300749
-0.5537257151209557,-0.5537257151209557
-0.529095726357277,-0.529095726357277
-0.4929717428372148,-0.4929717428372148
-0.44617476418622515,-0.44617476418622515
-0.40348278366251533,-0.40348278366251533
-0.3640748016406294,-0.3640748016406294
-0.32548781924419934,-0.32548781924419934
-0.2811538394695776,-0.2811538394695776
-0.23681985969495586,-0.23681985969495586
-0.19823287729852584,-0.19823287729852584
-0.17442388816030305,-0.17442388816030305
-0.15718289602572794,-0.15718289602572794
-0.14158390314206473,-0.14158390314206473
-0.11613291475293003,-0.11613291475293003
-0.09068192636379532,-0.09068192636379532
-0.07426193385467617,-0.07426193385467617
-0.07590393310558809,-0.07590393310558809
-0.07426193385467617,-0.07426193385467617
-0.06276793909829276,-0.06276793909829276
-0.033211952581878264,-0.033211952581878264
-0.008581963818199522,-0.008581963818199522
0.00783802869091964,0.00783802869091964
-0.005297965316375689,-0.005297965316375689
-0.033211952581878264,-0.033211952581878264
-0.06769393685102851,-0.06769393685102851
-0.07426193385467617,-0.07426193385467617
-0.06851493647648446,-0.06851493647648446
-0.07426193385467617,-0.07426193385467617
-0.10381792037109065,-0.10381792037109065
-0.11613291475293003,-0.11613291475293003
-0.097249923367443,-0.097249923367443
-0.07426193385467617,-0.07426193385467617
-0.08000893123286787,-0.08000893123286787
-0.07426193385467617,-0.07426193385467617
0.005375029814551766,0.005375029814551766
0.21472993430582107,0.21472993430582107
0.5825377665100903,0.5825377665100903
1.1235765196855667,1.1235765196855667
1.7762712219230532,1.7762712219230532
2.4453859166696588,2.4453859166696588
3.0635986346379953,3.0635986346379953
3.602174388937104,3.602174388937104
3.9240062421158393,3.9240062421158393
3.8090662945520055,3.8090662945520055
3.1645815885690785,3.1645815885690785
2.1974440297819595,2.1974440297819595
1.2401584665003127,1.2401584665003127
0.5037218024663184,0.5037218024663184
0.008659028316375598,0.008659028316375598
-0.2811538394695776,-0.2811538394695776
-0.4141557787934428,-0.4141557787934428
-0.44617476418622515,-0.44617476418622515
-0.45027976231350497,-0.45027976231350497
-0.44617476418622515,-0.44617476418622515
-0.43303877017892983,-0.43303877017892983
-0.4051247829134273,-0.4051247829134273
-0.3829577930261164,-0.3829577930261164
-0.3640748016406294,-0.3640748016406294
-0.34683380950605425,-0.34683380950605425
-0.3222038207423755,-0.3222038207423755
-0.3033208293568885,-0.3033208293568885
-0.2811538394695776,-0.2811538394695776
-0.26473384696045843,-0.26473384696045843
-0.2401038581967797,-0.2401038581967797
-0.22122086681129266,-0.22122086681129266
-0.19823287729852584,-0.19823287729852584
-0.19412787917124605,-0.19412787917124605
-0.19823287729852584,-0.19823287729852584
-0.2089058724294533,-0.2089058724294533
-0.19823287729852584,-0.19823287729852584
-0.17606588741121496,-0.17606588741121496
-0.15718289602572794,-0.15718289602572794
-0.1580038956511839,-0.1580038956511839
-0.15718289602572794,-0.15718289602572794
-0.14322590239297664,-0.14322590239297664
-0.11613291475293003,-0.11613291475293003
-0.09642892374198704,-0.09642892374198704
-0.07426193385467617,-0.07426193385467617
-0.04306394808734976,-0.04306394808734976
0.00783802869091964,0.00783802869091964
0.06448700284738075,0.06448700284738075
0.1318089721347693,0.1318089721347693
0.19666794254579,0.19666794254579
0.25577991557861895,0.25577991557861895
0.3075028919823443,0.3075028919823443
0.37975085902246863,0.37975085902246863
0.4766288148262717,0.4766288148262717
0.5866427646373701,0.5866427646373701
0.6876257185684529,0.6876257185684529
0.7927136706268155,0.7927136706268155
0.9002646215615461,0.9002646215615461
0.999605576241717,0.999605576241717
1.0800635395364009,1.0800635395364009
1.1646265009583645,1.1646265009583645
1.255757459383976,1.255757459383976
1.3296474256750122,1.3296474256750122
1.3608454114423385,1.3608454114423385
1.371518406573266,1.371518406573266
1.389580398333297,1.389580398333297
1.412568387846064,1.412568387846064
1.3961483953369447,1.3961483953369447
1.3296474256750122,1.3296474256750122
1.238516467249401,1.238516467249401
1.1646265009583645,1.1646265009583645
1.1063355275509916,1.1063355275509916
1.0406555575145149,1.0406555575145149
0.9445986013361678,0.9445986013361678
0.8345846515250694,0.8345846515250694
0.7138977065830436,0.7138977065830436
0.5866427646373701,0.5866427646373701
0.451177826437137,0.451177826437137
0.3387008777496707,0.3387008777496707
0.25085391782588323,0.25085391782588323
0.17367995303302317,0.17367995303302317
0.08254899460741183,0.08254899460741183
0.00783802869091964,0.00783802869091964
-0.04142194883643784,-0.04142194883643784
-0.07426193385467617,-0.07426193385467617
-0.12105891250566578,-0.12105891250566578
-0.15718289602572794,-0.15718289602572794
-0.1678558911566554,-0.1678558911566554
-0.15718289602572794,-0.15718289602572794
-0.15636189640027198,-0.15636189640027198
-0.15718289602572794,-0.15718289602572794
-0.1580038956511839,-0.1580038956511839
-0.15718289602572794,-0.15718289602572794
-0.16621389190574348,-0.16621389190574348
-0.15718289602572794,-0.15718289602572794
-0.1243429110074896,-0.1243429110074896
-0.07426193385467617,-0.07426193385467617
-0.034032952207334224,-0.034032952207334224
0.00783802869091964,0.00783802869091964
0.05053000921462946,0.05053000921462946
0.09075899086197141,0.09075899086197141
0.12277797625475377,0.12277797625475377
0.17367995303302317,0.17367995303302317
0.24018092269495578,0.24018092269495578
0.29682989685141686,0.29682989685141686
0.30832389160780027,0.30832389160780027
0.29682989685141686,0.29682989685141686
0.30175589460415264,0.30175589460415264
0.3387008777496707,0.3387008777496707
0.37154086276790904,0.37154086276790904
0.37975085902246863,0.37975085902246863
0.37236186239336505,0.37236186239336505
0.37975085902246863,0.37975085902246863
0.3904238541533961,0.3904238541533961
0.37975085902246863,0.37975085902246863
0.33623787887330286,0.33623787887330286
0.29682989685141686,0.29682989685141686
0.2861569017204894,0.2861569017204894
0.29682989685141686,0.29682989685141686
0.2992928957277848,0.2992928957277848
0.29682989685141686,0.29682989685141686
0.2976508964768728,0.2976508964768728
0.29682989685141686,0.29682989685141686
0.26809490996045837,0.26809490996045837
0.21472993430582107,0.21472993430582107
0.1597229594002719,0.1597229594002719
0.1318089721347693,0.1318089721347693
0.11538897962565015,0.11538897962565015
0.09075899086197141,0.09075899086197141
0.04560401146189371,0.04560401146189371
0.00783802869091964,0.00783802869091964
-0.004476965690919731,-0.004476965690919731
0.00783802869091964,0.00783802869091964
0.014406025694567306,0.014406025694567306
0.00783802869091964,0.00783802869091964
-0.0036559660654637725,-0.0036559660654637725
0.00783802869091964,0.00783802869091964
0.043141012585525836,0.043141012585525836
0.09075899086197141,0.09075899086197141
0.12113597700384185,0.12113597700384185
0.1318089721347693,0.1318089721347693
0.1277039740074895,0.1277039740074895
0.1318089721347693,0.1318089721347693
0.1474079650184325,0.1474079650184325
0.17367995303302317,0.17367995303302317
0.19420494366942212,0.19420494366942212
0.21472993430582107,0.21472993430582107
0.23361292569130812,0.23361292569130812
0.25577991557861895,0.25577991557861895
0.26398991183317855,0.26398991183317855
0.25577991557861895,0.25577991557861895
0.23032892718948428,0.23032892718948428
0.21472993430582107,0.21472993430582107
0.20734093767671746,0.20734093767671746
0.21472993430582107,0.21472993430582107
0.2122669354294532,0.2122669354294532
0.21472993430582107,0.21472993430582107
0.2122669354294532,0.2122669354294532
0.21472993430582107,0.21472993430582107
0.2122669354294532,0.2122669354294532
0.21472993430582107,0.21472993430582107
0.21555093393127703,0.21555093393127703
0.21472993430582107,0.21472993430582107
0.20569893842580553,0.20569893842580553
0.21472993430582107,0.21472993430582107
0.26234791258226664,0.26234791258226664
0.37975085902246863,0.37975085902246863
0.5858217650119141,0.5858217650119141
0.9166846140706653,0.9166846140706653
1.388759398707841,1.388759398707841
1.991373123792514,1.991373123792514
2.659666818913664,2.659666818913664
3.3131825207766066,3.3131825207766066
3.8443692784466115,3.8443692784466115
4.1391081439853,4.1391081439853
4.073428173948824,4.073428173948824
3.602174388937104,3.602174388937104
2.8074467514957364,2.8074467514957364
1.9084521616214625,1.9084521616214625
1.1260395185619345,1.1260395185619345
0.5866427646373701,0.5866427646373701
0.27712590584047386,0.27712590584047386
0.1318089721347693,0.1318089721347693
0.08336999423286778,0.08336999423286778
0.09075899086197141,0.09075899086197141
0.10389498486926674,0.10389498486926674
0.09075899086197141,0.09075899086197141
0.04560401146189371,0.04560401146189371
0.00783802869091964,0.00783802869091964
-0.014328961196391227,-0.014328961196391227
-0.033211952581878264,-0.033211952581878264
-0.06358893872374871,-0.06358893872374871
-0.07426193385467617,-0.07426193385467617
-0.07097793535285234,-0.07097793535285234
-0.07426193385467617,-0.07426193385467617
-0.1185959136292979,-0.1185959136292979
-0.15718289602572794,-0.15718289602572794
-0.17031889003302325,-0.17031889003302325
-0.15718289602572794,-0.15718289602572794
-0.1596458949020958,-0.1596458949020958
-0.15718289602572794,-0.15718289602572794
-0.12926890876022537,-0.12926890876022537
-0.07426193385467617,-0.07426193385467617
-0.03977994958552593,-0.03977994958552593
-0.033211952581878264,-0.033211952581878264
-0.03156995333096635,-0.03156995333096635
0.00783802869091964,0.00783802869091964
0.07105499985102841,0.07105499985102841
0.1318089721347693,0.1318089721347693
0.17039595453119935,0.17039595453119935
0.21472993430582107,0.21472993430582107
0.2713789084622822,0.2713789084622822
0.3387008777496707,0.3387008777496707
0.39534985190613187,0.39534985190613187
0.4626718211935204,0.4626718211935204
0.5414877852372924,0.5414877852372924
0.627692745910168,0.627692745910168
0.7032247114521162,0.7032247114521162
0.7927136706268155,0.7927136706268155
0.9092956174415616,0.9092956174415616
1.0406555575145149,1.0406555575145149
1.153132506201981,1.153132506201981
1.2475474631294163,1.2475474631294163
1.331289424925924,1.331289424925924
1.412568387846064,1.412568387846064
1.4790693575079965,1.4790693575079965
1.5365393312899136,1.5365393312899136
1.584978309191815,1.584978309191815
1.6194602934609654,1.6194602934609654
1.6161762949591416,1.6161762949591416
1.5775893125627114,1.5775893125627114
1.5151933410280587,1.5151933410280587
1.4536183691188618,1.4536183691188618
1.3936853964605769,1.3936853964605769
1.3296474256750122,1.3296474256750122
1.2508314616312401,1.2508314616312401
1.1646265009583645,1.1646265009583645
1.0661065459036496,1.0661065459036496
0.9585555949689191,0.9585555949689191
0.8444366470305409,0.8444366470305409
0.7516636893540176,0.7516636893540176
0.6826997208157172,0.6826997208157172
0.627692745910168,0.627692745910168
0.5644757747500592,0.5644757747500592
0.5037218024663184,0.5037218024663184
0.4429678301825774,0.4429678301825774
0.37975085902246863,0.37975085902246863
0.29682989685141686,0.29682989685141686
0.21472993430582107,0.21472993430582107
0.1433029668911527,0.1433029668911527
0.09075899086197141,0.09075899086197141
0.04067801370915796,0.04067801370915796
0.00783802869091964,0.00783802869091964
-0.004476965690919731,-0.004476965690919731
0.00783802869091964,0.00783802869091964
0.013585026069111347,0.013585026069111347
0.00783802869091964,0.00783802869091964
-0.0036559660654637725,-0.0036559660654637725
0.00783802869091964,0.00783802869091964
0.030826018203686467,0.030826018203686467
0.0497090095891735,0.0497090095891735
0.04642501108734967,0.04642501108734967
0.0497090095891735,0.0497090095891735
0.06612900209829266,0.06612900209829266
0.09075899086197141,0.09075899086197141
0.09486398898925119,0.09486398898925119
0.09075899086197141,0.09075899086197141
0.09732698786561907,0.09732698786561907
0.1318089721347693,0.1318089721347693
0.17450095265847912,0.17450095265847912
0.21472993430582107,0.21472993430582107
0.25085391782588323,0.25085391782588323
0.29682989685141686,0.29682989685141686
0.3436268755024065,0.3436268755024065
0.37975085902246863,0.37975085902246863
0.3986338504079557,0.3986338504079557
0.42080084029526654,0.42080084029526654
0.44543082905894527,0.44543082905894527
0.4626718211935204,0.4626718211935204
0.4478938279353132,0.4478938279353132
0.42080084029526654,0.42080084029526654
0.392065853404308,0.392065853404308
0.37975085902246863,0.37975085902246863
0.3592258683860697,0.3592258683860697
0.3387008777496707,0.3387008777496707
0.31160789010962414,0.31160789010962414
0.29682989685141686,0.29682989685141686
0.2910828994732252,0.2910828994732252
0.29682989685141686,0.29682989685141686
0.3025768942296086,0.3025768942296086
0.29682989685141686,0.29682989685141686
0.26563191108409046,0.26563191108409046
0.21472993430582107,0.21472993430582107
0.16629095640391955,0.16629095640391955
0.17367995303302317,0.17367995303302317
0.28369390284412155,0.28369390284412155
0.5447717837391162,0.5447717837391162
0.9749755874780383,0.9749755874780383
1.5775893125627114,1.5775893125627114
2.3140259765967057,2.3140259765967057
3.106290615161705,3.106290615161705
3.8041402967992695,3.8041402967992695
4.222029106156352,4.222029106156352
4.183442123759923,4.183442123759923
3.643224370209902,3.643224370209902
2.7269887882010524,2.7269887882010524
1.701560256006561,1.701560256006561
0.8189856586414063,0.8189856586414063
0.21472993430582107,0.21472993430582107
-0.12680590988385748,-0.12680590988385748
-0.2811538394695776,-0.2811538394695776
-0.33123481662239107,-0.33123481662239107
-0.3222038207423755,-0.3222038207423755
-0.29757383197869675,-0.29757383197869675
-0.2811538394695776,-0.2811538394695776
-0.2836168383459455,-0.2836168383459455
-0.2811538394695776,-0.2811538394695776
-0.26637584621137034,-0.26637584621137034
-0.2401038581967797,-0.2401038581967797
-0.2203998671858367,-0.2203998671858367
-0.19823287729852584,-0.19823287729852584
-0.17852888628758284,-0.17852888628758284
-0.15718289602572794,-0.15718289602572794
-0.15554089677481603,-0.15554089677481603
-0.15718289602572794,-0.15718289602572794
-0.16292989340391964,-0.16292989340391964
-0.15718289602572794,-0.15718289602572794
-0.1596458949020958,-0.1596458949020958
-0.15718289602572794,-0.15718289602572794
-0.13583690576387303,-0.13583690576387303
-0.07426193385467617,-0.07426193385467617
-0.0020139668145518564,-0.0020139668145518564
0.0497090095891735,0.0497090095891735
0.06859200097466053,0.06859200097466053
0.09075899086197141,0.09075899086197141
0.1203149773783859,0.1203149773783859
0.1318089721347693,0.1318089721347693
0.09650598824016311,0.09650598824016311
0.0497090095891735,0.0497090095891735
0.030826018203686467,0.030826018203686467
0.0497090095891735,0.0497090095891735
0.07187599947648438,0.07187599947648438
0.09075899086197141,0.09075899086197141
0.10553698412017865,0.10553698412017865
0.1318089721347693,0.1318089721347693
0.17614295190939105,0.17614295190939105
0.25577991557861895,0.25577991557861895
0.3493738728805982,0.3493738728805982
0.42080084029526654,0.42080084029526654
0.4577458234407847,0.4577458234407847
0.5037218024663184,0.5037218024663184
0.5825377665100903,0.5825377665100903
0.6687427271829659,0.6687427271829659
0.7204657035866913,0.7204657035866913
0.7516636893540176,0.7516636893540176
0.7877876728740798,0.7877876728740798
0.8345846515250694,0.8345846515250694
0.863319638416028,0.863319638416028
0.8756346327978674,0.8756346327978674
0.8666036369178518,0.8666036369178518
0.8345846515250694,0.8345846515250694
0.7730096796158725,0.7730096796158725
0.7106137080812197,0.7106137080812197
0.6523227346738467,0.6523227346738467
0.5866427646373701,0.5866427646373701
0.4987958047135826,0.4987958047135826
0.42080084029526654,0.42080084029526654
0.3608678676369816,0.3608678676369816
0.29682989685141686,0.29682989685141686
0.20816193730217342,0.20816193730217342
0.1318089721347693,0.1318089721347693
0.09650598824016311,0.09650598824016311
0.09075899086197141,0.09075899086197141
0.07351799872739628,0.07351799872739628
0.0497090095891735,0.0497090095891735
0.03739401520733413,0.03739401520733413
0.0497090095891735,0.0497090095891735
0.06695000172374863,0.06695000172374863
0.09075899086197141,0.09075899086197141
0.11374698037473824,0.11374698037473824
0.1318089721347693,0.1318089721347693
0.12195697662929782,0.12195697662929782
0.09075899086197141,0.09075899086197141
0.047246010712805625,0.047246010712805625
0.00783802869091964,0.00783802869091964
-0.033211952581878264,-0.033211952581878264
-0.07426193385467617,-0.07426193385467617
-0.12023791288020982,-0.12023791288020982
-0.15718289602572794,-0.15718289602572794
-0.175244887785759,-0.175244887785759
-0.15718289602572794,-0.15718289602572794
-0.11613291475293003,-0.11613291475293003
-0.07426193385467617,-0.07426193385467617
-0.06276793909829276,-0.06276793909829276
-0.07426193385467617,-0.07426193385467617
-0.08821892748742745,-0.08821892748742745
-0.07426193385467617,-0.07426193385467617
-0.03731695070915805,-0.03731695070915805
0.00783802869091964,0.00783802869091964
0.03657301558187817,0.03657301558187817
0.0497090095891735,0.0497090095891735
0.060382004720100954,0.060382004720100954
0.09075899086197141,0.09075899086197141
0.12195697662929782,0.12195697662929782
0.1318089721347693,0.1318089721347693
0.11128398149837036,0.11128398149837036
0.09075899086197141,0.09075899086197141
0.0850119934837797,0.0850119934837797
0.09075899086197141,0.09075899086197141
0.08911699161105949,0.08911699161105949
0.09075899086197141,0.09075899086197141
0.09486398898925119,0.09486398898925119
0.09075899086197141,0.09075899086197141
0.05545600696736521,0.05545600696736521
0.00783802869091964,0.00783802869091964
-0.025822955952774642,-0.025822955952774642
-0.033211952581878264,-0.033211952581878264
-0.04388494771280572,-0.04388494771280572
-0.07426193385467617,-0.07426193385467617
-0.1227009117565777,-0.1227009117565777
-0.15718289602572794,-0.15718289602572794
-0.16703489153119944,-0.16703489153119944
-0.15718289602572794,-0.15718289602572794
-0.15307789789844814,-0.15307789789844814
-0.15718289602572794,-0.15718289602572794
-0.1653928922802875,-0.1653928922802875
-0.15718289602572794,-0.15718289602572794
-0.12762690950931344,-0.12762690950931344
-0.07426193385467617,-0.07426193385467617
-0.02500195632731868,-0.02500195632731868
0.00783802869091964,0.00783802869091964
0.022616021949126885,0.022616021949126885
0.0497090095891735,0.0497090095891735
0.09075899086197141,0.09075899086197141
0.1318089721347693,0.1318089721347693
0.14248196726569676,0.14248196726569676
0.1318089721347693,0.1318089721347693
0.12359897588020972,0.12359897588020972
0.1318089721347693,0.1318089721347693
0.13837696913841696,0.13837696913841696
0.1318089721347693,0.1318089721347693
0.12113597700384185,0.12113597700384185
0.1318089721347693,0.1318089721347693
0.15808096014935996,0.15808096014935996
0.17367995303302317,0.17367995303302317
0.15643896089844805,0.15643896089844805
0.1318089721347693,0.1318089721347693
0.12195697662929782,0.12195697662929782
0.1318089721347693,0.1318089721347693
0.137555969512961,0.137555969512961
0.1318089721347693,0.1318089721347693
0.11210498112382632,0.11210498112382632
0.09075899086197141,0.09075899086197141
0.06612900209829266,0.06612900209829266
0.0497090095891735,0.0497090095891735
0.03164701782914243,0.03164701782914243
0.00783802869091964,0.00783802869091964
-0.033211952581878264,-0.033211952581878264
-0.07426193385467617,-0.07426193385467617
-0.10463891999654662,-0.10463891999654662
-0.11613291475293003,-0.11613291475293003
-0.13337390688750514,-0.13337390688750514
-0.15718289602572794,-0.15718289602572794
-0.17688688703667094,-0.17688688703667094
-0.15718289602572794,-0.15718289602572794
-0.11531191512747407,-0.11531191512747407
-0.07426193385467617,-0.07426193385467617
-0.07097793535285234,-0.07097793535285234
-0.07426193385467617,-0.07426193385467617
-0.06769393685102851,-0.06769393685102851
-0.033211952581878264,-0.033211952581878264
0.006196029440007724,0.006196029440007724
0.0497090095891735,0.0497090095891735
0.09157999048742736,0.09157999048742736
0.1318089721347693,0.1318089721347693
0.1556179612729921,0.1556179612729921
0.17367995303302317,0.17367995303302317
0.20651993805126148,0.20651993805126148
0.29682989685141686,0.29682989685141686
0.4807338129535515,0.4807338129535515
0.7927136706268155,0.7927136706268155
1.2442634646275925,1.2442634646275925
1.8255311994504106,1.8255311994504106
2.486435897942457,2.486435897942457
3.147340596434503,3.147340596434503
3.6883793496099795,3.6883793496099795
3.974087219268653,3.974087219268653
3.8854192597194093,3.8854192597194093
3.3952824833222026,3.3952824833222026
2.600554845880835,2.600554845880835
1.701560256006561,1.701560256006561
0.8945176241833543,0.8945176241833543
0.29682989685141686,0.29682989685141686
-0.08082993085832384,-0.08082993085832384
-0.2811538394695776,-0.2811538394695776
-0.37310579752064493,-0.37310579752064493
-0.4051247829134273,-0.4051247829134273
-0.41333477916798683,-0.41333477916798683
-0.4051247829134273,-0.4051247829134273
-0.3985567859097796,-0.3985567859097796
-0.4051247829134273,-0.4051247829134273
-0.429754771677106,-0.429754771677106
-0.44617476418622515,-0.44617476418622515
-0.449458762688049,-0.449458762688049
-0.44617476418622515,-0.44617476418622515
-0.46587875519716815,-0.46587875519716815
-0.488045745084479,-0.488045745084479
-0.5011817390917743,-0.5011817390917743
-0.488045745084479,-0.488045745084479
-0.4708047529499039,-0.4708047529499039
-0.44617476418622515,-0.44617476418622515
-0.42729177280073816,-0.42729177280073816
-0.4051247829134273,-0.4051247829134273
-0.3870627911533962,-0.3870627911533962
-0.3640748016406294,-0.3640748016406294
-0.3427288113787745,-0.3427288113787745
-0.3222038207423755,-0.3222038207423755
-0.3082468271096242,-0.3082468271096242
-0.2811538394695776,-0.2811538394695776
-0.24256685707314757,-0.24256685707314757
-0.19823287729852584,-0.19823287729852584
-0.17278188890939114,-0.17278188890939114
-0.15718289602572794,-0.15718289602572794
-0.13337390688750514,-0.13337390688750514
-0.07426193385467617,-0.07426193385467617
0.007017029065463682,0.007017029065463682
0.09075899086197141,0.09075899086197141
0.15479696164753615,0.15479696164753615
0.21472993430582107,0.21472993430582107
0.28533590209503346,0.28533590209503346
0.37975085902246863,0.37975085902246863
0.4840178114553753,0.4840178114553753
0.5866427646373701,0.5866427646373701
0.6736687249357016,0.6736687249357016
0.7516636893540176,0.7516636893540176
0.8280166545214217,0.8280166545214217
0.9166846140706653,0.9166846140706653
1.0069945728708205,1.0069945728708205
1.0825265384127687,1.0825265384127687
1.1309655163146703,1.1309655163146703
1.1646265009583645,1.1646265009583645
1.1802254938420278,1.1802254938420278
1.1646265009583645,1.1646265009583645
1.1087985264273594,1.1087985264273594
1.0406555575145149,1.0406555575145149
0.9774385863544062,0.9774385863544062
0.9166846140706653,0.9166846140706653
0.8395106492778052,0.8395106492778052
0.7516636893540176,0.7516636893540176
0.6539647339247586,0.6539647339247586
0.5447717837391162,0.5447717837391162
0.4183378414188987,0.4183378414188987
0.29682989685141686,0.29682989685141686
0.19009994554214232,0.19009994554214232
0.09075899086197141,0.09075899086197141
-0.01761295969821506,-0.01761295969821506
-0.11613291475293003,-0.11613291475293003
-0.19002288104396625,-0.19002288104396625
-0.2401038581967797,-0.2401038581967797
-0.29757383197869675,-0.29757383197869675
-0.3640748016406294,-0.3640748016406294
-0.42318677467345833,-0.42318677467345833
-0.44617476418622515,-0.44617476418622515
-0.4478167634371371,-0.4478167634371371
-0.44617476418622515,-0.44617476418622515
-0.45438476044078474,-0.45438476044078474
-0.44617476418622515,-0.44617476418622515
-0.42482877392437024,-0.42482877392437024
-0.4051247829134273,-0.4051247829134273
-0.4067667821643392,-0.4067667821643392
-0.4051247829134273,-0.4051247829134273
-0.3887047904043081,-0.3887047904043081
-0.3640748016406294,-0.3640748016406294
-0.35832780426243765,-0.35832780426243765
-0.3640748016406294,-0.3640748016406294
-0.3673588001424532,-0.3673588001424532
-0.3640748016406294,-0.3640748016406294
-0.36653780051699725,-0.36653780051699725
-0.3640748016406294,-0.3640748016406294
-0.33862381325149465,-0.33862381325149465
-0.2811538394695776,-0.2811538394695776
-0.22532586493857246,-0.22532586493857246
-0.19823287729852584,-0.19823287729852584
-0.20151687580034966,-0.20151687580034966
-0.19823287729852584,-0.19823287729852584
-0.17852888628758284,-0.17852888628758284
-0.15718289602572794,-0.15718289602572794
-0.15636189640027198,-0.15636189640027198
-0.15718289602572794,-0.15718289602572794
-0.14322590239297664,-0.14322590239297664
-0.11613291475293003,-0.11613291475293003
-0.09396592486561917,-0.09396592486561917
-0.07426193385467617,-0.07426193385467617
-0.06358893872374871,-0.06358893872374871
-0.07426193385467617,-0.07426193385467617
-0.11613291475293003,-0.11613291475293003
-0.15718289602572794,-0.15718289602572794
-0.17031889003302325,-0.17031889003302325
-0.15718289602572794,-0.15718289602572794
-0.15143589864753623,-0.15143589864753623
-0.15718289602572794,-0.15718289602572794
-0.16457189265483155,-0.16457189265483155
-0.15718289602572794,-0.15718289602572794
-0.15471989714936005,-0.15471989714936005
-0.15718289602572794,-0.15718289602572794
-0.1678558911566554,-0.1678558911566554
-0.15718289602572794,-0.15718289602572794
-0.13665790538932898,-0.13665790538932898
-0.11613291475293003,-0.11613291475293003
-0.12598491025840153,-0.12598491025840153
-0.15718289602572794,-0.15718289602572794
-0.1892018814185103,-0.1892018814185103
-0.19823287729852584,-0.19823287729852584
-0.19576987842215796,-0.19576987842215796
-0.19823287729852584,-0.19823287729852584
-0.2105478716803652,-0.2105478716803652
-0.19823287729852584,-0.19823287729852584
-0.12598491025840153,-0.12598491025840153
0.0497090095891735,0.0497090095891735
0.37154086276790904,0.37154086276790904
0.8756346327978674,0.8756346327978674
1.5160143406535147,1.5160143406535147
2.1974440297819595,2.1974440297819595
2.840286736513975,2.840286736513975
3.3952824833222026,3.3952824833222026
3.740923325639161,3.740923325639161
3.6850953511081554,3.6850953511081554
3.1227106076708244,3.1227106076708244
2.1974440297819595,2.1974440297819595
1.2023924837293387,1.2023924837293387
0.37975085902246863,0.37975085902246863
-0.19166488029487816,-0.19166488029487816
-0.529095726357277,-0.529095726357277
-0.6900116529466447,-0.6900116529466447
-0.7351666323467224,-0.7351666323467224
-0.7368086315976343,-0.7368086315976343
-0.7351666323467224,-0.7351666323467224
-0.7400926300994581,-0.7400926300994581
-0.7351666323467224,-0.7351666323467224
-0.7310616342194426,-0.7310616342194426
-0.7351666323467224,-0.7351666323467224
-0.7483026263540178,-0.7483026263540178
-0.7351666323467224,-0.7351666323467224
-0.6957586503248364,-0.6957586503248364
-0.6530666698011266,-0.6530666698011266
-0.6473196724229349,-0.6473196724229349
-0.6530666698011266,-0.6530666698011266
-0.6473196724229349,-0.6473196724229349
-0.6120166885283287,-0.6120166885283287
-0.5841027012628262,-0.5841027012628262
-0.5701457076300749,-0.5701457076300749
-0.5717877068809868,-0.5717877068809868
-0.5701457076300749,-0.5701457076300749
-0.5717877068809868,-0.5717877068809868
-0.5701457076300749,-0.5701457076300749
-0.5611147117500593,-0.5611147117500593
-0.529095726357277,-0.529095726357277
-0.4864037458335671,-0.4864037458335671
-0.44617476418622515,-0.44617476418622515
-0.4240077742989143,-0.4240077742989143
-0.4051247829134273,-0.4051247829134273
-0.3755687963970128,-0.3755687963970128
-0.3222038207423755,-0.3222038207423755
-0.2614498484586346,-0.2614498484586346
-0.19823287729852584,-0.19823287729852584
-0.14076290351660878,-0.14076290351660878
-0.07426193385467617,-0.07426193385467617
0.0004490320618160178,0.0004490320618160178
0.09075899086197141,0.09075899086197141
0.18927894591668637,0.18927894591668637
0.29682989685141686,0.29682989685141686
0.40273884853523545,0.40273884853523545
0.5037218024663184,0.5037218024663184
0.6030627571464893,0.6030627571464893
0.7106137080812197,0.7106137080812197
0.8083126635104788,0.8083126635104788
0.8756346327978674,0.8756346327978674
0.9142216151942973,0.9142216151942973
0.9585555949689191,0.9585555949689191
1.0119205706235563,1.0119205706235563
1.0406555575145149,1.0406555575145149
1.0143835694999241,1.0143835694999241
0.9585555949689191,0.9585555949689191
0.8994436219360901,0.8994436219360901
0.8345846515250694,0.8345846515250694
0.7393486949721783,0.7393486949721783
0.627692745910168,0.627692745910168
0.5193207953499815,0.5193207953499815
0.42080084029526654,0.42080084029526654
0.3173548874878158,0.3173548874878158
0.21472993430582107,0.21472993430582107
0.11210498112382632,0.11210498112382632
0.00783802869091964,0.00783802869091964
-0.10463891999654662,-0.10463891999654662
-0.19823287729852584,-0.19823287729852584
-0.2557028510804429,-0.2557028510804429
-0.2811538394695776,-0.2811538394695776
-0.3148148241132719,-0.3148148241132719
-0.3640748016406294,-0.3640748016406294
-0.4182607769207226,-0.4182607769207226
-0.44617476418622515,-0.44617476418622515
-0.45274276118987283,-0.45274276118987283
-0.44617476418622515,-0.44617476418622515
-0.44699576381168116,-0.44699576381168116
-0.44617476418622515,-0.44617476418622515
-0.4478167634371371,-0.4478167634371371
-0.44617476418622515,-0.44617476418622515
-0.449458762688049,-0.449458762688049
-0.44617476418622515,-0.44617476418622515
-0.44453276493531324,-0.44453276493531324
-0.44617476418622515,-0.44617476418622515
-0.4552057600662407,-0.4552057600662407
-0.44617476418622515,-0.44617476418622515
-0.4116927799170749,-0.4116927799170749
-0.3640748016406294,-0.3640748016406294
-0.3345188151242149,-0.3345188151242149
-0.3222038207423755,-0.3222038207423755
-0.31153082561144807,-0.31153082561144807
-0.2811538394695776,-0.2811538394695776
-0.2401038581967797,-0.2401038581967797
-0.19823287729852584,-0.19823287729852584
-0.17113988965847923,-0.17113988965847923
-0.15718289602572794,-0.15718289602572794
-0.15636189640027198,-0.15636189640027198
-0.15718289602572794,-0.15718289602572794
-0.15882489527663984,-0.15882489527663984
-0.15718289602572794,-0.15718289602572794
-0.1580038956511839,-0.1580038956511839
-0.15718289602572794,-0.15718289602572794
-0.1580038956511839,-0.1580038956511839
-0.15718289602572794,-0.15718289602572794
-0.1580038956511839,-0.1580038956511839
-0.15718289602572794,-0.15718289602572794
-0.1580038956511839,-0.1580038956511839
-0.15718289602572794,-0.15718289602572794
-0.1580038956511839,-0.1580038956511839
-0.15718289602572794,-0.15718289602572794
-0.1580038956511839,-0.1580038956511839
-0.15718289602572794,-0.15718289602572794
-0.1580038956511839,-0.1580038956511839
-0.15718289602572794,-0.15718289602572794
-0.15882489527663984,-0.15882489527663984
-0.15718289602572794,-0.15718289602572794
-0.15718289602572794,-0.15718289602572794
-0.15718289602572794,-0.15718289602572794
-0.15882489527663984,-0.15882489527663984
-0.15718289602572794,-0.15718289602572794
-0.15636189640027198,-0.15636189640027198
-0.15718289602572794,-0.15718289602572794
-0.16128789415300773,-0.16128789415300773
-0.15718289602572794,-0.15718289602572794
-0.15225689827299219,-0.15225689827299219
-0.15718289602572794,-0.15718289602572794
-0.17852888628758284,-0.17852888628758284
-0.19823287729852584,-0.19823287729852584
-0.21711586868401286,-0.21711586868401286
-0.2401038581967797,-0.2401038581967797
-0.2696598447131942,-0.2696598447131942
-0.2811538394695776,-0.2811538394695776
-0.27786984096775375,-0.27786984096775375
-0.2811538394695776,-0.2811538394695776
-0.32056182149146356,-0.32056182149146356
-0.3640748016406294,-0.3640748016406294
-0.39445178778249984,-0.39445178778249984
-0.4051247829134273,-0.4051247829134273
-0.42893377205165006,-0.42893377205165006
-0.44617476418622515,-0.44617476418622515
-0.4437117653098573,-0.4437117653098573
-0.4051247829134273,-0.4051247829134273
-0.35011780800787806,-0.35011780800787806
-0.2811538394695776,-0.2811538394695776
-0.20151687580034966,-0.20151687580034966
-0.11613291475293003,-0.11613291475293003
-0.04470594733826168,-0.04470594733826168
0.00783802869091964,0.00783802869091964
0.05053000921462946,0.05053000921462946
0.1318089721347693,0.1318089721347693
0.31817588711327177,0.31817588711327177
0.6687427271829659,0.6687427271829659
1.176941495340204,1.176941495340204
1.7844812181776126,1.7844812181776126
2.426502925284172,2.426502925284172
3.0652406338889073,3.0652406338889073
3.625983378075327,3.625983378075327
3.974087219268653,3.974087219268653
3.955204227883166,3.955204227883166
3.5192534267660522,3.5192534267660522
2.756544774717467,2.756544774717467
1.8674021803486645,1.8674021803486645
1.0562545503981782,1.0562545503981782
0.4626718211935204,0.4626718211935204
0.10553698412017865,0.10553698412017865
-0.07426193385467617,-0.07426193385467617
-0.1621088937784637,-0.1621088937784637
-0.19823287729852584,-0.19823287729852584
-0.2064428735530854,-0.2064428735530854
-0.19823287729852584,-0.19823287729852584
-0.194948878796702,-0.194948878796702
-0.19823287729852584,-0.19823287729852584
-0.2162948690585569,-0.2162948690585569
-0.2401038581967797,-0.2401038581967797
-0.26801784546228224,-0.26801784546228224
-0.2811538394695776,-0.2811538394695776
-0.2967528323532408,-0.2967528323532408
-0.3222038207423755,-0.3222038207423755
-0.37146379826973297,-0.37146379826973297
-0.4051247829134273,-0.4051247829134273
-0.4264707731752822,-0.4264707731752822
-0.44617476418622515,-0.44617476418622515
-0.4913297435863029,-0.4913297435863029
-0.529095726357277,-0.529095726357277
-0.5414107207391163,-0.5414107207391163
-0.529095726357277,-0.529095726357277
-0.5159597323499816,-0.5159597323499816
-0.488045745084479,-0.488045745084479
-0.4355017690552977,-0.4355017690552977
-0.3640748016406294,-0.3640748016406294
-0.29921583122960865,-0.29921583122960865
-0.2401038581967797,-0.2401038581967797
-0.19248587992033414,-0.19248587992033414
-0.15718289602572794,-0.15718289602572794
-0.13091090801113728,-0.13091090801113728
-0.07426193385467617,-0.07426193385467617
0.02097402269821497,0.02097402269821497
0.1318089721347693,0.1318089721347693
0.21965593205855682,0.21965593205855682
0.29682989685141686,0.29682989685141686
0.3887818549024842,0.3887818549024842
0.5037218024663184,0.5037218024663184
0.6137357522774167,0.6137357522774167
0.7106137080812197,0.7106137080812197
0.7927136706268155,0.7927136706268155
0.8756346327978674,0.8756346327978674
0.9577345953434632,0.9577345953434632
1.0406555575145149,1.0406555575145149
1.1112615253037272,1.1112615253037272
1.1646265009583645,1.1646265009583645
1.2040344829802505,1.2040344829802505
1.2475474631294163,1.2475474631294163
1.2836714466494785,1.2836714466494785
1.2885974444022141,1.2885974444022141
1.2516524612566962,1.2516524612566962
1.2056764822311625,1.2056764822311625
1.1670894998347325,1.1670894998347325
1.1235765196855667,1.1235765196855667
1.0496865533945305,1.0496865533945305
0.9585555949689191,0.9585555949689191
0.8600356399142041,0.8600356399142041
0.7516636893540176,0.7516636893540176
0.6120937530265048,0.6120937530265048
0.4626718211935204,0.4626718211935204
0.32474388411691946,0.32474388411691946
0.21472993430582107,0.21472993430582107
0.10964198224745844,0.10964198224745844
0.00783802869091964,0.00783802869091964
-0.08903992711288342,-0.08903992711288342
-0.15718289602572794,-0.15718289602572794
-0.18427588366577455,-0.18427588366577455
-0.15718289602572794,-0.15718289602572794
-0.10956491774928237,-0.10956491774928237
-0.07426193385467617,-0.07426193385467617
-0.07344093422922021,-0.07344093422922021
-0.07426193385467617,-0.07426193385467617
-0.06030494022192488,-0.06030494022192488
-0.033211952581878264,-0.033211952581878264
-0.025822955952774642,-0.025822955952774642
-0.033211952581878264,-0.033211952581878264
-0.0422429484618938,-0.0422429484618938
-0.033211952581878264,-0.033211952581878264
-0.015970960447303145,-0.015970960447303145
0.00783802869091964,0.00783802869091964
0.028363019327318592,0.028363019327318592
0.0497090095891735,0.0497090095891735
0.06695000172374863,0.06695000172374863
0.09075899086197141,0.09075899086197141
0.11374698037473824,0.11374698037473824
0.1318089721347693,0.1318089721347693
0.13509297063659315,0.13509297063659315
0.1318089721347693,0.1318089721347693
0.1285249736329455,0.1285249736329455
0.1318089721347693,0.1318089721347693
0.13262997176022526,0.13262997176022526
0.1318089721347693,0.1318089721347693
0.1285249736329455,0.1285249736329455
0.1318089721347693,0.1318089721347693
0.1342719710111372,0.1342719710111372
0.1318089721347693,0.1318089721347693
0.1162099792511061,0.1162099792511061
0.09075899086197141,0.09075899086197141
0.052172008465541375,0.052172008465541375
0.00783802869091964,0.00783802869091964
-0.04060094921098189,-0.04060094921098189
-0.07426193385467617,-0.07426193385467617
-0.08821892748742745,-0.08821892748742745
-0.07426193385467617,-0.07426193385467617
-0.0422429484618938,-0.0422429484618938
0.00783802869091964,0.00783802869091964
0.057098006218277125,0.057098006218277125
0.09075899086197141,0.09075899086197141
0.09568498861470716,0.09568498861470716
0.09075899086197141,0.09075899086197141
0.09732698786561907,0.09732698786561907
0.1318089721347693,0.1318089721347693
0.1654699567784636,0.1654699567784636
0.17367995303302317,0.17367995303302317
0.15069196352025635,0.15069196352025635
0.1318089721347693,0.1318089721347693
0.12934597325840144,0.12934597325840144
0.1318089721347693,0.1318089721347693
0.11456798000019419,0.11456798000019419
0.09075899086197141,0.09075899086197141
0.06695000172374863,0.06695000172374863
0.0497090095891735,0.0497090095891735
0.022616021949126885,0.022616021949126885
0.00783802869091964,0.00783802869091964
0.002091031312727934,0.002091031312727934
0.00783802869091964,0.00783802869091964
0.002091031312727934,0.002091031312727934
0.00783802869091964,0.00783802869091964
0.02507902082549476,0.02507902082549476
0.0497090095891735,0.0497090095891735
0.05463500734190925,0.05463500734190925
0.0497090095891735,0.0497090095891735
0.03493101633096626,0.03493101633096626
0.00783802869091964,0.00783802869091964
-0.038137950334614014,-0.038137950334614014
-0.07426193385467617,-0.07426193385467617
-0.061125939847380836,-0.061125939847380836
0.0497090095891735,0.0497090095891735
0.29518789760050496,0.29518789760050496
0.7106137080812197,0.7106137080812197
1.2688934533912712,1.2688934533912712
1.9084521616214625,1.9084521616214625
2.5529368676043895,2.5529368676043895
3.147340596434503,3.147340596434503
3.5882173953043526,3.5882173953043526
3.7261453323809537,3.7261453323809537
3.4420794619731923,3.4420794619731923
2.7762487657284103,2.7762487657284103
1.9109151604978303,1.9109151604978303
1.0825265384127687,1.0825265384127687
0.44378882980803336,0.44378882980803336
0.0497090095891735,0.0497090095891735
-0.14076290351660878,-0.14076290351660878
-0.19823287729852584,-0.19823287729852584
-0.2031588750512616,-0.2031588750512616
-0.19823287729852584,-0.19823287729852584
-0.2023378754258056,-0.2023378754258056
-0.19823287729852584,-0.19823287729852584
-0.1818128847894067,-0.1818128847894067
-0.15718289602572794,-0.15718289602572794
-0.1497938993966243,-0.1497938993966243
-0.15718289602572794,-0.15718289602572794
-0.1694978904075673,-0.1694978904075673
-0.15718289602572794,-0.15718289602572794
-0.1243429110074896,-0.1243429110074896
-0.07426193385467617,-0.07426193385467617
-0.05455794284373317,-0.05455794284373317
-0.07426193385467617,-0.07426193385467617
-0.12762690950931344,-0.12762690950931344
-0.15718289602572794,-0.15718289602572794
-0.16046689452755175,-0.16046689452755175
-0.15718289602572794,-0.15718289602572794
-0.17852888628758284,-0.17852888628758284
-0.19823287729852584,-0.19823287729852584
-0.20397987467671755,-0.20397987467671755
-0.19823287729852584,-0.19823287729852584
-0.2048008743021735,-0.2048008743021735
-0.19823287729852584,-0.19823287729852584
-0.16703489153119944,-0.16703489153119944
-0.11613291475293003,-0.11613291475293003
-0.07426193385467617,-0.07426193385467617
-0.033211952581878264,-0.033211952581878264
0.00783802869091964,0.00783802869091964
0.0497090095891735,0.0497090095891735
0.08172799498195586,0.08172799498195586
0.1318089721347693,0.1318089721347693
0.20734093767671746,0.20734093767671746
0.29682989685141686,0.29682989685141686
0.3764668605206448,0.3764668605206448
0.4626718211935204,0.4626718211935204
0.5611917762482354,0.5611917762482354
0.6687427271829659,0.6687427271829659
0.7689046814885928,0.7689046814885928
0.8756346327978674,0.8756346327978674
0.9872905818598776,0.9872905818598776
1.0825265384127687,1.0825265384127687
1.1326075155655821,1.1326075155655821
1.1646265009583645,1.1646265009583645
1.213886478485722,1.213886478485722
1.2885974444022141,1.2885974444022141
1.3403204208059396,1.3403204208059396
1.3296474256750122,1.3296474256750122
1.2565784590094318,1.2565784590094318
1.1646265009583645,1.1646265009583645
1.0907365346673283,1.0907365346673283
1.0406555575145149,1.0406555575145149
0.9774385863544062,0.9774385863544062
0.8756346327978674,0.8756346327978674
0.744274692724914,0.744274692724914
0.627692745910168,0.627692745910168
0.5390247863609245,0.5390247863609245
0.4626718211935204,0.4626718211935204
0.36579386538971737,0.36579386538971737
0.25577991557861895,0.25577991557861895
0.14494496614206465,0.14494496614206465
0.0497090095891735,0.0497090095891735
-0.02992795408005443,-0.02992795408005443
-0.07426193385467617,-0.07426193385467617
-0.097249923367443,-0.097249923367443
-0.11613291475293003,-0.11613291475293003
-0.15718289602572794,-0.15718289602572794
-0.19823287729852584,-0.19823287729852584
-0.21547386943310096,-0.21547386943310096
-0.19823287729852584,-0.19823287729852584
-0.1850968832912305,-0.1850968832912305
-0.19823287729852584,-0.19823287729852584
-0.24174585744769161,-0.24174585744769161
-0.2811538394695776,-0.2811538394695776
-0.2983948316041527,-0.2983948316041527
-0.2811538394695776,-0.2811538394695776
-0.24502985594951546,-0.24502985594951546
-0.19823287729852584,-0.19823287729852584
-0.16703489153119944,-0.16703489153119944
-0.15718289602572794,-0.15718289602572794
-0.1653928922802875,-0.1653928922802875
-0.15718289602572794,-0.15718289602572794
-0.1227009117565777,-0.1227009117565777
-0.07426193385467617,-0.07426193385467617
-0.04552694696371763,-0.04552694696371763
-0.033211952581878264,-0.033211952581878264
-0.020896958200038892,-0.020896958200038892
0.00783802869091964,0.00783802869091964
0.03739401520733413,0.03739401520733413
0.0497090095891735,0.0497090095891735
0.03246801745459838,0.03246801745459838
0.00783802869091964,0.00783802869091964
-0.005297965316375689,-0.005297965316375689
0.00783802869091964,0.00783802869091964
0.03164701782914243,0.03164701782914243
0.0497090095891735,0.0497090095891735
0.05135100884008542,0.05135100884008542
0.0497090095891735,0.0497090095891735
0.03657301558187817,0.03657301558187817
0.00783802869091964,0.00783802869091964
-0.03895894996006997,-0.03895894996006997
-0.07426193385467617,-0.07426193385467617
-0.08493492898560362,-0.08493492898560362
-0.07426193385467617,-0.07426193385467617
-0.07015693572739638,-0.07015693572739638
-0.07426193385467617,-0.07426193385467617
-0.08165093048377979,-0.08165093048377979
-0.07426193385467617,-0.07426193385467617
-0.05784194134555701,-0.05784194134555701
-0.033211952581878264,-0.033211952581878264
-0.011044962694567395,-0.011044962694567395
0.00783802869091964,0.00783802869091964
0.01276402644365539,0.01276402644365539
0.00783802869091964,0.00783802869091964
0.0004490320618160178,0.0004490320618160178
0.00783802869091964,0.00783802869091964
0.027542019701862635,0.027542019701862635
0.0497090095891735,0.0497090095891735
0.05545600696736521,0.05545600696736521
0.0497090095891735,0.0497090095891735
0.02918401895277455,0.02918401895277455
0.00783802869091964,0.00783802869091964
-0.007760964192743563,-0.007760964192743563
0.00783802869091964,0.00783802869091964
0.04478301183643776,0.04478301183643776
0.09075899086197141,0.09075899086197141
0.11374698037473824,0.11374698037473824
0.1318089721347693,0.1318089721347693
0.14822896464388846,0.14822896464388846
0.17367995303302317,0.17367995303302317
0.19338394404396617,0.19338394404396617
0.21472993430582107,0.21472993430582107
0.23689692419313194,0.23689692419313194
0.25577991557861895,0.25577991557861895
0.24839091894951534,0.24839091894951534
0.21472993430582107,0.21472993430582107
0.1810689496621268,0.1810689496621268
0.21472993430582107,0.21472993430582107
0.3772878601461008,0.3772878601461008
0.7106137080812197,0.7106137080812197
1.195003487100235,1.195003487100235
1.7844812181776126,1.7844812181776126
2.4141879309023326,2.4141879309023326
3.0233696529906533,3.0233696529906533
3.5167904278896844,3.5167904278896844
3.7671953136537515,3.7671953136537515
3.6538973653408293,3.6538973653408293
3.147340596434503,3.147340596434503
2.3361929664840164,2.3361929664840164
1.412568387846064,1.412568387846064
0.5858217650119141,0.5858217650119141
0.00783802869091964,0.00783802869091964
-0.2983948316041527,-0.2983948316041527
-0.4051247829134273,-0.4051247829134273
-0.4199027761716345,-0.4199027761716345
-0.4051247829134273,-0.4051247829134273
-0.38788379077885216,-0.38788379077885216
-0.3640748016406294,-0.3640748016406294
-0.33123481662239107,-0.33123481662239107
-0.2811538394695776,-0.2811538394695776
-0.23107286231676416,-0.23107286231676416
-0.19823287729852584,-0.19823287729852584
-0.19823287729852584,-0.19823287729852584
-0.19823287729852584,-0.19823287729852584
-0.1875598821675984,-0.1875598821675984
-0.15718289602572794,-0.15718289602572794
-0.13747890501478494,-0.13747890501478494
-0.11613291475293003,-0.11613291475293003
-0.0988919226183549,-0.0988919226183549
-0.07426193385467617,-0.07426193385467617
-0.05702094172010105,-0.05702094172010105
-0.033211952581878264,-0.033211952581878264
0.0004490320618160178,0.0004490320618160178
0.0497090095891735,0.0497090095891735
0.09404298936379524,0.09404298936379524
0.1318089721347693,0.1318089721347693
0.16793295565483146,0.16793295565483146
0.21472993430582107,0.21472993430582107
0.25085391782588323,0.25085391782588323
0.25577991557861895,0.25577991557861895
0.22950792756402832,0.22950792756402832
0.21472993430582107,0.21472993430582107
0.22704492868766044,0.22704492868766044
0.25577991557861895,0.25577991557861895
0.27384190733865005,0.27384190733865005
0.29682989685141686,0.29682989685141686
0.33459587962239096,0.33459587962239096
0.37975085902246863,0.37975085902246863
0.40355984816069146,0.40355984816069146
0.42080084029526654,0.42080084029526654
0.45035682681168104,0.45035682681168104
0.5037218024663184,0.5037218024663184
0.5628337754991473,0.5628337754991473
0.627692745910168,0.627692745910168
0.7015827122012042,0.7015827122012042
0.7927136706268155,0.7927136706268155
0.8813816301760591,0.8813816301760591
0.9585555949689191,0.9585555949689191
1.01930956725266,1.01930956725266
1.0825265384127687,1.0825265384127687
1.1350705144419502,1.1350705144419502
1.1646265009583645,1.1646265009583645
1.1646265009583645,1.1646265009583645
1.1646265009583645,1.1646265009583645
1.1703734983365564,1.1703734983365564
1.1646265009583645,1.1646265009583645
1.117008522681919,1.117008522681919
1.0406555575145149,1.0406555575145149
0.9577345953434632,0.9577345953434632
0.8756346327978674,0.8756346327978674
0.7762936781176965,0.7762936781176965
0.6687427271829659,0.6687427271829659
0.5702227721282509,0.5702227721282509
0.5037218024663184,0.5037218024663184
0.45856682306624064,0.45856682306624064
0.42080084029526654,0.42080084029526654
0.36579386538971737,0.36579386538971737
0.29682989685141686,0.29682989685141686
0.23607592456767598,0.23607592456767598
0.21472993430582107,0.21472993430582107
0.21801393280764492,0.21801393280764492
0.21472993430582107,0.21472993430582107
0.17614295190939105,0.17614295190939105
0.1318089721347693,0.1318089721347693
0.10471598449472269,0.10471598449472269
0.09075899086197141,0.09075899086197141
0.04642501108734967,0.04642501108734967
-0.033211952581878264,-0.033211952581878264
-0.11777491400384195,-0.11777491400384195
-0.15718289602572794,-0.15718289602572794
-0.15882489527663984,-0.15882489527663984
-0.15718289602572794,-0.15718289602572794
-0.1892018814185103,-0.1892018814185103
-0.2401038581967797,-0.2401038581967797
-0.2893638357241372,-0.2893638357241372
-0.3222038207423755,-0.3222038207423755
-0.350938807633334,-0.350938807633334
-0.3640748016406294,-0.3640748016406294
-0.35668580501152575,-0.35668580501152575
-0.3222038207423755,-0.3222038207423755
-0.2811538394695776,-0.2811538394695776
-0.2401038581967797,-0.2401038581967797
-0.2023378754258056,-0.2023378754258056
-0.15718289602572794,-0.15718289602572794
-0.1144909155020181,-0.1144909155020181
-0.07426193385467617,-0.07426193385467617
-0.038137950334614014,-0.038137950334614014
0.00783802869091964,0.00783802869091964
0.05463500734190925,0.05463500734190925
0.09075899086197141,0.09075899086197141
0.10799998299654652,0.10799998299654652
0.1318089721347693,0.1318089721347693
0.17039595453119935,0.17039595453119935
0.21472993430582107,0.21472993430582107
0.24100192232041173,0.24100192232041173
0.25577991557861895,0.25577991557861895
0.2615269129568107,0.2615269129568107
0.25577991557861895,0.25577991557861895
0.23361292569130812,0.23361292569130812
0.21472993430582107,0.21472993430582107
0.21144593580399723,0.21144593580399723
0.21472993430582107,0.21472993430582107
0.20077294067306978,0.20077294067306978
0.17367995303302317,0.17367995303302317
0.14658696539297655,0.14658696539297655
0.1318089721347693,0.1318089721347693
0.1162099792511061,0.1162099792511061
0.09075899086197141,0.09075899086197141
0.052172008465541375,0.052172008465541375
0.00783802869091964,0.00783802869091964
-0.04963194509099742,-0.04963194509099742
-0.11613291475293003,-0.11613291475293003
-0.17606588741121496,-0.17606588741121496
-0.19823287729852584,-0.19823287729852584
-0.194948878796702,-0.194948878796702
-0.19823287729852584,-0.19823287729852584
-0.2359988600694999,-0.2359988600694999
-0.2811538394695776,-0.2811538394695776
-0.3098888263605361,-0.3098888263605361
-0.3222038207423755,-0.3222038207423755
-0.34354981100423043,-0.34354981100423043
-0.3640748016406294,-0.3640748016406294
-0.37146379826973297,-0.37146379826973297
-0.3640748016406294,-0.3640748016406294
-0.36161180276426147,-0.36161180276426147
-0.3640748016406294,-0.3640748016406294
-0.3673588001424532,-0.3673588001424532
-0.3640748016406294,-0.3640748016406294
-0.352580806884246,-0.352580806884246
-0.3222038207423755,-0.3222038207423755
-0.29182683460050507,-0.29182683460050507
-0.2811538394695776,-0.2811538394695776
-0.29182683460050507,-0.29182683460050507
-0.2811538394695776,-0.2811538394695776
-0.23928285857132373,-0.23928285857132373
-0.19823287729852584,-0.19823287729852584
-0.19412787917124605,-0.19412787917124605
-0.19823287729852584,-0.19823287729852584
-0.18427588366577455,-0.18427588366577455
-0.15718289602572794,-0.15718289602572794
-0.15225689827299219,-0.15225689827299219
-0.15718289602572794,-0.15718289602572794
-0.1621088937784637,-0.1621088937784637
-0.15718289602572794,-0.15718289602572794
-0.16292989340391964,-0.16292989340391964
-0.15718289602572794,-0.15718289602572794
-0.15225689827299219,-0.15225689827299219
-0.15718289602572794,-0.15718289602572794
-0.18427588366577455,-0.18427588366577455
-0.19823287729852584,-0.19823287729852584
-0.1933068795457901,-0.1933068795457901
-0.19823287729852584,-0.19823287729852584
-0.23928285857132373,-0.23928285857132373
-0.2811538394695776,-0.2811538394695776
-0.29428983347687293,-0.29428983347687293
-0.2811538394695776,-0.2811538394695776
-0.24420885632405948,-0.24420885632405948
-0.11613291475293003,-0.11613291475293003
0.1810689496621268,0.1810689496621268
0.6687427271829659,0.6687427271829659
1.292702442529494,1.292702442529494
1.991373123792514,1.991373123792514
2.6957908024337263,2.6957908024337263
3.3131825207766066,3.3131825207766066
3.6892003492354353,3.6892003492354353
3.6850953511081554,3.6850953511081554
3.2392925544855706,3.2392925544855706
2.4453859166696588,2.4453859166696588
1.5094463436498669,1.5094463436498669
0.6687427271829659,0.6687427271829659
0.06448700284738075,0.06448700284738075
-0.2811538394695776,-0.2811538394695776
-0.43878576755712156,-0.43878576755712156
-0.488045745084479,-0.488045745084479
-0.4929717428372148,-0.4929717428372148
-0.488045745084479,-0.488045745084479
-0.488045745084479,-0.488045745084479
-0.488045745084479,-0.488045745084479
-0.488045745084479,-0.488045745084479
-0.488045745084479,-0.488045745084479
-0.4913297435863029,-0.4913297435863029
-0.488045745084479,-0.488045745084479
-0.47573075070263965,-0.47573075070263965
-0.44617476418622515,-0.44617476418622515
-0.4125137795425309,-0.4125137795425309
-0.3640748016406294,-0.3640748016406294
-0.31891982224055165,-0.31891982224055165
-0.2811538394695776,-0.2811538394695776
-0.27458584246592993,-0.27458584246592993
-0.2811538394695776,-0.2811538394695776
-0.2893638357241372,-0.2893638357241372
-0.2811538394695776,-0.2811538394695776
-0.27458584246592993,-0.27458584246592993
-0.2811538394695776,-0.2811538394695776
-0.2951108331023289,-0.2951108331023289
-0.2811538394695776,-0.2811538394695776
-0.2401038581967797,-0.2401038581967797
-0.19823287729852584,-0.19823287729852584
-0.1908438806694222,-0.1908438806694222
-0.19823287729852584,-0.19823287729852584
-0.1933068795457901,-0.1933068795457901
-0.15718289602572794,-0.15718289602572794
-0.1128489162511062,-0.1128489162511062
-0.07426193385467617,-0.07426193385467617
-0.05291594359282126,-0.05291594359282126
-0.033211952581878264,-0.033211952581878264
-0.005297965316375689,-0.005297965316375689
0.0497090095891735,0.0497090095891735
0.1260619747565776,0.1260619747565776
0.21472993430582107,0.21472993430582107
0.2960088972259609,0.2960088972259609
0.37975085902246863,0.37975085902246863
0.4741658159499038,0.4741658159499038
0.5866427646373701,0.5866427646373701
0.6974777140739244,0.6974777140739244
0.7927136706268155,0.7927136706268155
0.862498638790572,0.862498638790572
0.9166846140706653,0.9166846140706653
0.961018593845287,0.961018593845287
0.999605576241717,0.999605576241717
1.0250565646308516,1.0250565646308516
1.0406555575145149,1.0406555575145149
1.0455815552672507,1.0455815552672507
1.0406555575145149,1.0406555575145149
1.0135625698744684,1.0135625698744684
0.9585555949689191,0.9585555949689191
0.8772766320487793,0.8772766320487793
0.7927136706268155,0.7927136706268155
0.7097927084557638,0.7097927084557638
0.627692745910168,0.627692745910168
0.5414877852372924,0.5414877852372924
0.4626718211935204,0.4626718211935204
0.3830348575242925,0.3830348575242925
0.29682989685141686,0.29682989685141686
0.20405693917489362,0.20405693917489362
0.1318089721347693,0.1318089721347693
0.0850119934837797,0.0850119934837797
0.0497090095891735,0.0497090095891735
0.00373303056363985,0.00373303056363985
-0.033211952581878264,-0.033211952581878264
-0.056199942094645086,-0.056199942094645086
-0.07426193385467617,-0.07426193385467617
-0.1144909155020181,-0.1144909155020181
-0.15718289602572794,-0.15718289602572794
-0.175244887785759,-0.175244887785759
-0.15718289602572794,-0.15718289602572794
-0.14322590239297664,-0.14322590239297664
-0.15718289602572794,-0.15718289602572794
-0.19002288104396625,-0.19002288104396625
-0.19823287729852584,-0.19823287729852584
-0.19002288104396625,-0.19002288104396625
-0.19823287729852584,-0.19823287729852584
-0.24338785669860352,-0.24338785669860352
-0.2811538394695776,-0.2811538394695776
-0.27869084059320975,-0.27869084059320975
-0.2401038581967797,-0.2401038581967797
-0.19987487654943775,-0.19987487654943775
-0.15718289602572794,-0.15718289602572794
-0.11120691700019428,-0.11120691700019428
-0.07426193385467617,-0.07426193385467617
-0.06933593610194042,-0.06933593610194042
-0.07426193385467617,-0.07426193385467617
-0.06358893872374871,-0.06358893872374871
-0.033211952581878264,-0.033211952581878264
-0.019254958949126978,-0.019254958949126978
-0.033211952581878264,-0.033211952581878264
-0.0619469394728368,-0.0619469394728368
-0.07426193385467617,-0.07426193385467617
-0.07426193385467617,-0.07426193385467617
-0.07426193385467617,-0.07426193385467617
-0.08247193010923574,-0.08247193010923574
-0.07426193385467617,-0.07426193385467617
-0.0520949439673653,-0.0520949439673653
-0.033211952581878264,-0.033211952581878264
-0.03485395183279018,-0.03485395183279018
-0.033211952581878264,-0.033211952581878264
-0.015149960821847186,-0.015149960821847186
0.00783802869091964,0.00783802869091964
0.01194302681819943,0.01194302681819943
0.00783802869091964,0.00783802869091964
0.006196029440007724,0.006196029440007724
0.00783802869091964,0.00783802869091964
0.00373303056363985,0.00373303056363985
0.00783802869091964,0.00783802869091964
0.01604802494547922,0.01604802494547922
0.00783802869091964,0.00783802869091964
-0.033211952581878264,-0.033211952581878264
-0.07426193385467617,-0.07426193385467617
-0.08821892748742745,-0.08821892748742745
-0.07426193385467617,-0.07426193385467617
-0.06851493647648446,-0.06851493647648446
-0.07426193385467617,-0.07426193385467617
-0.08165093048377979,-0.08165093048377979
-0.07426193385467617,-0.07426193385467617
-0.06933593610194042,-0.06933593610194042
-0.07426193385467617,-0.07426193385467617
-0.09478692449107512,-0.09478692449107512
-0.11613291475293003,-0.11613291475293003
-0.1382999046402409,-0.1382999046402409
-0.15718289602572794,-0.15718289602572794
-0.1694978904075673,-0.1694978904075673
-0.15718289602572794,-0.15718289602572794
-0.13337390688750514,-0.13337390688750514
-0.11613291475293003,-0.11613291475293003
-0.10792291849837045,-0.10792291849837045
-0.07426193385467617,-0.07426193385467617
-0.023359957076406767,-0.023359957076406767
0.00783802869091964,0.00783802869091964
0.002091031312727934,0.002091031312727934
0.00783802869091964,0.00783802869091964
0.048888009963717546,0.048888009963717546
0.09075899086197141,0.09075899086197141
0.09322198973833928,0.09322198973833928
0.09075899086197141,0.09075899086197141
0.11128398149837036,0.11128398149837036
0.1318089721347693,0.1318089721347693
0.11538897962565015,0.11538897962565015
0.09075899086197141,0.09075899086197141
0.08665399273469161,0.08665399273469161
0.09075899086197141,0.09075899086197141
0.07023400022557245,0.07023400022557245
0.0497090095891735,0.0497090095891735
0.059561005094645,0.059561005094645
0.09075899086197141,0.09075899086197141
0.10061098636744291,0.10061098636744291
0.09075899086197141,0.09075899086197141
0.08336999423286778,0.08336999423286778
0.09075899086197141,0.09075899086197141
0.09404298936379524,0.09404298936379524
0.09075899086197141,0.09075899086197141
0.0751599979783082,0.0751599979783082
0.0497090095891735,0.0497090095891735
0.005375029814551766,0.005375029814551766
-0.033211952581878264,-0.033211952581878264
-0.06358893872374871,-0.06358893872374871
-0.07426193385467617,-0.07426193385467617
-0.08329292973469171,-0.08329292973469171
-0.07426193385467617,-0.07426193385467617
-0.07097793535285234,-0.07097793535285234
-0.07426193385467617,-0.07426193385467617
-0.08657692823651554,-0.08657692823651554
-0.07426193385467617,-0.07426193385467617
-0.03567495145824614,-0.03567495145824614
0.00783802869091964,0.00783802869091964
0.018511023821847095,0.018511023821847095
0.00783802869091964,0.00783802869091964
0.028363019327318592,0.028363019327318592
0.1318089721347693,0.1318089721347693
0.31653388786235986,0.31653388786235986
0.5866427646373701,0.5866427646373701
1.0012475754926289,1.0012475754926289
1.6194602934609654,1.6194602934609654
2.3386559653603842,2.3386559653603842
2.9823196717178555,2.9823196717178555
3.504475433507845,3.504475433507845
3.974087219268653,3.974087219268653
4.259795088927326,4.259795088927326
4.015137200541451,4.015137200541451
3.1054696155362493,3.1054696155362493
1.9084521616214625,1.9084521616214625
0.941314602834344,0.941314602834344
0.37975085902246863,0.37975085902246863
0.05874000546918904,0.05874000546918904
-0.15718289602572794,-0.15718289602572794
-0.27048084433865016,-0.27048084433865016
-0.2811538394695776,-0.2811538394695776
-0.2696598447131942,-0.2696598447131942
-0.2811538394695776,-0.2811538394695776
-0.30578382823325634,-0.30578382823325634
-0.3222038207423755,-0.3222038207423755
-0.3427288113787745,-0.3427288113787745
-0.3640748016406294,-0.3640748016406294
-0.3755687963970128,-0.3755687963970128
-0.3640748016406294,-0.3640748016406294
-0.3575068046369817,-0.3575068046369817
-0.3640748016406294,-0.3640748016406294
-0.3821367934006604,-0.3821367934006604
-0.3640748016406294,-0.3640748016406294
-0.32138282111691957,-0.32138282111691957
-0.2811538394695776,-0.2811538394695776
-0.28197483909503357,-0.28197483909503357
-0.2811538394695776,-0.2811538394695776
-0.25077685332770716,-0.25077685332770716
-0.19823287729852584,-0.19823287729852584
-0.1694978904075673,-0.1694978904075673
-0.15718289602572794,-0.15718289602572794
-0.13173190763659323,-0.13173190763659323
-0.07426193385467617,-0.07426193385467617
-0.02171795782549485,-0.02171795782549485
0.00783802869091964,0.00783802869091964
0.020153023072759013,0.020153023072759013
0.0497090095891735,0.0497090095891735
0.09240099011288332,0.09240099011288332
0.1318089721347693,0.1318089721347693
0.14904996426934444,0.14904996426934444
0.17367995303302317,0.17367995303302317
0.22293993056038067,0.22293993056038067
0.29682989685141686,0.29682989685141686
0.36415186613880546,0.36415186613880546
0.42080084029526654,0.42080084029526654
0.48730180995719913,0.48730180995719913
0.5866427646373701,0.5866427646373701
0.6966567144484684,0.6966567144484684
0.7927136706268155,0.7927136706268155
0.8690666357942196,0.8690666357942196
0.9585555949689191,0.9585555949689191
1.0644645466527376,1.0644645466527376
1.1646265009583645,1.1646265009583645
1.234411469122121,1.234411469122121
1.2885974444022141,1.2885974444022141
1.3271844267986443,1.3271844267986443
1.3296474256750122,1.3296474256750122
1.2894184440276701,1.2894184440276701
1.2475474631294163,1.2475474631294163
1.21634947736209,1.21634947736209
1.1646265009583645,1.1646265009583645
1.0644645466527376,1.0644645466527376
0.9585555949689191,0.9585555949689191
0.8756346327978674,0.8756346327978674
0.7927136706268155,0.7927136706268155
0.6720267256847897,0.6720267256847897
0.5447717837391162,0.5447717837391162
0.4495358271862251,0.4495358271862251
0.37975085902246863,0.37975085902246863
0.2976508964768728,0.2976508964768728
0.21472993430582107,0.21472993430582107
0.1474079650184325,0.1474079650184325
0.09075899086197141,0.09075899086197141
0.011122027192743472,0.011122027192743472
-0.07426193385467617,-0.07426193385467617
-0.1382999046402409,-0.1382999046402409
-0.15718289602572794,-0.15718289602572794
-0.15882489527663984,-0.15882489527663984
-0.15718289602572794,-0.15718289602572794
-0.16128789415300773,-0.16128789415300773
