ECG,PPG
-0.06031453988137303,-0.06031453988137303
-0.08942350929335476,-0.08942350929335476
-0.10594481625691193,-0.10594481625691193
-0.10673154515993848,-0.10673154515993848
-0.09729079832362007,-0.09729079832362007
-0.08391640697216902,-0.08391640697216902
-0.07054201562071796,-0.07054201562071796
-0.06582164220255876,-0.06582164220255876
-0.07132874452374449,-0.07132874452374449
-0.08312967806914248,-0.08312967806914248
-0.08942350929335476,-0.08942350929335476
-0.08785005148730168,-0.08785005148730168
-0.08470313587519555,-0.08470313587519555
-0.08155622026308942,-0.08155622026308942
-0.06896855781466489,-0.06896855781466489
-0.04221977511176277,-0.04221977511176277
-0.012324076796754518,-0.012324076796754518
0.004983959069829206,0.004983959069829206
0.006557416875882272,0.006557416875882272
0.006557416875882272,0.006557416875882272
0.017571621518253734,0.017571621518253734
0.04117348860904972,0.04117348860904972
0.0694957291180049,0.0694957291180049
0.09624451182090701,0.09624451182090701
0.1151260054935438,0.1151260054935438
0.11669946329959688,0.11669946329959688
0.09231086730577436,0.09231086730577436
0.05061423544536811,0.05061423544536811
0.017571621518253734,0.017571621518253734
0.01993180822733333,0.01993180822733333
0.05297442215444771,0.05297442215444771
0.08208339156642942,0.08208339156642942
0.07342937363313756,0.07342937363313756
0.027012368354572127,0.027012368354572127
-0.028058654857285176,-0.028058654857285176
-0.06424818439650569,-0.06424818439650569
-0.0784093046509833,-0.0784093046509833
-0.09178369600243434,-0.09178369600243434
-0.10830500296599153,-0.10830500296599153
-0.12325285212349567,-0.12325285212349567
-0.1169590208992834,-0.1169590208992834
-0.09729079832362007,-0.09729079832362007
-0.0784093046509833,-0.0784093046509833
-0.07526238903887715,-0.07526238903887715
-0.08155622026308942,-0.08155622026308942
-0.08706332258427515,-0.08706332258427515
-0.08942350929335476,-0.08942350929335476
-0.09729079832362007,-0.09729079832362007
-0.13662724347494673,-0.13662724347494673
-0.2562100367349797,-0.2562100367349797
-0.479641045194515,-0.479641045194515
-0.7313942941630056,-0.7313942941630056
-0.8226548469140834,-0.8226548469140834
-0.5567404776911152,-0.5567404776911152
0.1363676858752602,0.1363676858752602
1.1394470372340897,1.1394470372340897
2.170061900198848,2.170061900198848
2.868677166086409,2.868677166086409
2.982752857025256,2.982752857025256
2.5461183158455305,2.5461183158455305
1.8593039835033673,1.8593039835033673
1.2401483368214858,1.2401483368214858
0.8082341690599193,0.8082341690599193
0.5092771859098368,0.5092771859098368
0.28112580403214227,0.28112580403214227
0.1269269390389418,0.1269269390389418
0.05612133776655384,0.05612133776655384
0.03802657299694359,0.03802657299694359
0.028585826160625195,0.028585826160625195
0.007344145778908805,0.007344145778908805
-0.017044450214913714,-0.017044450214913714
-0.03199229937241784,-0.03199229937241784
-0.03592594388755051,-0.03592594388755051
-0.036712672790577036,-0.036712672790577036
-0.0382861305966301,-0.0382861305966301
-0.03592594388755051,-0.03592594388755051
-0.02648519705123211,-0.02648519705123211
-0.014684263505834117,-0.014684263505834117
-0.0005231432513565238,-0.0005231432513565238
0.007344145778908805,0.007344145778908805
0.015211434809174135,0.015211434809174135
0.012851248100094536,0.012851248100094536
0.006557416875882272,0.006557416875882272
-0.0036700588634626555,-0.0036700588634626555
-0.005243516669515722,-0.005243516669515722
0.007344145778908805,0.007344145778908805
0.031732741772731325,0.031732741772731325
0.057694795572606906,0.057694795572606906
0.07264264473011103,0.07264264473011103
0.07342937363313756,0.07342937363313756
0.0694957291180049,0.0694957291180049
0.07264264473011103,0.07264264473011103
0.09073740949972128,0.09073740949972128
0.11905965000867648,0.11905965000867648
0.14738189051763165,0.14738189051763165
0.17019702870540113,0.17019702870540113
0.1890785223780379,0.1890785223780379
0.20953347385672777,0.20953347385672777
0.23077515423844414,0.23077515423844414
0.251230105717134,0.251230105717134
0.27247178609885037,0.27247178609885037
0.29214000867451373,0.29214000867451373
0.3110215023471505,0.3110215023471505
0.3322631827288669,0.3322631827288669
0.36294560994690167,0.36294560994690167
0.39913513948612217,0.39913513948612217
0.4321777534132366,0.4321777534132366
0.4549928916010061,0.4549928916010061
0.477021300885749,0.477021300885749
0.5100639148128634,0.5100639148128634
0.5517605466732696,0.5517605466732696
0.5855898895034105,0.5855898895034105
0.5989642808548616,0.5989642808548616
0.5973908230488085,0.5973908230488085
0.5934571785336759,0.5934571785336759
0.5934571785336759,0.5934571785336759
0.5926704496306493,0.5926704496306493
0.583229702794331,0.583229702794331
0.5674951247338003,0.5674951247338003
0.5556941911884022,0.5556941911884022
0.5517605466732696,0.5517605466732696
0.547826902158137,0.547826902158137
0.5328790530006329,0.5328790530006329
0.5006231679765449,0.5006231679765449
0.45735307831008565,0.45735307831008565
0.41172280193454674,0.41172280193454674
0.36687925446203434,0.36687925446203434
0.32203570698952194,0.32203570698952194
0.27640543061398304,0.27640543061398304
0.2347087987535768,0.2347087987535768
0.20166618482646242,0.20166618482646242
0.17177048651145418,0.17177048651145418
0.1387278725843398,0.1387278725843398
0.10253834304511929,0.10253834304511929
0.07342937363313756,0.07342937363313756
0.05612133776655384,0.05612133776655384
0.04117348860904972,0.04117348860904972
0.01993180822733333,0.01993180822733333
-0.0020966010574095897,-0.0020966010574095897
-0.016257721311887182,-0.016257721311887182
-0.023338281439125978,-0.023338281439125978
-0.03435248608149744,-0.03435248608149744
-0.0500870641420281,-0.0500870641420281
-0.06031453988137303,-0.06031453988137303
-0.0571676242692669,-0.0571676242692669
-0.05166052194808117,-0.05166052194808117
-0.0595278109783465,-0.0595278109783465
-0.08312967806914248,-0.08312967806914248
-0.10437135845085888,-0.10437135845085888
-0.1098784607720446,-0.1098784607720446
-0.1004377139357262,-0.1004377139357262
-0.09257042490546089,-0.09257042490546089
-0.09099696709940781,-0.09099696709940781
-0.09178369600243434,-0.09178369600243434
-0.08548986477822208,-0.08548986477822208
-0.07762257574795675,-0.07762257574795675
-0.07919603355400982,-0.07919603355400982
-0.09099696709940781,-0.09099696709940781
-0.10201117174177927,-0.10201117174177927
-0.10201117174177927,-0.10201117174177927
-0.09257042490546089,-0.09257042490546089
-0.0784093046509833,-0.0784093046509833
-0.053233979754134235,-0.053233979754134235
-0.01547099240886065,-0.01547099240886065
0.023865452742465997,0.023865452742465997
0.04510713312418239,0.04510713312418239
0.03960003080299666,0.03960003080299666
0.023078723839439465,0.023078723839439465
0.017571621518253734,0.017571621518253734
0.034879657384837455,0.034879657384837455
0.0671355424089253,0.0671355424089253
0.10096488523906622,0.10096488523906622
0.12535348123288872,0.12535348123288872
0.12771366794196834,0.12771366794196834
0.10332507194814582,0.10332507194814582
0.06398862679681917,0.06398862679681917
0.03645311519089052,0.03645311519089052
0.03566638628786399,0.03566638628786399
0.04668059093023545,0.04668059093023545
0.04904077763931505,0.04904077763931505
0.03330619957878439,0.03330619957878439
0.006557416875882272,0.006557416875882272
-0.028058654857285176,-0.028058654857285176
-0.06424818439650569,-0.06424818439650569
-0.08155622026308942,-0.08155622026308942
-0.07998276245703635,-0.07998276245703635
-0.06975528671769142,-0.06975528671769142
-0.07762257574795675,-0.07762257574795675
-0.09571734051756702,-0.09571734051756702
-0.1051580873538854,-0.1051580873538854
-0.09335715380848741,-0.09335715380848741
-0.0760491179419037,-0.0760491179419037
-0.06975528671769142,-0.06975528671769142
-0.07683584684493022,-0.07683584684493022
-0.08391640697216902,-0.08391640697216902
-0.09099696709940781,-0.09099696709940781
-0.13269359895981406,-0.13269359895981406
-0.26879769918340424,-0.26879769918340424
-0.5142571169276825,-0.5142571169276825
-0.7612899924780138,-0.7612899924780138
-0.8077069977565794,-0.8077069977565794
-0.491441978739913,-0.491441978739913
0.20953347385672777,0.20953347385672777
1.172489651161204,1.172489651161204
2.1543273221383172,2.1543273221383172
2.82304688971087,2.82304688971087
2.9150941713649745,2.9150941713649745
2.462725052124718,2.462725052124718
1.7877116533279527,1.7877116533279527
1.2086791807004245,1.2086791807004245
0.7995801511266275,0.7995801511266275
0.48331513210996124,0.48331513210996124
0.23628225655962987,0.23628225655962987
0.09860469852998661,0.09860469852998661
0.05297442215444771,0.05297442215444771
0.02779909725759866,0.02779909725759866
-0.009177161184648387,-0.009177161184648387
-0.03592594388755051,-0.03592594388755051
-0.04379323291781583,-0.04379323291781583
-0.05402070865716077,-0.05402070865716077
-0.07132874452374449,-0.07132874452374449
-0.07447566013585062,-0.07447566013585062
-0.0548074375601873,-0.0548074375601873
-0.03199229937241784,-0.03199229937241784
-0.02648519705123211,-0.02648519705123211
-0.0382861305966301,-0.0382861305966301
-0.0382861305966301,-0.0382861305966301
-0.021764823633072913,-0.021764823633072913
0.0026237723607496076,0.0026237723607496076
0.009704332487988404,0.009704332487988404
0.008917603584961872,0.008917603584961872
0.012851248100094536,0.012851248100094536
0.026225639451545595,0.026225639451545595
0.03566638628786399,0.03566638628786399
0.04117348860904972,0.04117348860904972
0.04746731983326198,0.04746731983326198
0.06320189789379263,0.06320189789379263
0.09388432511182743,0.09388432511182743
0.14423497490552553,0.14423497490552553
0.2008794559234359,0.2008794559234359
0.23549552765660334,0.23549552765660334
0.23234861204449722,0.23234861204449722
0.2087467449537012,0.2087467449537012
0.1914387090871175,0.1914387090871175
0.1961590825052767,0.1961590825052767
0.22054767849909923,0.22054767849909923
0.25909739474739935,0.25909739474739935
0.300007297704779,0.300007297704779
0.32754280931070767,0.32754280931070767
0.33777028505005263,0.33777028505005263
0.3464243029833445,0.3464243029833445
0.3637323388499282,0.3637323388499282
0.3896943926498038,0.3896943926498038
0.41801663315875903,0.41801663315875903
0.4557796205040326,0.4557796205040326
0.5037700835886512,0.5037700835886512
0.54940035996419,0.54940035996419
0.5714287692489329,0.5714287692489329
0.573002227054986,0.573002227054986
0.5698553114428799,0.5698553114428799
0.574575684861039,0.574575684861039
0.583229702794331,0.583229702794331
0.5910969918245963,0.5910969918245963
0.595030636339729,0.595030636339729
0.596604094145782,0.596604094145782
0.5942439074367024,0.5942439074367024
0.5863766184064371,0.5863766184064371
0.573002227054986,0.573002227054986
0.5588411068005085,0.5588411068005085
0.5431065287399778,0.5431065287399778
0.5250117639703675,0.5250117639703675
0.49983643907351843,0.49983643907351843
0.4723009274675898,0.4723009274675898
0.44948578927982036,0.44948578927982036
0.429817566704157,0.429817566704157
0.4014953261952018,0.4014953261952018
0.35350486311058327,0.35350486311058327
0.286632906353328,0.286632906353328
0.22054767849909923,0.22054767849909923
0.17019702870540113,0.17019702870540113
0.13715441477828674,0.13715441477828674
0.11197908988143768,0.11197908988143768
0.0860170360815621,0.0860170360815621
0.055334608863527306,0.055334608863527306
0.023865452742465997,0.023865452742465997
-0.00760370337859532,-0.00760370337859532
-0.033565757178470906,-0.033565757178470906
-0.04930033523900156,-0.04930033523900156
-0.05166052194808117,-0.05166052194808117
-0.0453666907238689,-0.0453666907238689
-0.03513921498452397,-0.03513921498452397
-0.028058654857285176,-0.028058654857285176
-0.024911739245179046,-0.024911739245179046
-0.033565757178470906,-0.033565757178470906
-0.0571676242692669,-0.0571676242692669
-0.08785005148730168,-0.08785005148730168
-0.10909173186901808,-0.10909173186901808
-0.11302537638415074,-0.11302537638415074
-0.10909173186901808,-0.10909173186901808
-0.10673154515993848,-0.10673154515993848
-0.09965098503269967,-0.09965098503269967
-0.08312967806914248,-0.08312967806914248
-0.061887997687426095,-0.061887997687426095
-0.04851360633597503,-0.04851360633597503
-0.04457996182084237,-0.04457996182084237
-0.04851360633597503,-0.04851360633597503
-0.058741082075319966,-0.058741082075319966
-0.07211547342677102,-0.07211547342677102
-0.07683584684493022,-0.07683584684493022
-0.0571676242692669,-0.0571676242692669
-0.01311080569978105,-0.01311080569978105
0.034092928481810926,0.034092928481810926
0.057694795572606906,0.057694795572606906
0.04825404873628852,0.04825404873628852
0.0191450793243068,0.0191450793243068
-0.0028833299604361226,-0.0028833299604361226
0.0026237723607496076,0.0026237723607496076
0.03566638628786399,0.03566638628786399
0.08208339156642942,0.08208339156642942
0.12063310781472954,0.12063310781472954
0.1340074991661806,0.1340074991661806
0.11748619220262341,0.11748619220262341
0.07893647595432329,0.07893647595432329
0.037239844093917056,0.037239844093917056
0.015211434809174135,0.015211434809174135
0.020718537130359864,0.020718537130359864
0.03960003080299666,0.03960003080299666
0.04825404873628852,0.04825404873628852
0.025438910548519062,0.025438910548519062
-0.021764823633072913,-0.021764823633072913
-0.07290220232979756,-0.07290220232979756
-0.10830500296599153,-0.10830500296599153
-0.12089266541441607,-0.12089266541441607
-0.12561303883257527,-0.12561303883257527
-0.12561303883257527,-0.12561303883257527
-0.1240395810265222,-0.1240395810265222
-0.1098784607720446,-0.1098784607720446
-0.08627659368124861,-0.08627659368124861
-0.06739510000861183,-0.06739510000861183
-0.06503491329953223,-0.06503491329953223
-0.07054201562071796,-0.07054201562071796
-0.07290220232979756,-0.07290220232979756
-0.06818182891163836,-0.06818182891163836
-0.07683584684493022,-0.07683584684493022
-0.14056088799007938,-0.14056088799007938
-0.31364124665591664,-0.31364124665591664
-0.5945034650363888,-0.5945034650363888
-0.847043442907906,-0.847043442907906
-0.8336690515564549,-0.8336690515564549
-0.3797264745101454,-0.3797264745101454
0.488822234431147,0.488822234431147
1.5627071870623643,1.5627071870623643
2.531957195591053,2.531957195591053
3.068506307455148,3.068506307455148
2.982752857025256,2.982752857025256
2.39191945085233,2.39191945085233
1.6586881132316014,1.6586881132316014
1.088309658537365,1.088309658537365
0.7201205319209477,0.7201205319209477
0.44948578927982036,0.44948578927982036
0.23864244326870948,0.23864244326870948
0.12063310781472954,0.12063310781472954
0.07264264473011103,0.07264264473011103
0.026225639451545595,0.026225639451545595
-0.03277902827544437,-0.03277902827544437
-0.05795435317229343,-0.05795435317229343
-0.03199229937241784,-0.03199229937241784
0.001837043457723075,0.001837043457723075
0.004197230166802674,0.004197230166802674
-0.021764823633072913,-0.021764823633072913
-0.04615341962689543,-0.04615341962689543
-0.05166052194808117,-0.05166052194808117
-0.04221977511176277,-0.04221977511176277
-0.03120557046939131,-0.03120557046939131
-0.016257721311887182,-0.016257721311887182
-0.005243516669515722,-0.005243516669515722
0.001837043457723075,0.001837043457723075
-0.005243516669515722,-0.005243516669515722
-0.011537347893727984,-0.011537347893727984
-0.006030245572542254,-0.006030245572542254
0.015998163712200666,0.015998163712200666
0.034879657384837455,0.034879657384837455
0.034092928481810926,0.034092928481810926
0.015211434809174135,0.015211434809174135
-0.0020966010574095897,-0.0020966010574095897
-0.0005231432513565238,-0.0005231432513565238
0.029372555063651728,0.029372555063651728
0.08050993376037636,0.08050993376037636
0.13794114368131327,0.13794114368131327
0.18042450444474603,0.18042450444474603
0.20166618482646242,0.20166618482646242
0.20953347385672777,0.20953347385672777
0.2221211363051523,0.2221211363051523
0.2417893588808156,0.2417893588808156
0.263031039262532,0.263031039262532
0.2826992618381953,0.2826992618381953
0.3196755202804424,0.3196755202804424
0.3818271036195385,0.3818271036195385
0.4486990603767938,0.4486990603767938
0.48567531881904086,0.48567531881904086
0.4841018610129878,0.4841018610129878
0.4699407407585102,0.4699407407585102
0.4817416743039082,0.4817416743039082
0.5273719506794471,0.5273719506794471
0.5855898895034105,0.5855898895034105
0.6272865213638168,0.6272865213638168
0.6398741838122413,0.6398741838122413
0.621779419042631,0.621779419042631
0.5871633473094636,0.5871633473094636
0.5604145646065615,0.5604145646065615
0.5667083958307737,0.5667083958307737
0.6028979253699943,0.6028979253699943
0.6343670814910556,0.6343670814910556
0.6304334369759229,0.6304334369759229
0.6021111964669678,0.6021111964669678
0.5840164316973575,0.5840164316973575
0.5887368051155166,0.5887368051155166
0.5958173652427554,0.5958173652427554
0.5777226004731452,0.5777226004731452
0.5273719506794471,0.5273719506794471
0.4620734517282449,0.4620734517282449
0.40228205509822834,0.40228205509822834
0.36215888104387517,0.36215888104387517
0.3346233694379465,0.3346233694379465
0.30708785783201786,0.30708785783201786
0.27247178609885037,0.27247178609885037
0.23785571436568295,0.23785571436568295
0.20166618482646242,0.20166618482646242
0.1599695529660562,0.1599695529660562
0.11748619220262341,0.11748619220262341
0.09309759620880088,0.09309759620880088
0.09231086730577436,0.09231086730577436
0.09781796962696009,0.09781796962696009
0.0836568493724825,0.0836568493724825
0.04904077763931505,0.04904077763931505
0.013637977003121068,0.013637977003121068
-0.005243516669515722,-0.005243516669515722
-0.005243516669515722,-0.005243516669515722
0.006557416875882272,0.006557416875882272
0.018358350421280267,0.018358350421280267
0.0191450793243068,0.0191450793243068
-0.0005231432513565238,-0.0005231432513565238
-0.03435248608149744,-0.03435248608149744
-0.07290220232979756,-0.07290220232979756
-0.1004377139357262,-0.1004377139357262
-0.10594481625691193,-0.10594481625691193
-0.08391640697216902,-0.08391640697216902
-0.0453666907238689,-0.0453666907238689
-0.012324076796754518,-0.012324076796754518
-0.004456787766489188,-0.004456787766489188
-0.02097809473004638,-0.02097809473004638
-0.04457996182084237,-0.04457996182084237
-0.05795435317229343,-0.05795435317229343
-0.0571676242692669,-0.0571676242692669
-0.04930033523900156,-0.04930033523900156
-0.0382861305966301,-0.0382861305966301
-0.019404636923993315,-0.019404636923993315
0.009704332487988404,0.009704332487988404
0.04196021751207625,0.04196021751207625
0.06398862679681917,0.06398862679681917
0.07421610253616409,0.07421610253616409
0.08050993376037636,0.08050993376037636
0.08995068059669475,0.08995068059669475
0.09467105401485396,0.09467105401485396
0.08680376498458862,0.08680376498458862
0.07736301814827024,0.07736301814827024
0.09073740949972128,0.09073740949972128
0.13007385465104793,0.13007385465104793
0.16232973967513578,0.16232973967513578
0.15288899283881738,0.15288899283881738
0.10253834304511929,0.10253834304511929
0.05376115105747424,0.05376115105747424
0.04746731983326198,0.04746731983326198
0.0812966626634029,0.0812966626634029
0.11591273439657034,0.11591273439657034
0.11984637891170301,0.11984637891170301
0.08916395169366823,0.08916395169366823
0.040386759706023186,0.040386759706023186
-0.009963890087674919,-0.009963890087674919
-0.0500870641420281,-0.0500870641420281
-0.06031453988137303,-0.06031453988137303
-0.055594166463213836,-0.055594166463213836
-0.05402070865716077,-0.05402070865716077
-0.0760491179419037,-0.0760491179419037
-0.09571734051756702,-0.09571734051756702
-0.09099696709940781,-0.09099696709940781
-0.06582164220255876,-0.06582164220255876
-0.0524472508511077,-0.0524472508511077
-0.061887997687426095,-0.061887997687426095
-0.08470313587519555,-0.08470313587519555
-0.1051580873538854,-0.1051580873538854
-0.13269359895981406,-0.13269359895981406
-0.19877882681404282,-0.19877882681404282
-0.35533787851632287,-0.35533787851632287
-0.6000105673575745,-0.6000105673575745
-0.8045600821444732,-0.8045600821444732
-0.7313942941630056,-0.7313942941630056
-0.2011390135231224,-0.2011390135231224
0.7531631458480621,0.7531631458480621
1.8844793084002163,1.8844793084002163
2.8324876365471883,2.8324876365471883
3.2620416175996754,3.2620416175996754
3.0393973380431665,3.0393973380431665
2.3557299213131095,2.3557299213131095
1.603617090019744,1.603617090019744
1.0576272313193302,1.0576272313193302
0.7106797850846293,0.7106797850846293
0.4384715846374489,0.4384715846374489
0.21976094959607267,0.21976094959607267
0.10725871646327848,0.10725871646327848
0.0883772227906417,0.0883772227906417
0.07814974705129676,0.07814974705129676
0.03881330189997012,0.03881330189997012
0.003410501263776141,0.003410501263776141
-0.0028833299604361226,-0.0028833299604361226
0.001837043457723075,0.001837043457723075
-0.006816974475568787,-0.006816974475568787
-0.019404636923993315,-0.019404636923993315
-0.01861790802096678,-0.01861790802096678
-0.0020966010574095897,-0.0020966010574095897
0.018358350421280267,0.018358350421280267
0.026225639451545595,0.026225639451545595
0.027012368354572127,0.027012368354572127
0.023078723839439465,0.023078723839439465
0.026225639451545595,0.026225639451545595
0.03015928396667826,0.03015928396667826
0.03881330189997012,0.03881330189997012
0.05376115105747424,0.05376115105747424
0.07657628924524369,0.07657628924524369
0.09545778291788048,0.09545778291788048
0.10411180085117235,0.10411180085117235
0.10332507194814582,0.10332507194814582
0.10175161414209274,0.10175161414209274
0.10568525865722542,0.10568525865722542
0.11984637891170301,0.11984637891170301
0.1363676858752602,0.1363676858752602
0.15288899283881738,0.15288899283881738
0.17334394431750724,0.17334394431750724
0.20796001605067468,0.20796001605067468
0.2488699190080544,0.2488699190080544
0.28112580403214227,0.28112580403214227
0.29528692428661985,0.29528692428661985
0.3031542133168852,0.3031542133168852
0.31731533357136277,0.31731533357136277
0.33777028505005263,0.33777028505005263
0.35979869433479555,0.35979869433479555
0.38654747703769765,0.38654747703769765
0.4250971932859978,0.4250971932859978
0.47387438527364284,0.47387438527364284
0.5179312038431287,0.5179312038431287
0.547826902158137,0.547826902158137
0.5674951247338003,0.5674951247338003
0.5879500762124902,0.5879500762124902
0.6162723167214453,0.6162723167214453
0.6501016595515863,0.6501016595515863
0.6799973578665944,0.6799973578665944
0.6980921226362048,0.6980921226362048
0.6988788515392312,0.6988788515392312
0.6870779179938333,0.6870779179938333
0.6744902555454088,0.6744902555454088
0.6713433399333026,0.6713433399333026
0.6721300688363292,0.6721300688363292
0.6587556774848781,0.6587556774848781
0.6264997924607902,0.6264997924607902
0.5926704496306493,0.5926704496306493
0.573002227054986,0.573002227054986
0.5596278357035349,0.5596278357035349
0.536025968612739,0.536025968612739
0.5014098968795715,0.5014098968795715
0.4612867228252183,0.4612867228252183
0.4172299042557325,0.4172299042557325
0.36451906775295473,0.36451906775295473
0.30787458673504436,0.30787458673504436
0.25673720803831973,0.25673720803831973
0.21818749179001962,0.21818749179001962
0.18593160676593176,0.18593160676593176
0.155249179547897,0.155249179547897
0.12378002342683567,0.12378002342683567
0.09545778291788048,0.09545778291788048
0.07342937363313756,0.07342937363313756
0.06005498228168651,0.06005498228168651
0.04746731983326198,0.04746731983326198
0.030946012869704793,0.030946012869704793
0.009704332487988404,0.009704332487988404
-0.006030245572542254,-0.006030245572542254
-0.01311080569978105,-0.01311080569978105
-0.017044450214913714,-0.017044450214913714
-0.023338281439125978,-0.023338281439125978
-0.03199229937241784,-0.03199229937241784
-0.0406463173057097,-0.0406463173057097
-0.0477268774329485,-0.0477268774329485
-0.055594166463213836,-0.055594166463213836
-0.0595278109783465,-0.0595278109783465
-0.0571676242692669,-0.0571676242692669
-0.0524472508511077,-0.0524472508511077
-0.0524472508511077,-0.0524472508511077
-0.0571676242692669,-0.0571676242692669
-0.0595278109783465,-0.0595278109783465
-0.0571676242692669,-0.0571676242692669
-0.0548074375601873,-0.0548074375601873
-0.05795435317229343,-0.05795435317229343
-0.061101268784399566,-0.061101268784399566
-0.056380895366240365,-0.056380895366240365
-0.04379323291781583,-0.04379323291781583
-0.030418841566364773,-0.030418841566364773
-0.017044450214913714,-0.017044450214913714
-0.0005231432513565238,-0.0005231432513565238
0.023078723839439465,0.023078723839439465
0.04117348860904972,0.04117348860904972
0.045893862027208916,0.045893862027208916
0.040386759706023186,0.040386759706023186
0.03881330189997012,0.03881330189997012
0.04904077763931505,0.04904077763931505
0.06870900021497836,0.06870900021497836
0.09152413840274783,0.09152413840274783
0.1104056320753846,0.1104056320753846
0.12141983671775607,0.12141983671775607
0.11905965000867648,0.11905965000867648
0.10017815633603969,0.10017815633603969
0.07500283143919063,0.07500283143919063
0.05454787996050078,0.05454787996050078
0.04353367531812932,0.04353367531812932
0.03251947067575786,0.03251947067575786
0.017571621518253734,0.017571621518253734
-0.0013098721543830568,-0.0013098721543830568
-0.022551552536099445,-0.022551552536099445
-0.0524472508511077,-0.0524472508511077
-0.08942350929335476,-0.08942350929335476
-0.1122386474811242,-0.1122386474811242
-0.11538556309323034,-0.11538556309323034
-0.1051580873538854,-0.1051580873538854
-0.10594481625691193,-0.10594481625691193
-0.11538556309323034,-0.11538556309323034
-0.12089266541441607,-0.12089266541441607
-0.11381210528717726,-0.11381210528717726
-0.10673154515993848,-0.10673154515993848
-0.10830500296599153,-0.10830500296599153
-0.1098784607720446,-0.1098784607720446
-0.1027979006448058,-0.1027979006448058
-0.10909173186901808,-0.10909173186901808
-0.18540443546259178,-0.18540443546259178
-0.3679255409647474,-0.3679255409647474
-0.6165318743211318,-0.6165318743211318
-0.7943326064051281,-0.7943326064051281
-0.7148729871994484,-0.7148729871994484
-0.24598256099563479,-0.24598256099563479
0.5973908230488085,0.5973908230488085
1.6280056860135665,1.6280056860135665
2.5240899065607874,2.5240899065607874
2.958364261031434,2.958364261031434
2.794724649201915,2.794724649201915
2.206251429738068,2.206251429738068
1.541465506680648,1.541465506680648
1.0348120931315608,1.0348120931315608
0.6799973578665944,0.6799973578665944
0.39284130826190994,0.39284130826190994
0.18357142005685217,0.18357142005685217
0.09231086730577436,0.09231086730577436
0.0718559158270845,0.0718559158270845
0.03645311519089052,0.03645311519089052
-0.020191365827019848,-0.020191365827019848
-0.0477268774329485,-0.0477268774329485
-0.04143304620873624,-0.04143304620873624
-0.04143304620873624,-0.04143304620873624
-0.06031453988137303,-0.06031453988137303
-0.07211547342677102,-0.07211547342677102
-0.06739510000861183,-0.06739510000861183
-0.06267472659045263,-0.06267472659045263
-0.06267472659045263,-0.06267472659045263
-0.06267472659045263,-0.06267472659045263
-0.05166052194808117,-0.05166052194808117
-0.0406463173057097,-0.0406463173057097
-0.028845383760311708,-0.028845383760311708
-0.02412501034215251,-0.02412501034215251
-0.02412501034215251,-0.02412501034215251
-0.028845383760311708,-0.028845383760311708
-0.028845383760311708,-0.028845383760311708
-0.023338281439125978,-0.023338281439125978
-0.009963890087674919,-0.009963890087674919
0.01127779029404147,0.01127779029404147
0.042746946415102786,0.042746946415102786
0.07421610253616409,0.07421610253616409
0.09073740949972128,0.09073740949972128
0.08995068059669475,0.08995068059669475
0.08680376498458862,0.08680376498458862
0.09624451182090701,0.09624451182090701
0.11984637891170301,0.11984637891170301
0.14030133039039286,0.14030133039039286
0.15131553503276432,0.15131553503276432
0.15918282406302967,0.15918282406302967
0.17727758883263992,0.17727758883263992
0.20638655824462163,0.20638655824462163
0.23785571436568295,0.23785571436568295
0.2606708525534524,0.2606708525534524
0.2795523462260892,0.2795523462260892
0.30551440002596475,0.30551440002596475
0.3448508451772914,0.3448508451772914
0.3904811215528303,0.3904811215528303
0.4290308378011305,0.4290308378011305
0.45971326501916526,0.45971326501916526
0.4911824211402266,0.4911824211402266
0.5250117639703675,0.5250117639703675
0.5533340044793227,0.5533340044793227
0.5674951247338003,0.5674951247338003
0.5714287692489329,0.5714287692489329
0.573002227054986,0.573002227054986
0.5737889559580125,0.5737889559580125
0.5682818536368268,0.5682818536368268
0.5588411068005085,0.5588411068005085
0.5509738177702431,0.5509738177702431
0.547826902158137,0.547826902158137
0.5399596131278717,0.5399596131278717
0.5195046616491817,0.5195046616491817
0.4911824211402266,0.4911824211402266
0.46679382514640405,0.46679382514640405
0.44712560257074074,0.44712560257074074
0.41801663315875903,0.41801663315875903
0.37002617007414046,0.37002617007414046
0.3157418757653097,0.3157418757653097
0.26853814158371775,0.26853814158371775
0.23313534094752375,0.23313534094752375
0.19930599811738284,0.19930599811738284
0.1646899263842154,0.1646899263842154
0.1292871257480214,0.1292871257480214
0.09467105401485396,0.09467105401485396
0.06005498228168651,0.06005498228168651
0.031732741772731325,0.031732741772731325
0.013637977003121068,0.013637977003121068
0.003410501263776141,0.003410501263776141
-0.012324076796754518,-0.012324076796754518
-0.03749940169360357,-0.03749940169360357
-0.06739510000861183,-0.06739510000861183
-0.08863678039032821,-0.08863678039032821
-0.09650406942059354,-0.09650406942059354
-0.09571734051756702,-0.09571734051756702
-0.09178369600243434,-0.09178369600243434
-0.08627659368124861,-0.08627659368124861
-0.08155622026308942,-0.08155622026308942
-0.0784093046509833,-0.0784093046509833
-0.08234294916611595,-0.08234294916611595
-0.09335715380848741,-0.09335715380848741
-0.10437135845085888,-0.10437135845085888
-0.10909173186901808,-0.10909173186901808
-0.1098784607720446,-0.1098784607720446
-0.11145191857809766,-0.11145191857809766
-0.11302537638415074,-0.11302537638415074
-0.11145191857809766,-0.11145191857809766
-0.10594481625691193,-0.10594481625691193
-0.10594481625691193,-0.10594481625691193
-0.11459883419020381,-0.11459883419020381
-0.12325285212349567,-0.12325285212349567
-0.12089266541441607,-0.12089266541441607
-0.107518274062965,-0.107518274062965
-0.09021023819638128,-0.09021023819638128
-0.07447566013585062,-0.07447566013585062
-0.0571676242692669,-0.0571676242692669
-0.03749940169360357,-0.03749940169360357
-0.021764823633072913,-0.021764823633072913
-0.017831179117940247,-0.017831179117940247
-0.024911739245179046,-0.024911739245179046
-0.03277902827544437,-0.03277902827544437
-0.021764823633072913,-0.021764823633072913
0.015211434809174135,0.015211434809174135
0.0624151689907661,0.0624151689907661
0.08995068059669475,0.08995068059669475
0.08208339156642942,0.08208339156642942
0.05061423544536811,0.05061423544536811
0.0167848926152272,0.0167848926152272
-0.006030245572542254,-0.006030245572542254
-0.008390432281621852,-0.008390432281621852
0.010491061391014937,0.010491061391014937
0.034879657384837455,0.034879657384837455
0.030946012869704793,0.030946012869704793
-0.010750618990701451,-0.010750618990701451
-0.06660837110558529,-0.06660837110558529
-0.10437135845085888,-0.10437135845085888
-0.11538556309323034,-0.11538556309323034
-0.12246612322046913,-0.12246612322046913
-0.12561303883257527,-0.12561303883257527
-0.12482630992954873,-0.12482630992954873
-0.11145191857809766,-0.11145191857809766
-0.10122444283875275,-0.10122444283875275
-0.1051580873538854,-0.1051580873538854
-0.11774574980230994,-0.11774574980230994
-0.119319207608363,-0.119319207608363
-0.11145191857809766,-0.11145191857809766
-0.11381210528717726,-0.11381210528717726
-0.13741397237797326,-0.13741397237797326
-0.1838309776565387,-0.1838309776565387
-0.2931862951772268,-0.2931862951772268
-0.5134703880246559,-0.5134703880246559
-0.7809582150536771,-0.7809582150536771
-0.8887400747683122,-0.8887400747683122
-0.6291195367695562,-0.6291195367695562
0.04982750654234158,0.04982750654234158
1.0245846173922157,1.0245846173922157
2.0441852757146024,2.0441852757146024
2.769549324305066,2.769549324305066
2.9198145447831334,2.9198145447831334
2.4965543949548588,2.4965543949548588
1.8065931470005896,1.8065931470005896
1.1897976870277878,1.1897976870277878
0.7570967903631947,0.7570967903631947
0.4392583135404754,0.4392583135404754
0.19222543799014402,0.19222543799014402
0.04510713312418239,0.04510713312418239
-0.005243516669515722,-0.005243516669515722
-0.021764823633072913,-0.021764823633072913
-0.0524472508511077,-0.0524472508511077
-0.08863678039032821,-0.08863678039032821
-0.10122444283875275,-0.10122444283875275
-0.09257042490546089,-0.09257042490546089
-0.08627659368124861,-0.08627659368124861
-0.09414388271151394,-0.09414388271151394
-0.10437135845085888,-0.10437135845085888
-0.1004377139357262,-0.1004377139357262
-0.08470313587519555,-0.08470313587519555
-0.06896855781466489,-0.06896855781466489
-0.0524472508511077,-0.0524472508511077
-0.04143304620873624,-0.04143304620873624
-0.0382861305966301,-0.0382861305966301
-0.0500870641420281,-0.0500870641420281
-0.0595278109783465,-0.0595278109783465
-0.0595278109783465,-0.0595278109783465
-0.0548074375601873,-0.0548074375601873
-0.0571676242692669,-0.0571676242692669
-0.055594166463213836,-0.055594166463213836
-0.03985958840268317,-0.03985958840268317
-0.017831179117940247,-0.017831179117940247
-0.0036700588634626555,-0.0036700588634626555
0.00577068797285574,0.00577068797285574
0.022291994936412932,0.022291994936412932
0.05061423544536811,0.05061423544536811
0.08208339156642942,0.08208339156642942
0.11119236097841115,0.11119236097841115
0.12771366794196834,0.12771366794196834
0.1292871257480214,0.1292871257480214
0.12850039684499487,0.12850039684499487
0.15288899283881738,0.15288899283881738
0.21110693166278083,0.21110693166278083
0.2779788884200361,0.2779788884200361
0.3188887913774158,0.3188887913774158
0.32675608040768117,0.32675608040768117
0.3196755202804424,0.3196755202804424
0.3181020624743893,0.3181020624743893
0.33147645382584034,0.33147645382584034
0.36451906775295473,0.36451906775295473
0.416443175352706,0.416443175352706
0.47544784307969595,0.47544784307969595
0.5210781194552349,0.5210781194552349
0.5415330709339247,0.5415330709339247
0.5454667154490573,0.5454667154490573
0.5470401732551105,0.5470401732551105
0.5509738177702431,0.5509738177702431
0.547826902158137,0.547826902158137
0.5407463420308981,0.5407463420308981
0.5470401732551105,0.5470401732551105
0.5698553114428799,0.5698553114428799
0.5824429738913044,0.5824429738913044
0.5588411068005085,0.5588411068005085
0.5084904570068103,0.5084904570068103
0.4620734517282449,0.4620734517282449
0.43296448231626317,0.43296448231626317
0.41172280193454674,0.41172280193454674
0.38654747703769765,0.38654747703769765
0.3542915920136098,0.3542915920136098
0.32124897808649544,0.32124897808649544
0.29214000867451373,0.29214000867451373
0.2708983282927973,0.2708983282927973
0.2488699190080544,0.2488699190080544
0.21661403398396656,0.21661403398396656
0.17177048651145418,0.17177048651145418
0.12614021013591528,0.12614021013591528
0.0883772227906417,0.0883772227906417
0.05690806666958037,0.05690806666958037
0.027012368354572127,0.027012368354572127
0.004983959069829206,0.004983959069829206
-0.006816974475568787,-0.006816974475568787
-0.012324076796754518,-0.012324076796754518
-0.023338281439125978,-0.023338281439125978
-0.0453666907238689,-0.0453666907238689
-0.0760491179419037,-0.0760491179419037
-0.11145191857809766,-0.11145191857809766
-0.1476414481173182,-0.1476414481173182
-0.16966985740206111,-0.16966985740206111
-0.1625892972748223,-0.1625892972748223
-0.12325285212349567,-0.12325285212349567
-0.08155622026308942,-0.08155622026308942
-0.07447566013585062,-0.07447566013585062
-0.11145191857809766,-0.11145191857809766
-0.16101583946876924,-0.16101583946876924
-0.1885513510746979,-0.1885513510746979
-0.18697789326864483,-0.18697789326864483
-0.16888312849903458,-0.16888312849903458
-0.14056088799007938,-0.14056088799007938
-0.10830500296599153,-0.10830500296599153
-0.08785005148730168,-0.08785005148730168
-0.09571734051756702,-0.09571734051756702
-0.1263997677356018,-0.1263997677356018
-0.15629546605061004,-0.15629546605061004
-0.16337602617784885,-0.16337602617784885
-0.14528126140823858,-0.14528126140823858
-0.11145191857809766,-0.11145191857809766
-0.07526238903887715,-0.07526238903887715
-0.04615341962689543,-0.04615341962689543
-0.02097809473004638,-0.02097809473004638
0.004983959069829206,0.004983959069829206
0.020718537130359864,0.020718537130359864
0.012064519197068004,0.012064519197068004
-0.009963890087674919,-0.009963890087674919
-0.014684263505834117,-0.014684263505834117
0.010491061391014937,0.010491061391014937
0.04432040422115585,0.04432040422115585
0.05612133776655384,0.05612133776655384
0.04510713312418239,0.04510713312418239
0.03015928396667826,0.03015928396667826
0.022291994936412932,0.022291994936412932
0.021505266033386396,0.021505266033386396
0.023865452742465997,0.023865452742465997
0.018358350421280267,0.018358350421280267
-0.016257721311887182,-0.016257721311887182
-0.07211547342677102,-0.07211547342677102
-0.119319207608363,-0.119319207608363
-0.1334803278628406,-0.1334803278628406
-0.1263997677356018,-0.1263997677356018
-0.13505378566889364,-0.13505378566889364
-0.16180256837179577,-0.16180256837179577
-0.19169826668680404,-0.19169826668680404
-0.19720536900798977,-0.19720536900798977
-0.17045658630508764,-0.17045658630508764
-0.11774574980230994,-0.11774574980230994
-0.06503491329953223,-0.06503491329953223
-0.04143304620873624,-0.04143304620873624
-0.06267472659045263,-0.06267472659045263
-0.11459883419020381,-0.11459883419020381
-0.16652294178995497,-0.16652294178995497
-0.2176603204866796,-0.2176603204866796
-0.31600143336499625,-0.31600143336499625
-0.5103234724125498,-0.5103234724125498
-0.752635974544722,-0.752635974544722
-0.8753656834168612,-0.8753656834168612
-0.681830373272334,-0.681830373272334
-0.06346145549347916,-0.06346145549347916
0.92152313109574,0.92152313109574
2.031597613266178,2.031597613266178
2.8914923042741782,2.8914923042741782
3.173141251557677,3.173141251557677
2.826980534226003,2.826980534226003
2.1181377925990965,2.1181377925990965
1.4006410330388985,1.4006410330388985
0.8656653789808562,0.8656653789808562
0.5163577460370756,0.5163577460370756
0.29292673757754023,0.29292673757754023
0.15367572174184393,0.15367572174184393
0.06556208460287223,0.06556208460287223
-0.0013098721543830568,-0.0013098721543830568
-0.04851360633597503,-0.04851360633597503
-0.06660837110558529,-0.06660837110558529
-0.06346145549347916,-0.06346145549347916
-0.0595278109783465,-0.0595278109783465
-0.061101268784399566,-0.061101268784399566
-0.06346145549347916,-0.06346145549347916
-0.06660837110558529,-0.06660837110558529
-0.07368893123282409,-0.07368893123282409
-0.08627659368124861,-0.08627659368124861
-0.09886425612967314,-0.09886425612967314
-0.09729079832362007,-0.09729079832362007
-0.08863678039032821,-0.08863678039032821
-0.07054201562071796,-0.07054201562071796
-0.0571676242692669,-0.0571676242692669
-0.04851360633597503,-0.04851360633597503
-0.04694014852992197,-0.04694014852992197
-0.04694014852992197,-0.04694014852992197
-0.0430065040147893,-0.0430065040147893
-0.028058654857285176,-0.028058654857285176
-0.0020966010574095897,-0.0020966010574095897
0.026225639451545595,0.026225639451545595
0.03960003080299666,0.03960003080299666
0.03566638628786399,0.03566638628786399
0.025438910548519062,0.025438910548519062
0.034092928481810926,0.034092928481810926
0.0647753556998457,0.0647753556998457
0.10332507194814582,0.10332507194814582
0.13243404136012754,0.13243404136012754
0.15446245064487046,0.15446245064487046
0.18278469115382565,0.18278469115382565
0.22290786520817882,0.22290786520817882
0.2646044970685851,0.2646044970685851
0.29292673757754023,0.29292673757754023
0.29764711099569946,0.29764711099569946
0.28584617745030144,0.28584617745030144
0.28112580403214227,0.28112580403214227
0.3094480445410974,0.3094480445410974
0.37002617007414046,0.37002617007414046
0.4384715846374489,0.4384715846374489
0.4864620477220674,0.4864620477220674
0.5092771859098368,0.5092771859098368
0.5171444749401022,0.5171444749401022
0.5250117639703675,0.5250117639703675
0.5391728842248451,0.5391728842248451
0.5619880224126146,0.5619880224126146
0.5871633473094636,0.5871633473094636
0.6036846542730208,0.6036846542730208
0.6036846542730208,0.6036846542730208
0.5934571785336759,0.5934571785336759
0.5769358715701187,0.5769358715701187
0.5580543778974819,0.5580543778974819
0.5438932576430043,0.5438932576430043
0.54940035996419,0.54940035996419
0.5690685825398534,0.5690685825398534
0.5706420403459064,0.5706420403459064
0.5289454084855002,0.5289454084855002
0.45892653611613876,0.45892653611613876
0.394414766067963,0.394414766067963
0.3550783209166363,0.3550783209166363
0.32439589369860156,0.32439589369860156
0.2826992618381953,0.2826992618381953
0.22762823862633802,0.22762823862633802
0.1749174021235603,0.1749174021235603
0.1363676858752602,0.1363676858752602
0.11197908988143768,0.11197908988143768
0.08995068059669475,0.08995068059669475
0.0647753556998457,0.0647753556998457
0.03566638628786399,0.03566638628786399
0.004983959069829206,0.004983959069829206
-0.02412501034215251,-0.02412501034215251
-0.0453666907238689,-0.0453666907238689
-0.0595278109783465,-0.0595278109783465
-0.07054201562071796,-0.07054201562071796
-0.08234294916611595,-0.08234294916611595
-0.08627659368124861,-0.08627659368124861
-0.08234294916611595,-0.08234294916611595
-0.0784093046509833,-0.0784093046509833
-0.08627659368124861,-0.08627659368124861
-0.1027979006448058,-0.1027979006448058
-0.11538556309323034,-0.11538556309323034
-0.11381210528717726,-0.11381210528717726
-0.10673154515993848,-0.10673154515993848
-0.1051580873538854,-0.1051580873538854
-0.1122386474811242,-0.1122386474811242
-0.11617229199625687,-0.11617229199625687
-0.11538556309323034,-0.11538556309323034
-0.11538556309323034,-0.11538556309323034
-0.12010593651138954,-0.12010593651138954
-0.1169590208992834,-0.1169590208992834
-0.10122444283875275,-0.10122444283875275
-0.08706332258427515,-0.08706332258427515
-0.09335715380848741,-0.09335715380848741
-0.11459883419020381,-0.11459883419020381
-0.1240395810265222,-0.1240395810265222
-0.1051580873538854,-0.1051580873538854
-0.07211547342677102,-0.07211547342677102
-0.0548074375601873,-0.0548074375601873
-0.05795435317229343,-0.05795435317229343
-0.0595278109783465,-0.0595278109783465
-0.04457996182084237,-0.04457996182084237
-0.020191365827019848,-0.020191365827019848
-0.0005231432513565238,-0.0005231432513565238
0.015998163712200666,0.015998163712200666
0.040386759706023186,0.040386759706023186
0.06870900021497836,0.06870900021497836
0.07972320485734982,0.07972320485734982
0.06005498228168651,0.06005498228168651
0.018358350421280267,0.018358350421280267
-0.019404636923993315,-0.019404636923993315
-0.03277902827544437,-0.03277902827544437
-0.022551552536099445,-0.022551552536099445
-0.004456787766489188,-0.004456787766489188
-0.0028833299604361226,-0.0028833299604361226
-0.02648519705123211,-0.02648519705123211
-0.07290220232979756,-0.07290220232979756
-0.119319207608363,-0.119319207608363
-0.13977415908705285,-0.13977415908705285
-0.1358405145719202,-0.1358405145719202
-0.12246612322046913,-0.12246612322046913
-0.12561303883257527,-0.12561303883257527
-0.1358405145719202,-0.1358405145719202
-0.14213434579613246,-0.14213434579613246
-0.13977415908705285,-0.13977415908705285
-0.13662724347494673,-0.13662724347494673
-0.13741397237797326,-0.13741397237797326
-0.1382007012809998,-0.1382007012809998
-0.1358405145719202,-0.1358405145719202
-0.13269359895981406,-0.13269359895981406
-0.1523618215354774,-0.1523618215354774
-0.24755601880168787,-0.24755601880168787
-0.4576126359097721,-0.4576126359097721
-0.7235270051327403,-0.7235270051327403
-0.8730054967077816,-0.8730054967077816
-0.7164464450055015,-0.7164464450055015
-0.15708219495363657,-0.15708219495363657
0.7602437059753009,0.7602437059753009
1.8270480984792794,1.8270480984792794
2.6845826027782,2.6845826027782
2.9906201460555217,2.9906201460555217
2.6775020426509615,2.6775020426509615
2.012716119593541,2.012716119593541
1.3557974855663861,1.3557974855663861
0.8735326680111215,0.8735326680111215
0.5368126975157655,0.5368126975157655
0.28505944854727494,0.28505944854727494
0.11119236097841115,0.11119236097841115
0.008917603584961872,0.008917603584961872
-0.04930033523900156,-0.04930033523900156
-0.08863678039032821,-0.08863678039032821
-0.11302537638415074,-0.11302537638415074
-0.12482630992954873,-0.12482630992954873
-0.131120141153761,-0.131120141153761
-0.13505378566889364,-0.13505378566889364
-0.12875995444468138,-0.12875995444468138
-0.11381210528717726,-0.11381210528717726
-0.09650406942059354,-0.09650406942059354
-0.08863678039032821,-0.08863678039032821
-0.09335715380848741,-0.09335715380848741
-0.1004377139357262,-0.1004377139357262
-0.10830500296599153,-0.10830500296599153
-0.11302537638415074,-0.11302537638415074
-0.11617229199625687,-0.11617229199625687
-0.1027979006448058,-0.1027979006448058
-0.0784093046509833,-0.0784093046509833
-0.05795435317229343,-0.05795435317229343
-0.055594166463213836,-0.055594166463213836
-0.05795435317229343,-0.05795435317229343
-0.0524472508511077,-0.0524472508511077
-0.04379323291781583,-0.04379323291781583
-0.04221977511176277,-0.04221977511176277
-0.03907285949965664,-0.03907285949965664
-0.02569846814820558,-0.02569846814820558
-0.006816974475568787,-0.006816974475568787
0.009704332487988404,0.009704332487988404
0.027012368354572127,0.027012368354572127
0.05140096434839464,0.05140096434839464
0.07814974705129676,0.07814974705129676
0.09939142743301316,0.09939142743301316
0.12220656562078261,0.12220656562078261
0.15131553503276432,0.15131553503276432
0.18199796225079912,0.18199796225079912
0.20638655824462163,0.20638655824462163
0.23234861204449722,0.23234861204449722
0.263031039262532,0.263031039262532
0.29292673757754023,0.29292673757754023
0.3157418757653097,0.3157418757653097
0.34013047175913225,0.34013047175913225
0.3755332723953262,0.3755332723953262
0.4132962597405998,0.4132962597405998
0.441618500249555,0.441618500249555
0.4612867228252183,0.4612867228252183
0.4848885899160143,0.4848885899160143
0.5139975593279961,0.5139975593279961
0.5368126975157655,0.5368126975157655
0.5407463420308981,0.5407463420308981
0.5257984928733941,0.5257984928733941
0.5053435413947042,0.5053435413947042
0.49039569223720003,0.49039569223720003
0.48331513210996124,0.48331513210996124
0.47859475869180207,0.47859475869180207
0.46915401185548367,0.46915401185548367
0.4526327048919265,0.4526327048919265
0.429817566704157,0.429817566704157
0.40228205509822834,0.40228205509822834
0.37002617007414046,0.37002617007414046
0.3322631827288669,0.3322631827288669
0.2913532797714872,0.2913532797714872
0.251230105717134,0.251230105717134
0.2150405761779135,0.2150405761779135
0.18042450444474603,0.18042450444474603
0.1410880592934194,0.1410880592934194
0.09703124072393356,0.09703124072393356
0.057694795572606906,0.057694795572606906
0.026225639451545595,0.026225639451545595
-0.0005231432513565238,-0.0005231432513565238
-0.030418841566364773,-0.030418841566364773
-0.058741082075319966,-0.058741082075319966
-0.0760491179419037,-0.0760491179419037
-0.08155622026308942,-0.08155622026308942
-0.08627659368124861,-0.08627659368124861
-0.09886425612967314,-0.09886425612967314
-0.1216793943174426,-0.1216793943174426
-0.14449453250521205,-0.14449453250521205
-0.1625892972748223,-0.1625892972748223
-0.17596368862627337,-0.17596368862627337
-0.1838309776565387,-0.1838309776565387
-0.18697789326864483,-0.18697789326864483
-0.18933807997772442,-0.18933807997772442
-0.19720536900798977,-0.19720536900798977
-0.21136648926246734,-0.21136648926246734
-0.22080723609878575,-0.22080723609878575
-0.22002050719575922,-0.22002050719575922
-0.21530013377760002,-0.21530013377760002
-0.21608686268062655,-0.21608686268062655
-0.22002050719575922,-0.22002050719575922
-0.2223806939048388,-0.2223806939048388
-0.22002050719575922,-0.22002050719575922
-0.21293994706852043,-0.21293994706852043
-0.20349920023220203,-0.20349920023220203
-0.1979920979110163,-0.1979920979110163
-0.2027124713291755,-0.2027124713291755
-0.20821957365036123,-0.20821957365036123
-0.19169826668680404,-0.19169826668680404
-0.14842817702034472,-0.14842817702034472
-0.1004377139357262,-0.1004377139357262
-0.0784093046509833,-0.0784093046509833
-0.08627659368124861,-0.08627659368124861
-0.10122444283875275,-0.10122444283875275
-0.10201117174177927,-0.10201117174177927
-0.08548986477822208,-0.08548986477822208
-0.05795435317229343,-0.05795435317229343
-0.02569846814820558,-0.02569846814820558
0.003410501263776141,0.003410501263776141
0.022291994936412932,0.022291994936412932
0.018358350421280267,0.018358350421280267
-0.012324076796754518,-0.012324076796754518
-0.06346145549347916,-0.06346145549347916
-0.10830500296599153,-0.10830500296599153
-0.12561303883257527,-0.12561303883257527
-0.11459883419020381,-0.11459883419020381
-0.1027979006448058,-0.1027979006448058
-0.11066518967507114,-0.11066518967507114
-0.14370780360218552,-0.14370780360218552
-0.18776462217167136,-0.18776462217167136
-0.22788779622602454,-0.22788779622602454
-0.250702934413794,-0.250702934413794
-0.24283564538352867,-0.24283564538352867
-0.2223806939048388,-0.2223806939048388
-0.21136648926246734,-0.21136648926246734
-0.22159396500181228,-0.22159396500181228
-0.2294612540320776,-0.2294612540320776
-0.22159396500181228,-0.22159396500181228
-0.21057976035944082,-0.21057976035944082
-0.21687359158365307,-0.21687359158365307
-0.22867452512905106,-0.22867452512905106
-0.22002050719575922,-0.22002050719575922
-0.20349920023220203,-0.20349920023220203
-0.24283564538352867,-0.24283564538352867
-0.3962477814737026,-0.3962477814737026
-0.6377735547028481,-0.6377735547028481
-0.8423230694897468,-0.8423230694897468
-0.8415363405867202,-0.8415363405867202
-0.5040296411883376,-0.5040296411883376
0.20717328714764816,0.20717328714764816
1.1717029222581774,1.1717029222581774
2.109483774665805,2.109483774665805
2.686156060584253,2.686156060584253
2.7113313854811025,2.7113313854811025
2.263682639659005,2.263682639659005
1.628792414916593,1.628792414916593
1.0717883515738078,1.0717883515738078
0.6760637133514619,0.6760637133514619
0.38340056142559154,0.38340056142559154
0.1458084327115786,0.1458084327115786
-0.009963890087674919,-0.009963890087674919
-0.06818182891163836,-0.06818182891163836
-0.08312967806914248,-0.08312967806914248
-0.11538556309323034,-0.11538556309323034
-0.16101583946876924,-0.16101583946876924
-0.17832387533535296,-0.17832387533535296
-0.16888312849903458,-0.16888312849903458
-0.16337602617784885,-0.16337602617784885
-0.16966985740206111,-0.16966985740206111
-0.16652294178995497,-0.16652294178995497
-0.15786892385666312,-0.15786892385666312
-0.15944238166271618,-0.15944238166271618
-0.1720300441111407,-0.1720300441111407
-0.1767504175292999,-0.1767504175292999
-0.15786892385666312,-0.15786892385666312
-0.1358405145719202,-0.1358405145719202
-0.1216793943174426,-0.1216793943174426
-0.12325285212349567,-0.12325285212349567
-0.1240395810265222,-0.1240395810265222
-0.11774574980230994,-0.11774574980230994
-0.10594481625691193,-0.10594481625691193
-0.09493061161454049,-0.09493061161454049
-0.08155622026308942,-0.08155622026308942
-0.06503491329953223,-0.06503491329953223
-0.04930033523900156,-0.04930033523900156
-0.0406463173057097,-0.0406463173057097
-0.033565757178470906,-0.033565757178470906
-0.021764823633072913,-0.021764823633072913
-0.0020966010574095897,-0.0020966010574095897
0.017571621518253734,0.017571621518253734
0.034879657384837455,0.034879657384837455
0.05297442215444771,0.05297442215444771
0.07578956034221716,0.07578956034221716
0.10332507194814582,0.10332507194814582
0.13479422806920713,0.13479422806920713
0.1631164685781623,0.1631164685781623
0.1867183356689583,0.1867183356689583
0.20717328714764816,0.20717328714764816
0.23234861204449722,0.23234861204449722
0.26696468377766464,0.26696468377766464
0.30787458673504436,0.30787458673504436
0.34721103188637104,0.34721103188637104
0.3778934591044058,0.3778934591044058
0.40228205509822834,0.40228205509822834
0.4258839221890244,0.4258839221890244
0.4479123314737673,0.4479123314737673
0.465220367340351,0.465220367340351
0.47387438527364284,0.47387438527364284
0.47938148759482857,0.47938148759482857
0.48567531881904086,0.48567531881904086
0.4935426078493062,0.4935426078493062
0.49904971017049193,0.49904971017049193
0.49983643907351843,0.49983643907351843
0.49275587894627965,0.49275587894627965
0.47544784307969595,0.47544784307969595
0.45341943379495303,0.45341943379495303
0.43296448231626317,0.43296448231626317
0.41093607303152024,0.41093607303152024
0.3802536458134854,0.3802536458134854
0.3417039295651853,0.3417039295651853
0.3086613156380709,0.3086613156380709
0.2842727196442484,0.2842727196442484
0.2543770213292401,0.2543770213292401
0.20717328714764816,0.20717328714764816
0.15210226393579085,0.15210226393579085
0.10647198756025195,0.10647198756025195
0.07264264473011103,0.07264264473011103
0.040386759706023186,0.040386759706023186
0.001837043457723075,0.001837043457723075
-0.03435248608149744,-0.03435248608149744
-0.061887997687426095,-0.061887997687426095
-0.08470313587519555,-0.08470313587519555
-0.10830500296599153,-0.10830500296599153
-0.13426705676586712,-0.13426705676586712
-0.15000163482639778,-0.15000163482639778
-0.15314855043850392,-0.15314855043850392
-0.15000163482639778,-0.15000163482639778
-0.15393527934153045,-0.15393527934153045
-0.16416275508087538,-0.16416275508087538
-0.17439023082022032,-0.17439023082022032
-0.1791106042383795,-0.1791106042383795
-0.18304424875351216,-0.18304424875351216
-0.1909115377837775,-0.1909115377837775
-0.19720536900798977,-0.19720536900798977
-0.19405845339588362,-0.19405845339588362
-0.18540443546259178,-0.18540443546259178
-0.1814707909474591,-0.1814707909474591
-0.18776462217167136,-0.18776462217167136
-0.19484518229891015,-0.19484518229891015
-0.19405845339588362,-0.19405845339588362
-0.19012480888075095,-0.19012480888075095
-0.1885513510746979,-0.1885513510746979
-0.18540443546259178,-0.18540443546259178
-0.17989733314140605,-0.17989733314140605
-0.18068406204443258,-0.18068406204443258
-0.19405845339588362,-0.19405845339588362
-0.2074328447473347,-0.2074328447473347
-0.1932717244928571,-0.1932717244928571
-0.14685471921429166,-0.14685471921429166
-0.09493061161454049,-0.09493061161454049
-0.07368893123282409,-0.07368893123282409
-0.08155622026308942,-0.08155622026308942
-0.08942350929335476,-0.08942350929335476
-0.08076949136006288,-0.08076949136006288
-0.06896855781466489,-0.06896855781466489
-0.06424818439650569,-0.06424818439650569
-0.0524472508511077,-0.0524472508511077
-0.019404636923993315,-0.019404636923993315
0.010491061391014937,0.010491061391014937
0.006557416875882272,0.006557416875882272
-0.03277902827544437,-0.03277902827544437
-0.0760491179419037,-0.0760491179419037
-0.09729079832362007,-0.09729079832362007
-0.09571734051756702,-0.09571734051756702
-0.08391640697216902,-0.08391640697216902
-0.07762257574795675,-0.07762257574795675
-0.09571734051756702,-0.09571734051756702
-0.13898743018402632,-0.13898743018402632
-0.1885513510746979,-0.1885513510746979
-0.21844704938970616,-0.21844704938970616
-0.21844704938970616,-0.21844704938970616
-0.20900630255338776,-0.20900630255338776
-0.2027124713291755,-0.2027124713291755
-0.21215321816549387,-0.21215321816549387
-0.22316742280786533,-0.22316742280786533
-0.22631433841997148,-0.22631433841997148
-0.22080723609878575,-0.22080723609878575
-0.2176603204866796,-0.2176603204866796
-0.22316742280786533,-0.22316742280786533
-0.227101067322998,-0.227101067322998
-0.2176603204866796,-0.2176603204866796
-0.21136648926246734,-0.21136648926246734
-0.2569967656380063,-0.2569967656380063
-0.4049017994069944,-0.4049017994069944
-0.6487877593452196,-0.6487877593452196
-0.872218767804755,-0.872218767804755
-0.8926737192834449,-0.8926737192834449
-0.5646077667213806,-0.5646077667213806
0.1292871257480214,0.1292871257480214
1.063134333640516,1.063134333640516
1.9851806079876124,1.9851806079876124
2.575227285257512,2.575227285257512
2.6153504593118653,2.6153504593118653
2.1739955447139803,2.1739955447139803
1.5619204581593378,1.5619204581593378
1.0560537735132771,1.0560537735132771
0.6988788515392312,0.6988788515392312
0.40228205509822834,0.40228205509822834
0.14502170380855206,0.14502170380855206
-0.01547099240886065,-0.01547099240886065
-0.06975528671769142,-0.06975528671769142
-0.08312967806914248,-0.08312967806914248
-0.1098784607720446,-0.1098784607720446
-0.142921074699159,-0.142921074699159
-0.15865565275968965,-0.15865565275968965
-0.15629546605061004,-0.15629546605061004
-0.15157509263245084,-0.15157509263245084
-0.1523618215354774,-0.1523618215354774
-0.15708219495363657,-0.15708219495363657
-0.15629546605061004,-0.15629546605061004
-0.1460679903112651,-0.1460679903112651
-0.13426705676586712,-0.13426705676586712
-0.1240395810265222,-0.1240395810265222
-0.11774574980230994,-0.11774574980230994
-0.10594481625691193,-0.10594481625691193
-0.09493061161454049,-0.09493061161454049
-0.08863678039032821,-0.08863678039032821
-0.08706332258427515,-0.08706332258427515
-0.08076949136006288,-0.08076949136006288
-0.06346145549347916,-0.06346145549347916
-0.04457996182084237,-0.04457996182084237
-0.03592594388755051,-0.03592594388755051
-0.03907285949965664,-0.03907285949965664
-0.04143304620873624,-0.04143304620873624
-0.027271925954258643,-0.027271925954258643
0.001050314554696542,0.001050314554696542
0.029372555063651728,0.029372555063651728
0.04668059093023545,0.04668059093023545
0.05612133776655384,0.05612133776655384
0.0694957291180049,0.0694957291180049
0.09073740949972128,0.09073740949972128
0.1104056320753846,0.1104056320753846
0.12378002342683567,0.12378002342683567
0.1340074991661806,0.1340074991661806
0.15288899283881738,0.15288899283881738
0.18357142005685217,0.18357142005685217
0.21897422069304615,0.21897422069304615
0.24965664791108094,0.24965664791108094
0.2779788884200361,0.2779788884200361
0.31180823125017704,0.31180823125017704
0.3519314053045302,0.3519314053045302
0.3912678504558569,0.3912678504558569
0.4250971932859978,0.4250971932859978
0.4526327048919265,0.4526327048919265
0.47623457198272245,0.47623457198272245
0.4982629812674654,0.4982629812674654
0.5195046616491817,0.5195046616491817
0.5320923240976063,0.5320923240976063
0.5313055951945798,0.5313055951945798
0.5226515772612879,0.5226515772612879
0.5210781194552349,0.5210781194552349
0.5297321373885266,0.5297321373885266
0.536025968612739,0.536025968612739
0.5234383061643144,0.5234383061643144
0.49590279455838576,0.49590279455838576
0.4699407407585102,0.4699407407585102
0.45027251818284686,0.45027251818284686
0.42745737999507744,0.42745737999507744
0.3904811215528303,0.3904811215528303
0.3464243029833445,0.3464243029833445
0.3086613156380709,0.3086613156380709
0.27876561732306265,0.27876561732306265
0.24572300339594827,0.24572300339594827
0.20009272702040937,0.20009272702040937
0.14895534832368473,0.14895534832368473
0.10253834304511929,0.10253834304511929
0.0647753556998457,0.0647753556998457
0.026225639451545595,0.026225639451545595
-0.01547099240886065,-0.01547099240886065
-0.050873793045054634,-0.050873793045054634
-0.07054201562071796,-0.07054201562071796
-0.07762257574795675,-0.07762257574795675
-0.08470313587519555,-0.08470313587519555
-0.09886425612967314,-0.09886425612967314
-0.11617229199625687,-0.11617229199625687
-0.12718649663862833,-0.12718649663862833
-0.13269359895981406,-0.13269359895981406
-0.13977415908705285,-0.13977415908705285
-0.1507883637294243,-0.1507883637294243
-0.1602291105657427,-0.1602291105657427
-0.1625892972748223,-0.1625892972748223
-0.1649494839839019,-0.1649494839839019
-0.1767504175292999,-0.1767504175292999
-0.19405845339588362,-0.19405845339588362
-0.20035228462009588,-0.20035228462009588
-0.19484518229891015,-0.19484518229891015
-0.1909115377837775,-0.1909115377837775
-0.20035228462009588,-0.20035228462009588
-0.21136648926246734,-0.21136648926246734
-0.2074328447473347,-0.2074328447473347
-0.19248499558983057,-0.19248499558983057
-0.18461770655956522,-0.18461770655956522
-0.18697789326864483,-0.18697789326864483
-0.19012480888075095,-0.19012480888075095
-0.18461770655956522,-0.18461770655956522
-0.17124331520811417,-0.17124331520811417
-0.15393527934153045,-0.15393527934153045
-0.12797322554165486,-0.12797322554165486
-0.08627659368124861,-0.08627659368124861
-0.03277902827544437,-0.03277902827544437
0.014424705906147601,0.014424705906147601
0.03960003080299666,0.03960003080299666
0.04668059093023545,0.04668059093023545
0.052187693251421176,0.052187693251421176
0.06792227131195183,0.06792227131195183
0.09073740949972128,0.09073740949972128
0.10568525865722542,0.10568525865722542
0.10175161414209274,0.10175161414209274
0.07421610253616409,0.07421610253616409
0.030946012869704793,0.030946012869704793
-0.01311080569978105,-0.01311080569978105
-0.03985958840268317,-0.03985958840268317
-0.0406463173057097,-0.0406463173057097
-0.020191365827019848,-0.020191365827019848
-0.0028833299604361226,-0.0028833299604361226
-0.01311080569978105,-0.01311080569978105
-0.06503491329953223,-0.06503491329953223
-0.14213434579613246,-0.14213434579613246
-0.2074328447473347,-0.2074328447473347
-0.23732854306234294,-0.23732854306234294
-0.2294612540320776,-0.2294612540320776
-0.21293994706852043,-0.21293994706852043
-0.2058593869412816,-0.2058593869412816
-0.21608686268062655,-0.21608686268062655
-0.227101067322998,-0.227101067322998
-0.22552760951694495,-0.22552760951694495
-0.20900630255338776,-0.20900630255338776
-0.19563191120193668,-0.19563191120193668
-0.20192574242614897,-0.20192574242614897
-0.22080723609878575,-0.22080723609878575
-0.23260816964418374,-0.23260816964418374
-0.24519583209260826,-0.24519583209260826
-0.30734741543170435,-0.30734741543170435
-0.4694135694551701,-0.4694135694551701
-0.6999251380419442,-0.6999251380419442
-0.8525505452290917,-0.8525505452290917
-0.7274606496478729,-0.7274606496478729
-0.20428592913522856,-0.20428592913522856
0.6650495087090904,0.6650495087090904
1.6681288600679198,1.6681288600679198
2.4965543949548588,2.4965543949548588
2.8545160458319314,2.8545160458319314
2.619284103826998,2.619284103826998
1.9757398611512942,1.9757398611512942
1.2944326311303167,1.2944326311303167
0.813741271381105,0.813741271381105
0.5014098968795715,0.5014098968795715
0.24572300339594827,0.24572300339594827
0.055334608863527306,0.055334608863527306
-0.010750618990701451,-0.010750618990701451
0.001837043457723075,0.001837043457723075
-0.0028833299604361226,-0.0028833299604361226
-0.0406463173057097,-0.0406463173057097
-0.07054201562071796,-0.07054201562071796
-0.09414388271151394,-0.09414388271151394
-0.14056088799007938,-0.14056088799007938
-0.18540443546259178,-0.18540443546259178
-0.17832387533535296,-0.17832387533535296
-0.12797322554165486,-0.12797322554165486
-0.09178369600243434,-0.09178369600243434
-0.09807752722664662,-0.09807752722664662
-0.1263997677356018,-0.1263997677356018
-0.14370780360218552,-0.14370780360218552
-0.14685471921429166,-0.14685471921429166
-0.12797322554165486,-0.12797322554165486
-0.08785005148730168,-0.08785005148730168
-0.023338281439125978,-0.023338281439125978
0.03802657299694359,0.03802657299694359
0.0624151689907661,0.0624151689907661
0.031732741772731325,0.031732741772731325
-0.03120557046939131,-0.03120557046939131
-0.08785005148730168,-0.08785005148730168
-0.11459883419020381,-0.11459883419020381
-0.11302537638415074,-0.11302537638415074
-0.09257042490546089,-0.09257042490546089
-0.058741082075319966,-0.058741082075319966
-0.019404636923993315,-0.019404636923993315
0.01127779029404147,0.01127779029404147
0.030946012869704793,0.030946012869704793
0.05140096434839464,0.05140096434839464
0.08523030717853555,0.08523030717853555
0.12220656562078261,0.12220656562078261
0.13951460148736633,0.13951460148736633
0.1363676858752602,0.1363676858752602
0.143448246002499,0.143448246002499
0.18121123334777256,0.18121123334777256
0.2347087987535768,0.2347087987535768
0.2740452439049035,0.2740452439049035
0.2960736531896464,0.2960736531896464
0.3228224358925485,0.3228224358925485
0.3653057966559813,0.3653057966559813
0.41093607303152024,0.41093607303152024
0.43689812683139584,0.43689812683139584
0.44319195805560807,0.44319195805560807
0.441618500249555,0.441618500249555
0.44476541586166113,0.44476541586166113
0.45735307831008565,0.45735307831008565
0.48252840320693474,0.48252840320693474
0.5202913905522083,0.5202913905522083
0.5517605466732696,0.5517605466732696
0.5509738177702431,0.5509738177702431
0.5218648483582614,0.5218648483582614
0.502196625782598,0.502196625782598
0.5092771859098368,0.5092771859098368
0.5163577460370756,0.5163577460370756
0.49196915004325315,0.49196915004325315
0.4479123314737673,0.4479123314737673
0.4156564464496794,0.4156564464496794
0.394414766067963,0.394414766067963
0.3558650498196629,0.3558650498196629
0.2874196352563545,0.2874196352563545
0.20638655824462163,0.20638655824462163
0.1387278725843398,0.1387278725843398
0.09309759620880088,0.09309759620880088
0.06870900021497836,0.06870900021497836
0.05376115105747424,0.05376115105747424
0.03330619957878439,0.03330619957878439
-0.0005231432513565238,-0.0005231432513565238
-0.0382861305966301,-0.0382861305966301
-0.06660837110558529,-0.06660837110558529
-0.0760491179419037,-0.0760491179419037
-0.07290220232979756,-0.07290220232979756
-0.07290220232979756,-0.07290220232979756
-0.09021023819638128,-0.09021023819638128
-0.1216793943174426,-0.1216793943174426
-0.15157509263245084,-0.15157509263245084
-0.16180256837179577,-0.16180256837179577
-0.1507883637294243,-0.1507883637294243
-0.13190687005678753,-0.13190687005678753
-0.12089266541441607,-0.12089266541441607
-0.12246612322046913,-0.12246612322046913
-0.13269359895981406,-0.13269359895981406
-0.14528126140823858,-0.14528126140823858
-0.16101583946876924,-0.16101583946876924
-0.17753714643232643,-0.17753714643232643
-0.18697789326864483,-0.18697789326864483
-0.1767504175292999,-0.1767504175292999
-0.14370780360218552,-0.14370780360218552
-0.10201117174177927,-0.10201117174177927
-0.08076949136006288,-0.08076949136006288
-0.1004377139357262,-0.1004377139357262
-0.14685471921429166,-0.14685471921429166
-0.18461770655956522,-0.18461770655956522
-0.1885513510746979,-0.1885513510746979
-0.16416275508087538,-0.16416275508087538
-0.1295466833477079,-0.1295466833477079
-0.09729079832362007,-0.09729079832362007
-0.06660837110558529,-0.06660837110558529
-0.0406463173057097,-0.0406463173057097
-0.03120557046939131,-0.03120557046939131
-0.04457996182084237,-0.04457996182084237
-0.06503491329953223,-0.06503491329953223
-0.07290220232979756,-0.07290220232979756
-0.061887997687426095,-0.061887997687426095
-0.0406463173057097,-0.0406463173057097
-0.009963890087674919,-0.009963890087674919
0.03330619957878439,0.03330619957878439
0.07972320485734982,0.07972320485734982
0.09624451182090701,0.09624451182090701
0.06556208460287223,0.06556208460287223
0.008917603584961872,0.008917603584961872
-0.02963211266333824,-0.02963211266333824
-0.028058654857285176,-0.028058654857285176
-0.00760370337859532,-0.00760370337859532
-0.005243516669515722,-0.005243516669515722
-0.028058654857285176,-0.028058654857285176
-0.06346145549347916,-0.06346145549347916
-0.09257042490546089,-0.09257042490546089
-0.11853247870533647,-0.11853247870533647
-0.14842817702034472,-0.14842817702034472
-0.17045658630508764,-0.17045658630508764
-0.1791106042383795,-0.1791106042383795
-0.16966985740206111,-0.16966985740206111
-0.15786892385666312,-0.15786892385666312
-0.14842817702034472,-0.14842817702034472
-0.13898743018402632,-0.13898743018402632
-0.1263997677356018,-0.1263997677356018
-0.119319207608363,-0.119319207608363
-0.12246612322046913,-0.12246612322046913
-0.1334803278628406,-0.1334803278628406
-0.1523618215354774,-0.1523618215354774
-0.21136648926246734,-0.21136648926246734
-0.3608449808375086,-0.3608449808375086
-0.6015840251636276,-0.6015840251636276
-0.8328823226534284,-0.8328823226534284
-0.8659249365805428,-0.8659249365805428
-0.5126836591216294,-0.5126836591216294
0.29214000867451373,0.29214000867451373
1.4069348642631108,1.4069348642631108
2.486326919215514,2.486326919215514
3.1338048064063506,3.1338048064063506
3.1282977040851647,3.1282977040851647
2.5626396228090877,2.5626396228090877
1.7743372619765017,1.7743372619765017
1.0977504053736833,1.0977504053736833
0.6611158641939577,0.6611158641939577
0.39834841058309567,0.39834841058309567
0.21582730508094003,0.21582730508094003
0.09388432511182743,0.09388432511182743
0.03251947067575786,0.03251947067575786
-0.012324076796754518,-0.012324076796754518
-0.0784093046509833,-0.0784093046509833
-0.1358405145719202,-0.1358405145719202
-0.14134761689310593,-0.14134761689310593
-0.10909173186901808,-0.10909173186901808
-0.08391640697216902,-0.08391640697216902
-0.07919603355400982,-0.07919603355400982
-0.07998276245703635,-0.07998276245703635
-0.08548986477822208,-0.08548986477822208
-0.1027979006448058,-0.1027979006448058
-0.1098784607720446,-0.1098784607720446
-0.09729079832362007,-0.09729079832362007
-0.07526238903887715,-0.07526238903887715
-0.06896855781466489,-0.06896855781466489
-0.06031453988137303,-0.06031453988137303
-0.03435248608149744,-0.03435248608149744
0.0026237723607496076,0.0026237723607496076
0.020718537130359864,0.020718537130359864
0.0191450793243068,0.0191450793243068
0.020718537130359864,0.020718537130359864
0.03960003080299666,0.03960003080299666
0.05690806666958037,0.05690806666958037
0.04904077763931505,0.04904077763931505
0.021505266033386396,0.021505266033386396
0.01127779029404147,0.01127779029404147
0.03881330189997012,0.03881330189997012
0.08916395169366823,0.08916395169366823
0.12535348123288872,0.12535348123288872
0.14266151709947247,0.14266151709947247
0.1599695529660562,0.1599695529660562
0.19773254031132975,0.19773254031132975
0.239429172171736,0.239429172171736
0.2606708525534524,0.2606708525534524
0.25201683462016056,0.25201683462016056
0.23392206985055028,0.23392206985055028
0.2268415097233115,0.2268415097233115
0.24021590107476254,0.24021590107476254
0.2653912259716116,0.2653912259716116
0.30236748441385863,0.30236748441385863
0.35271813420755677,0.35271813420755677
0.4132962597405998,0.4132962597405998
0.4715141985645633,0.4715141985645633
0.512424101521943,0.512424101521943
0.5328790530006329,0.5328790530006329
0.537599426418792,0.537599426418792
0.5352392397097124,0.5352392397097124
0.536025968612739,0.536025968612739
0.5438932576430043,0.5438932576430043
0.5564809200914288,0.5564809200914288
0.5690685825398534,0.5690685825398534
0.5706420403459064,0.5706420403459064
0.5588411068005085,0.5588411068005085
0.537599426418792,0.537599426418792
0.5179312038431287,0.5179312038431287
0.5069169992007573,0.5069169992007573
0.4935426078493062,0.4935426078493062
0.46679382514640405,0.46679382514640405
0.42352373547994476,0.42352373547994476
0.37632000129835275,0.37632000129835275
0.3299029960197873,0.3299029960197873
0.2795523462260892,0.2795523462260892
0.2299884253354176,0.2299884253354176
0.20166618482646242,0.20166618482646242
0.1985192692143563,0.1985192692143563
0.19773254031132975,0.19773254031132975
0.16390319748118884,0.16390319748118884
0.08995068059669475,0.08995068059669475
0.00577068797285574,0.00577068797285574
-0.053233979754134235,-0.053233979754134235
-0.0760491179419037,-0.0760491179419037
-0.07290220232979756,-0.07290220232979756
-0.06818182891163836,-0.06818182891163836
-0.07447566013585062,-0.07447566013585062
-0.09178369600243434,-0.09178369600243434
-0.107518274062965,-0.107518274062965
-0.1169590208992834,-0.1169590208992834
-0.12246612322046913,-0.12246612322046913
-0.1263997677356018,-0.1263997677356018
-0.12246612322046913,-0.12246612322046913
-0.11066518967507114,-0.11066518967507114
-0.09965098503269967,-0.09965098503269967
-0.09965098503269967,-0.09965098503269967
-0.1051580873538854,-0.1051580873538854
-0.10909173186901808,-0.10909173186901808
-0.11145191857809766,-0.11145191857809766
-0.1122386474811242,-0.1122386474811242
-0.107518274062965,-0.107518274062965
-0.09650406942059354,-0.09650406942059354
-0.08863678039032821,-0.08863678039032821
-0.09178369600243434,-0.09178369600243434
-0.1027979006448058,-0.1027979006448058
-0.11302537638415074,-0.11302537638415074
-0.12089266541441607,-0.12089266541441607
-0.131120141153761,-0.131120141153761
-0.13977415908705285,-0.13977415908705285
-0.1358405145719202,-0.1358405145719202
-0.11066518967507114,-0.11066518967507114
-0.0760491179419037,-0.0760491179419037
-0.0500870641420281,-0.0500870641420281
-0.03985958840268317,-0.03985958840268317
-0.036712672790577036,-0.036712672790577036
-0.03277902827544437,-0.03277902827544437
-0.02648519705123211,-0.02648519705123211
-0.016257721311887182,-0.016257721311887182
0.00577068797285574,0.00577068797285574
0.042746946415102786,0.042746946415102786
0.08050993376037636,0.08050993376037636
0.09309759620880088,0.09309759620880088
0.0671355424089253,0.0671355424089253
0.017571621518253734,0.017571621518253734
-0.02412501034215251,-0.02412501034215251
-0.03435248608149744,-0.03435248608149744
-0.012324076796754518,-0.012324076796754518
0.012851248100094536,0.012851248100094536
0.006557416875882272,0.006557416875882272
-0.04221977511176277,-0.04221977511176277
-0.10909173186901808,-0.10909173186901808
-0.15708219495363657,-0.15708219495363657
-0.1649494839839019,-0.1649494839839019
-0.15472200824455698,-0.15472200824455698
-0.1476414481173182,-0.1476414481173182
-0.15629546605061004,-0.15629546605061004
-0.15865565275968965,-0.15865565275968965
-0.14685471921429166,-0.14685471921429166
-0.1334803278628406,-0.1334803278628406
-0.1358405145719202,-0.1358405145719202
-0.1460679903112651,-0.1460679903112651
-0.15157509263245084,-0.15157509263245084
-0.15157509263245084,-0.15157509263245084
-0.15865565275968965,-0.15865565275968965
-0.19877882681404282,-0.19877882681404282
-0.3128545177528901,-0.3128545177528901
-0.5276315082791335,-0.5276315082791335
-0.7746643838294649,-0.7746643838294649
-0.8816595146410734,-0.8816595146410734
-0.6653090663087768,-0.6653090663087768
-0.050873793045054634,-0.050873793045054634
0.8876937882655991,0.8876937882655991
1.918308651230357,1.918308651230357
2.7026773675478104,2.7026773675478104
2.944203140776956,2.944203140776956
2.604336254669494,2.604336254669494
1.9434839761272062,1.9434839761272062
1.2999397334515024,1.2999397334515024
0.8349829517628213,0.8349829517628213
0.5147842882310226,0.5147842882310226
0.2646044970685851,0.2646044970685851
0.07972320485734982,0.07972320485734982
-0.019404636923993315,-0.019404636923993315
-0.04851360633597503,-0.04851360633597503
-0.0571676242692669,-0.0571676242692669
-0.0760491179419037,-0.0760491179419037
-0.09886425612967314,-0.09886425612967314
-0.1051580873538854,-0.1051580873538854
-0.09807752722664662,-0.09807752722664662
-0.09178369600243434,-0.09178369600243434
-0.09493061161454049,-0.09493061161454049
-0.09965098503269967,-0.09965098503269967
-0.10201117174177927,-0.10201117174177927
-0.10437135845085888,-0.10437135845085888
-0.10201117174177927,-0.10201117174177927
-0.09729079832362007,-0.09729079832362007
-0.08548986477822208,-0.08548986477822208
-0.07762257574795675,-0.07762257574795675
-0.06739510000861183,-0.06739510000861183
-0.0595278109783465,-0.0595278109783465
-0.0548074375601873,-0.0548074375601873
-0.053233979754134235,-0.053233979754134235
-0.04457996182084237,-0.04457996182084237
-0.028058654857285176,-0.028058654857285176
-0.017044450214913714,-0.017044450214913714
-0.02097809473004638,-0.02097809473004638
-0.02569846814820558,-0.02569846814820558
-0.017044450214913714,-0.017044450214913714
0.004197230166802674,0.004197230166802674
0.028585826160625195,0.028585826160625195
0.05454787996050078,0.05454787996050078
0.07893647595432329,0.07893647595432329
0.09624451182090701,0.09624451182090701
0.10332507194814582,0.10332507194814582
0.11355254768749075,0.11355254768749075
0.13715441477828674,0.13715441477828674
0.17098375760842766,0.17098375760842766
0.20166618482646242,0.20166618482646242
0.22920169643239108,0.22920169643239108
0.2646044970685851,0.2646044970685851
0.3110215023471505,0.3110215023471505
0.35665177872268944,0.35665177872268944
0.3896943926498038,0.3896943926498038
0.4101493441284937,0.4101493441284937
0.43060429560718355,0.43060429560718355
0.45892653611613876,0.45892653611613876
0.4911824211402266,0.4911824211402266
0.5155710171340491,0.5155710171340491
0.5265852217764205,0.5265852217764205
0.5273719506794471,0.5273719506794471
0.5273719506794471,0.5273719506794471
0.5281586795824736,0.5281586795824736
0.5281586795824736,0.5281586795824736
0.5226515772612879,0.5226515772612879
0.5132108304249695,0.5132108304249695
0.5037700835886512,0.5037700835886512
0.4974762523644389,0.4974762523644389
0.48960896333417353,0.48960896333417353
0.47308765637061634,0.47308765637061634
0.4455521447646877,0.4455521447646877
0.41408298864362636,0.41408298864362636
0.3802536458134854,0.3802536458134854
0.34091720066215875,0.34091720066215875
0.29843383989872596,0.29843383989872596
0.26224431035950546,0.26224431035950546
0.2299884253354176,0.2299884253354176
0.1867183356689583,0.1867183356689583
0.12771366794196834,0.12771366794196834
0.07893647595432329,0.07893647595432329
0.05848152447563344,0.05848152447563344
0.055334608863527306,0.055334608863527306
0.03645311519089052,0.03645311519089052
-0.00760370337859532,-0.00760370337859532
-0.05402070865716077,-0.05402070865716077
-0.07526238903887715,-0.07526238903887715
-0.0760491179419037,-0.0760491179419037
-0.07919603355400982,-0.07919603355400982
-0.09729079832362007,-0.09729079832362007
-0.119319207608363,-0.119319207608363
-0.13033341225073447,-0.13033341225073447
-0.1334803278628406,-0.1334803278628406
-0.14056088799007938,-0.14056088799007938
-0.15157509263245084,-0.15157509263245084
-0.15944238166271618,-0.15944238166271618
-0.16101583946876924,-0.16101583946876924
-0.1602291105657427,-0.1602291105657427
-0.16180256837179577,-0.16180256837179577
-0.1673096706929815,-0.1673096706929815
-0.17596368862627337,-0.17596368862627337
-0.18304424875351216,-0.18304424875351216
-0.1814707909474591,-0.1814707909474591
-0.17281677301416723,-0.17281677301416723
-0.16966985740206111,-0.16966985740206111
-0.17989733314140605,-0.17989733314140605
-0.19563191120193668,-0.19563191120193668
-0.1979920979110163,-0.1979920979110163
-0.18461770655956522,-0.18461770655956522
-0.16966985740206111,-0.16966985740206111
-0.16416275508087538,-0.16416275508087538
-0.16101583946876924,-0.16101583946876924
-0.14685471921429166,-0.14685471921429166
-0.11617229199625687,-0.11617229199625687
-0.08155622026308942,-0.08155622026308942
-0.0595278109783465,-0.0595278109783465
-0.055594166463213836,-0.055594166463213836
-0.058741082075319966,-0.058741082075319966
-0.0548074375601873,-0.0548074375601873
-0.0430065040147893,-0.0430065040147893
-0.02412501034215251,-0.02412501034215251
0.0026237723607496076,0.0026237723607496076
0.037239844093917056,0.037239844093917056
0.0624151689907661,0.0624151689907661
0.05297442215444771,0.05297442215444771
0.009704332487988404,0.009704332487988404
-0.03592594388755051,-0.03592594388755051
-0.0453666907238689,-0.0453666907238689
-0.020191365827019848,-0.020191365827019848
0.001050314554696542,0.001050314554696542
-0.019404636923993315,-0.019404636923993315
-0.06975528671769142,-0.06975528671769142
-0.11538556309323034,-0.11538556309323034
-0.13662724347494673,-0.13662724347494673
-0.142921074699159,-0.142921074699159
-0.15157509263245084,-0.15157509263245084
-0.15314855043850392,-0.15314855043850392
-0.1476414481173182,-0.1476414481173182
-0.14213434579613246,-0.14213434579613246
-0.15157509263245084,-0.15157509263245084
-0.16652294178995497,-0.16652294178995497
-0.17124331520811417,-0.17124331520811417
-0.16416275508087538,-0.16416275508087538
-0.16101583946876924,-0.16101583946876924
-0.16416275508087538,-0.16416275508087538
-0.16337602617784885,-0.16337602617784885
-0.17439023082022032,-0.17439023082022032
-0.2664375124743247,-0.2664375124743247
-0.48986852093385996,-0.48986852093385996
-0.76443690809012,-0.76443690809012
-0.8832329724471265,-0.8832329724471265
-0.6605886928906176,-0.6605886928906176
-0.050873793045054634,-0.050873793045054634
0.8538644454354581,0.8538644454354581
1.8553703389882346,1.8553703389882346
2.649966531045033,2.649966531045033
2.933188936134585,2.933188936134585
2.629511579566343,2.629511579566343
1.9812469634724799,1.9812469634724799
1.3353425340876963,1.3353425340876963
0.86251846336875,0.86251846336875
0.5352392397097124,0.5352392397097124
0.2897798219654341,0.2897798219654341
0.12456675232986221,0.12456675232986221
0.045893862027208916,0.045893862027208916
0.021505266033386396,0.021505266033386396
0.001837043457723075,0.001837043457723075
-0.03199229937241784,-0.03199229937241784
-0.06424818439650569,-0.06424818439650569
-0.0784093046509833,-0.0784093046509833
-0.07919603355400982,-0.07919603355400982
-0.08155622026308942,-0.08155622026308942
-0.09493061161454049,-0.09493061161454049
-0.1051580873538854,-0.1051580873538854
-0.09886425612967314,-0.09886425612967314
-0.07447566013585062,-0.07447566013585062
-0.03199229937241784,-0.03199229937241784
0.007344145778908805,0.007344145778908805
0.03251947067575786,0.03251947067575786
0.029372555063651728,0.029372555063651728
0.018358350421280267,0.018358350421280267
0.015211434809174135,0.015211434809174135
0.023078723839439465,0.023078723839439465
0.029372555063651728,0.029372555063651728
0.030946012869704793,0.030946012869704793
0.03015928396667826,0.03015928396667826
0.03566638628786399,0.03566638628786399
0.04668059093023545,0.04668059093023545
0.05848152447563344,0.05848152447563344
0.06634881350589877,0.06634881350589877
0.07657628924524369,0.07657628924524369
0.09545778291788048,0.09545778291788048
0.12614021013591528,0.12614021013591528
0.15682263735395005,0.15682263735395005
0.1725572154144807,0.1725572154144807
0.17098375760842766,0.17098375760842766
0.16941029980237457,0.16941029980237457
0.18593160676593176,0.18593160676593176
0.22369459411120535,0.22369459411120535
0.2638177681655585,0.2638177681655585
0.2960736531896464,0.2960736531896464
0.32360916479557505,0.32360916479557505
0.36058542323782206,0.36058542323782206
0.4054289707103345,0.4054289707103345
0.44083177134652846,0.44083177134652846
0.45420616269797953,0.45420616269797953
0.45735307831008565,0.45735307831008565
0.4723009274675898,0.4723009274675898
0.5061302702977307,0.5061302702977307
0.54940035996419,0.54940035996419
0.5879500762124902,0.5879500762124902
0.6076182987881534,0.6076182987881534
0.6036846542730208,0.6036846542730208
0.5871633473094636,0.5871633473094636
0.5761491426670922,0.5761491426670922
0.5800827871822248,0.5800827871822248
0.5863766184064371,0.5863766184064371
0.5769358715701187,0.5769358715701187
0.5525472755762961,0.5525472755762961
0.524225035067341,0.524225035067341
0.5037700835886512,0.5037700835886512
0.49511606565535926,0.49511606565535926
0.49275587894627965,0.49275587894627965
0.4848885899160143,0.4848885899160143
0.45656634940705915,0.45656634940705915
0.4014953261952018,0.4014953261952018
0.33147645382584034,0.33147645382584034
0.2653912259716116,0.2653912259716116
0.21818749179001962,0.21818749179001962
0.18986525128106443,0.18986525128106443
0.17098375760842766,0.17098375760842766
0.14895534832368473,0.14895534832368473
0.1151260054935438,0.1151260054935438
0.06634881350589877,0.06634881350589877
0.015998163712200666,0.015998163712200666
-0.02097809473004638,-0.02097809473004638
-0.033565757178470906,-0.033565757178470906
-0.03199229937241784,-0.03199229937241784
-0.03435248608149744,-0.03435248608149744
-0.053233979754134235,-0.053233979754134235
-0.08155622026308942,-0.08155622026308942
-0.09807752722664662,-0.09807752722664662
-0.09335715380848741,-0.09335715380848741
-0.08076949136006288,-0.08076949136006288
-0.08076949136006288,-0.08076949136006288
-0.09650406942059354,-0.09650406942059354
-0.107518274062965,-0.107518274062965
-0.09965098503269967,-0.09965098503269967
-0.08470313587519555,-0.08470313587519555
-0.08155622026308942,-0.08155622026308942
-0.09414388271151394,-0.09414388271151394
-0.10594481625691193,-0.10594481625691193
-0.10358462954783235,-0.10358462954783235
-0.09021023819638128,-0.09021023819638128
-0.07762257574795675,-0.07762257574795675
-0.07368893123282409,-0.07368893123282409
-0.07447566013585062,-0.07447566013585062
-0.07683584684493022,-0.07683584684493022
-0.0784093046509833,-0.0784093046509833
-0.08391640697216902,-0.08391640697216902
-0.09335715380848741,-0.09335715380848741
-0.09099696709940781,-0.09099696709940781
-0.061887997687426095,-0.061887997687426095
-0.012324076796754518,-0.012324076796754518
0.03015928396667826,0.03015928396667826
0.04982750654234158,0.04982750654234158
0.04904077763931505,0.04904077763931505
0.031732741772731325,0.031732741772731325
-0.0013098721543830568,-0.0013098721543830568
-0.02648519705123211,-0.02648519705123211
-0.005243516669515722,-0.005243516669515722
0.06398862679681917,0.06398862679681917
0.1292871257480214,0.1292871257480214
0.1458084327115786,0.1458084327115786
0.12456675232986221,0.12456675232986221
0.10017815633603969,0.10017815633603969
0.07578956034221716,0.07578956034221716
0.04353367531812932,0.04353367531812932
0.018358350421280267,0.018358350421280267
0.022291994936412932,0.022291994936412932
0.03960003080299666,0.03960003080299666
0.03251947067575786,0.03251947067575786
-0.017831179117940247,-0.017831179117940247
-0.08548986477822208,-0.08548986477822208
-0.1216793943174426,-0.1216793943174426
-0.10830500296599153,-0.10830500296599153
-0.053233979754134235,-0.053233979754134235
-0.006030245572542254,-0.006030245572542254
0.004983959069829206,0.004983959069829206
-0.027271925954258643,-0.027271925954258643
-0.07054201562071796,-0.07054201562071796
-0.09099696709940781,-0.09099696709940781
-0.07683584684493022,-0.07683584684493022
-0.058741082075319966,-0.058741082075319966
-0.06975528671769142,-0.06975528671769142
-0.107518274062965,-0.107518274062965
-0.15472200824455698,-0.15472200824455698
-0.2412621875774756,-0.2412621875774756
-0.42850366649779037,-0.42850366649779037
-0.6873374755935198,-0.6873374755935198
-0.8399628827806672,-0.8399628827806672
-0.6637356085027237,-0.6637356085027237
-0.04615341962689543,-0.04615341962689543
0.9404046247683768,0.9404046247683768
2.053626022550921,2.053626022550921
2.9379093095527438,2.9379093095527438
3.268335448823888,3.268335448823888
2.9607244477405135,2.9607244477405135
2.244014417083342,2.244014417083342
1.4832475678566845,1.4832475678566845
0.9152292998715278,0.9152292998715278
0.5533340044793227,0.5533340044793227
0.3133816890562301,0.3133816890562301
0.15760936625697658,0.15760936625697658
0.09624451182090701,0.09624451182090701
0.10253834304511929,0.10253834304511929
0.09860469852998661,0.09860469852998661
0.03645311519089052,0.03645311519089052
-0.04221977511176277,-0.04221977511176277
-0.07211547342677102,-0.07211547342677102
-0.053233979754134235,-0.053233979754134235
-0.03277902827544437,-0.03277902827544437
-0.030418841566364773,-0.030418841566364773
-0.02412501034215251,-0.02412501034215251
-0.0013098721543830568,-0.0013098721543830568
0.026225639451545595,0.026225639451545595
0.042746946415102786,0.042746946415102786
0.03566638628786399,0.03566638628786399
0.0191450793243068,0.0191450793243068
0.001837043457723075,0.001837043457723075
0.01127779029404147,0.01127779029404147
0.04117348860904972,0.04117348860904972
0.06634881350589877,0.06634881350589877
0.0647753556998457,0.0647753556998457
0.04825404873628852,0.04825404873628852
0.03881330189997012,0.03881330189997012
0.04668059093023545,0.04668059093023545
0.0694957291180049,0.0694957291180049
0.10725871646327848,0.10725871646327848
0.14738189051763165,0.14738189051763165
0.17019702870540113,0.17019702870540113
0.1678368419963215,0.1678368419963215
0.15760936625697658,0.15760936625697658
0.16154301077210925,0.16154301077210925
0.18514487786290523,0.18514487786290523
0.21582730508094003,0.21582730508094003
0.24729646120200133,0.24729646120200133
0.28191253293516877,0.28191253293516877
0.32124897808649544,0.32124897808649544
0.3542915920136098,0.3542915920136098
0.37002617007414046,0.37002617007414046
0.37868018800743236,0.37868018800743236
0.4054289707103345,0.4054289707103345
0.45971326501916526,0.45971326501916526
0.5281586795824736,0.5281586795824736
0.5808695160852514,0.5808695160852514
0.6099784854972331,0.6099784854972331
0.6288599791698698,0.6288599791698698
0.654035304066719,0.654035304066719
0.6886513757998863,0.6886513757998863
0.7201205319209477,0.7201205319209477
0.7311347365633192,0.7311347365633192
0.7216939897270007,0.7216939897270007
0.7035992249573905,0.7035992249573905
0.6949452070240986,0.6949452070240986
0.6973053937331782,0.6973053937331782
0.6996655804422578,0.6996655804422578
0.6839310023817271,0.6839310023817271
0.6508883884546127,0.6508883884546127
0.6178457745274983,0.6178457745274983
0.6036846542730208,0.6036846542730208
0.6036846542730208,0.6036846542730208
0.5973908230488085,0.5973908230488085
0.5690685825398534,0.5690685825398534
0.5226515772612879,0.5226515772612879
0.4683672829524571,0.4683672829524571
0.41172280193454674,0.41172280193454674
0.35035794749847715,0.35035794749847715
0.2874196352563545,0.2874196352563545
0.2315618831414707,0.2315618831414707
0.18750506457198485,0.18750506457198485
0.1458084327115786,0.1458084327115786
0.10096488523906622,0.10096488523906622
0.05612133776655384,0.05612133776655384
0.02465218164549253,0.02465218164549253
0.004983959069829206,0.004983959069829206
-0.009963890087674919,-0.009963890087674919
-0.03120557046939131,-0.03120557046939131
-0.05166052194808117,-0.05166052194808117
-0.06896855781466489,-0.06896855781466489
-0.08155622026308942,-0.08155622026308942
-0.09178369600243434,-0.09178369600243434
-0.09178369600243434,-0.09178369600243434
-0.0784093046509833,-0.0784093046509833
-0.056380895366240365,-0.056380895366240365
-0.03907285949965664,-0.03907285949965664
-0.027271925954258643,-0.027271925954258643
-0.01311080569978105,-0.01311080569978105
0.006557416875882272,0.006557416875882272
0.018358350421280267,0.018358350421280267
0.007344145778908805,0.007344145778908805
-0.021764823633072913,-0.021764823633072913
-0.04379323291781583,-0.04379323291781583
-0.04694014852992197,-0.04694014852992197
-0.03907285949965664,-0.03907285949965664
-0.03435248608149744,-0.03435248608149744
-0.03199229937241784,-0.03199229937241784
-0.017831179117940247,-0.017831179117940247
0.006557416875882272,0.006557416875882272
0.0191450793243068,0.0191450793243068
0.007344145778908805,0.007344145778908805
-0.017044450214913714,-0.017044450214913714
-0.027271925954258643,-0.027271925954258643
-0.01311080569978105,-0.01311080569978105
0.009704332487988404,0.009704332487988404
0.023078723839439465,0.023078723839439465
0.028585826160625195,0.028585826160625195
0.042746946415102786,0.042746946415102786
0.0671355424089253,0.0671355424089253
0.09073740949972128,0.09073740949972128
0.10489852975419887,0.10489852975419887
0.11905965000867648,0.11905965000867648
0.143448246002499,0.143448246002499
0.16862357089934804,0.16862357089934804
0.16626338419026845,0.16626338419026845
0.12378002342683567,0.12378002342683567
0.06634881350589877,0.06634881350589877
0.03960003080299666,0.03960003080299666
0.05926825337865997,0.05926825337865997
0.09467105401485396,0.09467105401485396
0.09545778291788048,0.09545778291788048
0.05061423544536811,0.05061423544536811
-0.00760370337859532,-0.00760370337859532
-0.03749940169360357,-0.03749940169360357
-0.03277902827544437,-0.03277902827544437
-0.028845383760311708,-0.028845383760311708
-0.0477268774329485,-0.0477268774329485
-0.08548986477822208,-0.08548986477822208
-0.10122444283875275,-0.10122444283875275
-0.08391640697216902,-0.08391640697216902
-0.055594166463213836,-0.055594166463213836
-0.0406463173057097,-0.0406463173057097
-0.0406463173057097,-0.0406463173057097
-0.04379323291781583,-0.04379323291781583
-0.05166052194808117,-0.05166052194808117
-0.06739510000861183,-0.06739510000861183
-0.1051580873538854,-0.1051580873538854
-0.21215321816549387,-0.21215321816549387
-0.43086385320687,-0.43086385320687
-0.6959914935268116,-0.6959914935268116
-0.811640642271712,-0.811640642271712
-0.5803423447819113,-0.5803423447819113
0.06870900021497836,0.06870900021497836
1.054480315707224,1.054480315707224
2.1503936776231845,2.1503936776231845
3.003207808503946,3.003207808503946
3.2738425511450733,3.2738425511450733
2.896999406595364,2.896999406595364
2.159047695556476,2.159047695556476
1.445484580511411,1.445484580511411
0.9380444380592972,0.9380444380592972
0.5989642808548616,0.5989642808548616
0.3519314053045302,0.3519314053045302
0.1843581489598787,0.1843581489598787
0.10096488523906622,0.10096488523906622
0.0694957291180049,0.0694957291180049
0.04904077763931505,0.04904077763931505
0.023865452742465997,0.023865452742465997
0.0026237723607496076,0.0026237723607496076
-0.009177161184648387,-0.009177161184648387
-0.016257721311887182,-0.016257721311887182
-0.024911739245179046,-0.024911739245179046
-0.02963211266333824,-0.02963211266333824
-0.02097809473004638,-0.02097809473004638
0.001837043457723075,0.001837043457723075
0.023865452742465997,0.023865452742465997
0.040386759706023186,0.040386759706023186
0.04353367531812932,0.04353367531812932
0.04510713312418239,0.04510713312418239
0.03881330189997012,0.03881330189997012
0.034879657384837455,0.034879657384837455
0.034879657384837455,0.034879657384837455
0.04668059093023545,0.04668059093023545
0.0647753556998457,0.0647753556998457
0.0836568493724825,0.0836568493724825
0.09388432511182743,0.09388432511182743
0.09467105401485396,0.09467105401485396
0.09624451182090701,0.09624451182090701
0.11119236097841115,0.11119236097841115
0.1363676858752602,0.1363676858752602
0.155249179547897,0.155249179547897
0.16075628186908272,0.16075628186908272
0.1646899263842154,0.1646899263842154
0.18514487786290523,0.18514487786290523
0.22290786520817882,0.22290786520817882
0.2575239369413463,0.2575239369413463
0.27640543061398304,0.27640543061398304
0.2874196352563545,0.2874196352563545
0.30787458673504436,0.30787458673504436
0.3361968272439996,0.3361968272439996
0.35979869433479555,0.35979869433479555
0.37632000129835275,0.37632000129835275
0.4030687840012549,0.4030687840012549
0.4455521447646877,0.4455521447646877
0.4935426078493062,0.4935426078493062
0.5305188662915532,0.5305188662915532
0.5635614802186676,0.5635614802186676
0.5997510097578881,0.5997510097578881
0.632006894781976,0.632006894781976
0.645381286133427,0.645381286133427
0.6493149306485597,0.6493149306485597
0.6619025930969842,0.6619025930969842
0.6831442734787007,0.6831442734787007
0.6949452070240986,0.6949452070240986
0.6847177312847537,0.6847177312847537
0.6587556774848781,0.6587556774848781
0.633580352588029,0.633580352588029
0.6194192323335515,0.6194192323335515
0.6146988589153922,0.6146988589153922
0.6076182987881534,0.6076182987881534
0.5863766184064371,0.5863766184064371
0.5533340044793227,0.5533340044793227
0.5187179327461552,0.5187179327461552
0.48252840320693474,0.48252840320693474
0.441618500249555,0.441618500249555
0.39520149497098955,0.39520149497098955
0.3519314053045302,0.3519314053045302
0.31416841795925665,0.31416841795925665
0.27168505719582386,0.27168505719582386
0.21897422069304615,0.21897422069304615
0.17334394431750724,0.17334394431750724
0.1481686194206582,0.1481686194206582
0.13715441477828674,0.13715441477828674
0.11905965000867648,0.11905965000867648
0.0836568493724825,0.0836568493724825
0.03802657299694359,0.03802657299694359
-0.004456787766489188,-0.004456787766489188
-0.03592594388755051,-0.03592594388755051
-0.05166052194808117,-0.05166052194808117
-0.058741082075319966,-0.058741082075319966
-0.06267472659045263,-0.06267472659045263
-0.06267472659045263,-0.06267472659045263
-0.053233979754134235,-0.053233979754134235
-0.04379323291781583,-0.04379323291781583
-0.055594166463213836,-0.055594166463213836
-0.08863678039032821,-0.08863678039032821
-0.11302537638415074,-0.11302537638415074
-0.11066518967507114,-0.11066518967507114
-0.09493061161454049,-0.09493061161454049
-0.09414388271151394,-0.09414388271151394
-0.1098784607720446,-0.1098784607720446
-0.12246612322046913,-0.12246612322046913
-0.12010593651138954,-0.12010593651138954
-0.1122386474811242,-0.1122386474811242
-0.10594481625691193,-0.10594481625691193
-0.09886425612967314,-0.09886425612967314
-0.08391640697216902,-0.08391640697216902
-0.07290220232979756,-0.07290220232979756
-0.08470313587519555,-0.08470313587519555
-0.11381210528717726,-0.11381210528717726
-0.131120141153761,-0.131120141153761
-0.1169590208992834,-0.1169590208992834
-0.08470313587519555,-0.08470313587519555
-0.0571676242692669,-0.0571676242692669
-0.03749940169360357,-0.03749940169360357
-0.013897534602807583,-0.013897534602807583
0.012851248100094536,0.012851248100094536
0.030946012869704793,0.030946012869704793
0.034879657384837455,0.034879657384837455
0.030946012869704793,0.030946012869704793
0.030946012869704793,0.030946012869704793
0.04353367531812932,0.04353367531812932
0.07342937363313756,0.07342937363313756
0.10647198756025195,0.10647198756025195
0.11119236097841115,0.11119236097841115
0.07342937363313756,0.07342937363313756
0.0167848926152272,0.0167848926152272
-0.017831179117940247,-0.017831179117940247
-0.012324076796754518,-0.012324076796754518
0.014424705906147601,0.014424705906147601
0.027012368354572127,0.027012368354572127
0.004197230166802674,0.004197230166802674
-0.0453666907238689,-0.0453666907238689
-0.09178369600243434,-0.09178369600243434
-0.10830500296599153,-0.10830500296599153
-0.10201117174177927,-0.10201117174177927
-0.09099696709940781,-0.09099696709940781
-0.10122444283875275,-0.10122444283875275
-0.1216793943174426,-0.1216793943174426
-0.14056088799007938,-0.14056088799007938
-0.14685471921429166,-0.14685471921429166
-0.14921490592337125,-0.14921490592337125
-0.1555087371475835,-0.1555087371475835
-0.1649494839839019,-0.1649494839839019
-0.16573621288692844,-0.16573621288692844
-0.1507883637294243,-0.1507883637294243
-0.142921074699159,-0.142921074699159
-0.20428592913522856,-0.20428592913522856
-0.3868070346373842,-0.3868070346373842
-0.6456408437331135,-0.6456408437331135
-0.8289486781382958,-0.8289486781382958
-0.7565696190598546,-0.7565696190598546
-0.31678816226802275,-0.31678816226802275
0.4943293367523327,0.4943293367523327
1.531238030941303,1.531238030941303
2.4800330879913015,2.4800330879913015
2.9819661281222296,2.9819661281222296
2.876544455116674,2.876544455116674
2.322687307385995,2.322687307385995
1.6476739085892298,1.6476739085892298
1.0820158273131528,1.0820158273131528
0.6744902555454088,0.6744902555454088
0.38576074813467115,0.38576074813467115
0.19065198018409096,0.19065198018409096
0.08050993376037636,0.08050993376037636
0.03015928396667826,0.03015928396667826
-0.0020966010574095897,-0.0020966010574095897
-0.0382861305966301,-0.0382861305966301
-0.07290220232979756,-0.07290220232979756
-0.09178369600243434,-0.09178369600243434
-0.09493061161454049,-0.09493061161454049
-0.09099696709940781,-0.09099696709940781
-0.08234294916611595,-0.08234294916611595
-0.07054201562071796,-0.07054201562071796
-0.061887997687426095,-0.061887997687426095
-0.06424818439650569,-0.06424818439650569
-0.06582164220255876,-0.06582164220255876
-0.061887997687426095,-0.061887997687426095
-0.04851360633597503,-0.04851360633597503
-0.04379323291781583,-0.04379323291781583
-0.0430065040147893,-0.0430065040147893
-0.0430065040147893,-0.0430065040147893
-0.0382861305966301,-0.0382861305966301
-0.03435248608149744,-0.03435248608149744
-0.03277902827544437,-0.03277902827544437
-0.028058654857285176,-0.028058654857285176
-0.014684263505834117,-0.014684263505834117
0.004983959069829206,0.004983959069829206
0.02779909725759866,0.02779909725759866
0.05376115105747424,0.05376115105747424
0.08680376498458862,0.08680376498458862
0.12063310781472954,0.12063310781472954
0.1387278725843398,0.1387278725843398
0.12771366794196834,0.12771366794196834
0.10253834304511929,0.10253834304511929
0.0883772227906417,0.0883772227906417
0.10096488523906622,0.10096488523906622
0.131647312457101,0.131647312457101
0.16626338419026845,0.16626338419026845
0.1937988957961971,0.1937988957961971
0.21897422069304615,0.21897422069304615
0.2488699190080544,0.2488699190080544
0.28820636415938106,0.28820636415938106
0.3299029960197873,0.3299029960197873
0.3660925255590078,0.3660925255590078
0.3967749527770426,0.3967749527770426
0.43060429560718355,0.43060429560718355
0.46679382514640405,0.46679382514640405
0.49983643907351843,0.49983643907351843
0.5257984928733941,0.5257984928733941
0.5541207333823492,0.5541207333823492
0.5855898895034105,0.5855898895034105
0.6099784854972331,0.6099784854972331
0.6115519433032861,0.6115519433032861
0.5958173652427554,0.5958173652427554
0.5792960582791983,0.5792960582791983
0.5722154981519595,0.5722154981519595
0.5682818536368268,0.5682818536368268
0.5588411068005085,0.5588411068005085
0.5399596131278717,0.5399596131278717
0.5179312038431287,0.5179312038431287
0.4966895234614123,0.4966895234614123
0.4723009274675898,0.4723009274675898
0.44083177134652846,0.44083177134652846
0.39913513948612217,0.39913513948612217
0.3511446764015037,0.3511446764015037
0.30158075551083213,0.30158075551083213
0.2559504791352932,0.2559504791352932
0.21897422069304615,0.21897422069304615
0.18199796225079912,0.18199796225079912
0.13715441477828674,0.13715441477828674
0.08680376498458862,0.08680376498458862
0.04904077763931505,0.04904077763931505
0.028585826160625195,0.028585826160625195
0.0191450793243068,0.0191450793243068
0.012851248100094536,0.012851248100094536
0.023078723839439465,0.023078723839439465
0.05690806666958037,0.05690806666958037
0.09939142743301316,0.09939142743301316
0.1127658187844642,0.1127658187844642
0.08050993376037636,0.08050993376037636
0.028585826160625195,0.028585826160625195
-0.0020966010574095897,-0.0020966010574095897
-0.0020966010574095897,-0.0020966010574095897
0.00026358565167000907,0.00026358565167000907
-0.019404636923993315,-0.019404636923993315
-0.05166052194808117,-0.05166052194808117
-0.08234294916611595,-0.08234294916611595
-0.10830500296599153,-0.10830500296599153
-0.12010593651138954,-0.12010593651138954
-0.10673154515993848,-0.10673154515993848
-0.09021023819638128,-0.09021023819638128
-0.11617229199625687,-0.11617229199625687
-0.1791106042383795,-0.1791106042383795
-0.2074328447473347,-0.2074328447473347
-0.1625892972748223,-0.1625892972748223
-0.1004377139357262,-0.1004377139357262
-0.09178369600243434,-0.09178369600243434
-0.1263997677356018,-0.1263997677356018
-0.14134761689310593,-0.14134761689310593
-0.11853247870533647,-0.11853247870533647
-0.09335715380848741,-0.09335715380848741
-0.09178369600243434,-0.09178369600243434
-0.09493061161454049,-0.09493061161454049
-0.08155622026308942,-0.08155622026308942
-0.0524472508511077,-0.0524472508511077
-0.02412501034215251,-0.02412501034215251
0.00026358565167000907,0.00026358565167000907
0.02465218164549253,0.02465218164549253
0.04353367531812932,0.04353367531812932
0.04353367531812932,0.04353367531812932
0.03566638628786399,0.03566638628786399
0.04825404873628852,0.04825404873628852
0.08680376498458862,0.08680376498458862
0.1127658187844642,0.1127658187844642
0.09703124072393356,0.09703124072393356
0.05376115105747424,0.05376115105747424
0.018358350421280267,0.018358350421280267
-0.006816974475568787,-0.006816974475568787
-0.03513921498452397,-0.03513921498452397
-0.06503491329953223,-0.06503491329953223
-0.07132874452374449,-0.07132874452374449
-0.05402070865716077,-0.05402070865716077
-0.0406463173057097,-0.0406463173057097
-0.053233979754134235,-0.053233979754134235
-0.08942350929335476,-0.08942350929335476
-0.12246612322046913,-0.12246612322046913
-0.14842817702034472,-0.14842817702034472
-0.16888312849903458,-0.16888312849903458
-0.18697789326864483,-0.18697789326864483
-0.17832387533535296,-0.17832387533535296
-0.13269359895981406,-0.13269359895981406
-0.07290220232979756,-0.07290220232979756
-0.0430065040147893,-0.0430065040147893
-0.0571676242692669,-0.0571676242692669
-0.08942350929335476,-0.08942350929335476
-0.11617229199625687,-0.11617229199625687
-0.16337602617784885,-0.16337602617784885
-0.29397302408025333,-0.29397302408025333
-0.5331386106003193,-0.5331386106003193
-0.7903989618899955,-0.7903989618899955
-0.8564841897442244,-0.8564841897442244
-0.5150438458307091,-0.5150438458307091
0.2960736531896464,0.2960736531896464
1.3990675752328454,1.3990675752328454
2.4454170162581343,2.4454170162581343
3.0748001386793606,3.0748001386793606
3.087387801127785,3.087387801127785
2.5500519603606633,2.5500519603606633
1.771977075267422,1.771977075267422
1.101684049888816,1.101684049888816
0.6839310023817271,0.6839310023817271
0.4321777534132366,0.4321777534132366
0.23628225655962987,0.23628225655962987
0.10332507194814582,0.10332507194814582
0.06005498228168651,0.06005498228168651
0.040386759706023186,0.040386759706023186
-0.03435248608149744,-0.03435248608149744
-0.13269359895981406,-0.13269359895981406
-0.16809639959600803,-0.16809639959600803
-0.1382007012809998,-0.1382007012809998
-0.11853247870533647,-0.11853247870533647
-0.14213434579613246,-0.14213434579613246
-0.16573621288692844,-0.16573621288692844
-0.1476414481173182,-0.1476414481173182
-0.10358462954783235,-0.10358462954783235
-0.06818182891163836,-0.06818182891163836
-0.0524472508511077,-0.0524472508511077
-0.028845383760311708,-0.028845383760311708
0.001050314554696542,0.001050314554696542
0.01993180822733333,0.01993180822733333
-0.0013098721543830568,-0.0013098721543830568
-0.0430065040147893,-0.0430065040147893
-0.06739510000861183,-0.06739510000861183
-0.05795435317229343,-0.05795435317229343
-0.03513921498452397,-0.03513921498452397
-0.02097809473004638,-0.02097809473004638
-0.010750618990701451,-0.010750618990701451
0.014424705906147601,0.014424705906147601
0.06162844008773957,0.06162844008773957
0.11591273439657034,0.11591273439657034
0.15288899283881738,0.15288899283881738
0.1678368419963215,0.1678368419963215
0.17413067322053377,0.17413067322053377
0.18829179347501138,0.18829179347501138
0.20481310043856857,0.20481310043856857
0.2150405761779135,0.2150405761779135
0.2252680519172584,0.2252680519172584
0.26224431035950546,0.26224431035950546
0.3322631827288669,0.3322631827288669
0.4101493441284937,0.4101493441284937
0.4581398072131122,0.4581398072131122
0.46600709624337755,0.46600709624337755
0.4557796205040326,0.4557796205040326
0.4620734517282449,0.4620734517282449
0.49590279455838576,0.49590279455838576
0.5454667154490573,0.5454667154490573
0.5855898895034105,0.5855898895034105
0.6036846542730208,0.6036846542730208
0.6060448409821004,0.6060448409821004
0.6162723167214453,0.6162723167214453
0.6485282017455332,0.6485282017455332
0.6910115625089659,0.6910115625089659
0.7106797850846293,0.7106797850846293
0.6910115625089659,0.6910115625089659
0.6516751173576393,0.6516751173576393
0.6304334369759229,0.6304334369759229
0.6390874549092148,0.6390874549092148
0.6548220329697454,0.6548220329697454
0.6508883884546127,0.6508883884546127
0.6272865213638168,0.6272865213638168
0.5942439074367024,0.5942439074367024
0.54940035996419,0.54940035996419
0.4848885899160143,0.4848885899160143
0.4125095308375733,0.4125095308375733
0.36294560994690167,0.36294560994690167
0.35035794749847715,0.35035794749847715
0.3511446764015037,0.3511446764015037
0.3291162671167608,0.3291162671167608
0.26853814158371775,0.26853814158371775
0.1937988957961971,0.1937988957961971
0.13715441477828674,0.13715441477828674
0.10568525865722542,0.10568525865722542
0.08287012046945597,0.08287012046945597
0.05297442215444771,0.05297442215444771
0.0191450793243068,0.0191450793243068
-0.005243516669515722,-0.005243516669515722
-0.017831179117940247,-0.017831179117940247
-0.024911739245179046,-0.024911739245179046
-0.03749940169360357,-0.03749940169360357
-0.05166052194808117,-0.05166052194808117
-0.058741082075319966,-0.058741082075319966
-0.0548074375601873,-0.0548074375601873
-0.04694014852992197,-0.04694014852992197
-0.04615341962689543,-0.04615341962689543
-0.0571676242692669,-0.0571676242692669
-0.07290220232979756,-0.07290220232979756
-0.09178369600243434,-0.09178369600243434
-0.10909173186901808,-0.10909173186901808
-0.11774574980230994,-0.11774574980230994
-0.10122444283875275,-0.10122444283875275
-0.05795435317229343,-0.05795435317229343
-0.011537347893727984,-0.011537347893727984
0.0026237723607496076,0.0026237723607496076
-0.03277902827544437,-0.03277902827544437
-0.1004377139357262,-0.1004377139357262
-0.15708219495363657,-0.15708219495363657
-0.1649494839839019,-0.1649494839839019
-0.12089266541441607,-0.12089266541441607
-0.061101268784399566,-0.061101268784399566
-0.02412501034215251,-0.02412501034215251
-0.019404636923993315,-0.019404636923993315
-0.02097809473004638,-0.02097809473004638
-0.009963890087674919,-0.009963890087674919
0.004983959069829206,0.004983959069829206
0.012064519197068004,0.012064519197068004
0.01993180822733333,0.01993180822733333
0.04746731983326198,0.04746731983326198
0.09073740949972128,0.09073740949972128
0.12535348123288872,0.12535348123288872
0.13794114368131327,0.13794114368131327
0.1410880592934194,0.1410880592934194
0.14738189051763165,0.14738189051763165
0.15210226393579085,0.15210226393579085
0.13479422806920713,0.13479422806920713
0.09624451182090701,0.09624451182090701
0.0624151689907661,0.0624151689907661
0.06162844008773957,0.06162844008773957
0.0883772227906417,0.0883772227906417
0.11748619220262341,0.11748619220262341
0.12299329452380914,0.12299329452380914
0.10017815633603969,0.10017815633603969
0.05297442215444771,0.05297442215444771
-0.00760370337859532,-0.00760370337859532
-0.06346145549347916,-0.06346145549347916
-0.10909173186901808,-0.10909173186901808
-0.13426705676586712,-0.13426705676586712
-0.14921490592337125,-0.14921490592337125
-0.1460679903112651,-0.1460679903112651
-0.1295466833477079,-0.1295466833477079
-0.10909173186901808,-0.10909173186901808
-0.09886425612967314,-0.09886425612967314
-0.09807752722664662,-0.09807752722664662
-0.10122444283875275,-0.10122444283875275
-0.09807752722664662,-0.09807752722664662
-0.08785005148730168,-0.08785005148730168
-0.09886425612967314,-0.09886425612967314
-0.20428592913522856,-0.20428592913522856
-0.4552524492006925,-0.4552524492006925
-0.7691572815082791,-0.7691572815082791
-0.9209959597924001,-0.9209959597924001
-0.6834038310783871,-0.6834038310783871
0.023865452742465997,0.023865452742465997
1.091456574149471,1.091456574149471
2.250308248307554,2.250308248307554
3.1251507884730585,3.1251507884730585
3.390278428793,3.390278428793
2.9937670616676275,2.9937670616676275
2.2149054476713603,2.2149054476713603
1.447058038317464,1.447058038317464
0.9073620108412624,0.9073620108412624
0.5769358715701187,0.5769358715701187
0.35035794749847715,0.35035794749847715
0.18278469115382565,0.18278469115382565
0.08208339156642942,0.08208339156642942
0.042746946415102786,0.042746946415102786
0.026225639451545595,0.026225639451545595
0.003410501263776141,0.003410501263776141
-0.016257721311887182,-0.016257721311887182
-0.011537347893727984,-0.011537347893727984
0.010491061391014937,0.010491061391014937
0.02779909725759866,0.02779909725759866
0.02779909725759866,0.02779909725759866
0.01127779029404147,0.01127779029404147
-0.019404636923993315,-0.019404636923993315
-0.0571676242692669,-0.0571676242692669
-0.06896855781466489,-0.06896855781466489
-0.0477268774329485,-0.0477268774329485
-0.0005231432513565238,-0.0005231432513565238
0.03645311519089052,0.03645311519089052
0.06162844008773957,0.06162844008773957
0.08050993376037636,0.08050993376037636
0.09703124072393356,0.09703124072393356
0.10096488523906622,0.10096488523906622
0.09152413840274783,0.09152413840274783
0.07500283143919063,0.07500283143919063
0.06162844008773957,0.06162844008773957
0.05690806666958037,0.05690806666958037
0.0624151689907661,0.0624151689907661
0.07893647595432329,0.07893647595432329
0.10411180085117235,0.10411180085117235
0.12456675232986221,0.12456675232986221
0.13322077026315407,0.13322077026315407
0.13951460148736633,0.13951460148736633
0.16547665528724192,0.16547665528724192
0.20796001605067468,0.20796001605067468
0.24729646120200133,0.24729646120200133
0.27168505719582386,0.27168505719582386
0.2992205688017525,0.2992205688017525
0.34091720066215875,0.34091720066215875
0.3841872903286181,0.3841872903286181
0.406215699613361,0.406215699613361
0.416443175352706,0.416443175352706
0.43296448231626317,0.43296448231626317
0.46364690953429794,0.46364690953429794
0.5029833546856246,0.5029833546856246
0.5549074622853758,0.5549074622853758
0.6146988589153922,0.6146988589153922
0.6666229665151434,0.6666229665151434
0.6894381047029129,0.6894381047029129
0.6894381047029129,0.6894381047029129
0.6878646468968598,0.6878646468968598
0.6957319359271251,0.6957319359271251
0.7067461405694966,0.7067461405694966
0.7114665139876558,0.7114665139876558
0.7035992249573905,0.7035992249573905
0.6815708156726475,0.6815708156726475
0.6501016595515863,0.6501016595515863
0.621779419042631,0.621779419042631
0.6060448409821004,0.6060448409821004
0.6013244675639412,0.6013244675639412
0.5958173652427554,0.5958173652427554
0.5753624137640656,0.5753624137640656
0.5320923240976063,0.5320923240976063
0.46679382514640405,0.46679382514640405
0.3873342059407242,0.3873342059407242
0.30787458673504436,0.30787458673504436
0.24336281668686868,0.24336281668686868
0.20402637153554204,0.20402637153554204
0.18042450444474603,0.18042450444474603
0.1599695529660562,0.1599695529660562
0.13322077026315407,0.13322077026315407
0.10253834304511929,0.10253834304511929
0.0718559158270845,0.0718559158270845
0.03881330189997012,0.03881330189997012
0.0026237723607496076,0.0026237723607496076
-0.02963211266333824,-0.02963211266333824
-0.050873793045054634,-0.050873793045054634
-0.061101268784399566,-0.061101268784399566
-0.06346145549347916,-0.06346145549347916
-0.06031453988137303,-0.06031453988137303
-0.055594166463213836,-0.055594166463213836
-0.053233979754134235,-0.053233979754134235
-0.05795435317229343,-0.05795435317229343
-0.06818182891163836,-0.06818182891163836
-0.08391640697216902,-0.08391640697216902
-0.10358462954783235,-0.10358462954783235
-0.1263997677356018,-0.1263997677356018
-0.14213434579613246,-0.14213434579613246
-0.14685471921429166,-0.14685471921429166
-0.1460679903112651,-0.1460679903112651
-0.14842817702034472,-0.14842817702034472
-0.14842817702034472,-0.14842817702034472
-0.13898743018402632,-0.13898743018402632
-0.119319207608363,-0.119319207608363
-0.1027979006448058,-0.1027979006448058
-0.09886425612967314,-0.09886425612967314
-0.10673154515993848,-0.10673154515993848
-0.1169590208992834,-0.1169590208992834
-0.1169590208992834,-0.1169590208992834
-0.10122444283875275,-0.10122444283875275
-0.07683584684493022,-0.07683584684493022
-0.0571676242692669,-0.0571676242692669
-0.0430065040147893,-0.0430065040147893
-0.02569846814820558,-0.02569846814820558
-0.0028833299604361226,-0.0028833299604361226
0.0167848926152272,0.0167848926152272
0.01993180822733333,0.01993180822733333
0.006557416875882272,0.006557416875882272
-0.0005231432513565238,-0.0005231432513565238
0.015998163712200666,0.015998163712200666
0.05454787996050078,0.05454787996050078
0.0883772227906417,0.0883772227906417
0.09624451182090701,0.09624451182090701
0.07500283143919063,0.07500283143919063
0.03881330189997012,0.03881330189997012
0.006557416875882272,0.006557416875882272
-0.006030245572542254,-0.006030245572542254
0.003410501263776141,0.003410501263776141
0.0191450793243068,0.0191450793243068
0.012851248100094536,0.012851248100094536
-0.021764823633072913,-0.021764823633072913
-0.06503491329953223,-0.06503491329953223
-0.09335715380848741,-0.09335715380848741
-0.10358462954783235,-0.10358462954783235
-0.11617229199625687,-0.11617229199625687
-0.131120141153761,-0.131120141153761
-0.14842817702034472,-0.14842817702034472
-0.1602291105657427,-0.1602291105657427
-0.1720300441111407,-0.1720300441111407
-0.18304424875351216,-0.18304424875351216
-0.18697789326864483,-0.18697789326864483
-0.17753714643232643,-0.17753714643232643
-0.1625892972748223,-0.1625892972748223
-0.15629546605061004,-0.15629546605061004
-0.1673096706929815,-0.1673096706929815
-0.21136648926246734,-0.21136648926246734
-0.33330946923157995,-0.33330946923157995
-0.5606741222062479,-0.5606741222062479
-0.8077069977565794,-0.8077069977565794
-0.8714320389017285,-0.8714320389017285
-0.5709015979455928,-0.5709015979455928
0.12535348123288872,0.12535348123288872
1.1024707787918426,1.1024707787918426
2.120497979308176,2.120497979308176
2.840354925577454,2.840354925577454
2.969378465673805,2.969378465673805
2.5107155152093363,2.5107155152093363
1.7947922134551915,1.7947922134551915
1.1795702112884427,1.1795702112884427
0.76496407939346,0.76496407939346
0.4604999939221918,0.4604999939221918
0.20953347385672777,0.20953347385672777
0.04668059093023545,0.04668059093023545
-0.017831179117940247,-0.017831179117940247
-0.03749940169360357,-0.03749940169360357
-0.06031453988137303,-0.06031453988137303
-0.08076949136006288,-0.08076949136006288
-0.08627659368124861,-0.08627659368124861
-0.07998276245703635,-0.07998276245703635
-0.07526238903887715,-0.07526238903887715
-0.07683584684493022,-0.07683584684493022
-0.08312967806914248,-0.08312967806914248
-0.08942350929335476,-0.08942350929335476
-0.09807752722664662,-0.09807752722664662
-0.1122386474811242,-0.1122386474811242
-0.12718649663862833,-0.12718649663862833
-0.1382007012809998,-0.1382007012809998
-0.13190687005678753,-0.13190687005678753
-0.11774574980230994,-0.11774574980230994
-0.1004377139357262,-0.1004377139357262
-0.08942350929335476,-0.08942350929335476
-0.08312967806914248,-0.08312967806914248
-0.08155622026308942,-0.08155622026308942
-0.07762257574795675,-0.07762257574795675
-0.06818182891163836,-0.06818182891163836
-0.05166052194808117,-0.05166052194808117
-0.03513921498452397,-0.03513921498452397
-0.02412501034215251,-0.02412501034215251
-0.02097809473004638,-0.02097809473004638
-0.017831179117940247,-0.017831179117940247
-0.00760370337859532,-0.00760370337859532
0.014424705906147601,0.014424705906147601
0.042746946415102786,0.042746946415102786
0.07264264473011103,0.07264264473011103
0.10096488523906622,0.10096488523906622
0.12850039684499487,0.12850039684499487
0.15603590845092352,0.15603590845092352
0.19301216689317058,0.19301216689317058
0.24021590107476254,0.24021590107476254
0.29528692428661985,0.29528692428661985
0.34721103188637104,0.34721103188637104
0.38654747703769765,0.38654747703769765
0.4093626152254672,0.4093626152254672
0.42431046438297126,0.42431046438297126
0.44240522915258157,0.44240522915258157
0.4707274696615367,0.4707274696615367
0.5061302702977307,0.5061302702977307
0.537599426418792,0.537599426418792
0.5588411068005085,0.5588411068005085
0.5753624137640656,0.5753624137640656
0.5910969918245963,0.5910969918245963
0.6013244675639412,0.6013244675639412
0.5973908230488085,0.5973908230488085
0.5816562449882778,0.5816562449882778
0.5651349380247207,0.5651349380247207
0.5541207333823492,0.5541207333823492
0.5446799865460308,0.5446799865460308
0.5289454084855002,0.5289454084855002
0.5045568124916776,0.5045568124916776
0.4723009274675898,0.4723009274675898
0.4392583135404754,0.4392583135404754
0.4093626152254672,0.4093626152254672
0.37632000129835275,0.37632000129835275
0.335410098340973,0.335410098340973
0.2842727196442484,0.2842727196442484
0.2299884253354176,0.2299884253354176
0.17727758883263992,0.17727758883263992
0.12771366794196834,0.12771366794196834
0.08287012046945597,0.08287012046945597
0.04668059093023545,0.04668059093023545
0.015211434809174135,0.015211434809174135
-0.020191365827019848,-0.020191365827019848
-0.061101268784399566,-0.061101268784399566
