ECG,PPG
-0.27059758709934084,-0.27059758709934084
0.484536602928044,0.484536602928044
-0.1293042875100173,-0.1293042875100173
-0.3831089182538022,-0.3831089182538022
0.08211235335697058,0.08211235335697058
0.3908643783854925,0.3908643783854925
0.29405230274095595,0.29405230274095595
0.286725983502991,0.286725983502991
0.5054689436079438,0.5054689436079438
0.6054208703544653,0.6054208703544653
0.5761155934026055,0.5761155934026055
0.6703111264621546,0.6703111264621546
0.8581788840642552,0.8581788840642552
0.8717849055061901,0.8717849055061901
0.7174088929919291,0.7174088929919291
0.5803020615385855,0.5803020615385855
0.5054689436079438,0.5054689436079438
0.38249144211353253,0.38249144211353253
0.22340565294629414,0.22340565294629414
0.09676499183290042,0.09676499183290042
0.011465703562308785,0.011465703562308785
-0.11203510644909997,-0.11203510644909997
-0.27059758709934084,-0.27059758709934084
-0.44171947215752166,-0.44171947215752166
-0.5526608777609905,-0.5526608777609905
-0.6374368575145847,-0.6374368575145847
-0.6939541773503141,-0.6939541773503141
-0.7740203804509308,-0.7740203804509308
-0.8352474769396376,-0.8352474769396376
-0.8922881052923646,-0.8922881052923646
-0.9058941267342995,-0.9058941267342995
-0.9116505204212719,-0.9116505204212719
-0.9058941267342995,-0.9058941267342995
-0.8954279563943496,-0.8954279563943496
-0.8352474769396376,-0.8352474769396376
-0.7782068485869107,-0.7782068485869107
-0.7646008271449759,-0.7646008271449759
-0.7797767741379033,-0.7797767741379033
-0.6939541773503141,-0.6939541773503141
-0.5484744096250106,-0.5484744096250106
-0.41189088668866447,-0.41189088668866447
-0.15128324522391207,-0.15128324522391207
0.5761155934026055,0.5761155934026055
1.7122183838041667,1.7122183838041667
2.8341918442467953,2.8341918442467953
3.7123035357685916,3.7123035357685916
4.527618205250688,4.527618205250688
5.056683115935155,5.056683115935155
4.59826485504535,4.59826485504535
2.9461798668842594,2.9461798668842594
0.9994721836535788,0.9994721836535788
-0.3726427479138523,-0.3726427479138523
-1.187957417395949,-1.187957417395949
-1.7787727330861207,-1.7787727330861207
-1.893377298308572,-1.893377298308572
-1.33396049363825,-1.33396049363825
-0.6233075275556523,-0.6233075275556523
-0.4736412916943688,-0.4736412916943688
-0.7646008271449759,-0.7646008271449759
-0.958224978434049,-0.958224978434049
-0.9058941267342995,-0.9058941267342995
-0.8985678074963346,-0.8985678074963346
-0.9760174680119638,-0.9760174680119638
-0.9896234894538987,-0.9896234894538987
-0.9058941267342995,-0.9058941267342995
-0.8881016371563847,-0.8881016371563847
-0.9058941267342995,-0.9058941267342995
-0.8724023816464598,-0.8724023816464598
-0.7646008271449759,-0.7646008271449759
-0.7305857735401388,-0.7305857735401388
-0.7646008271449759,-0.7646008271449759
-0.8075121255387705,-0.8075121255387705
-0.7646008271449759,-0.7646008271449759
-0.6892444006973366,-0.6892444006973366
-0.6233075275556523,-0.6233075275556523
-0.5966187931887801,-0.5966187931887801
-0.5526608777609905,-0.5526608777609905
-0.5071330367822084,-0.5071330367822084
-0.48253753648332626,-0.48253753648332626
-0.5238789093261284,-0.5238789093261284
-0.5526608777609905,-0.5526608777609905
-0.5207390582241433,-0.5207390582241433
-0.41189088668866447,-0.41189088668866447
-0.32240513028209283,-0.32240513028209283
-0.27059758709934084,-0.27059758709934084
-0.2501885549364386,-0.2501885549364386
-0.19995093730467908,-0.19995093730467908
-0.15651633039388702,-0.15651633039388702
-0.1293042875100173,-0.1293042875100173
-0.12354789382304485,-0.12354789382304485
-0.059180946232353,-0.059180946232353
0.04705068271813843,0.04705068271813843
0.15275900315163235,0.15275900315163235
0.19148383340944697,0.19148383340944697
0.22340565294629414,0.22340565294629414
0.2778297387140336,0.2778297387140336
0.36469895253561774,0.36469895253561774
0.4301125171603046,0.4301125171603046
0.5054689436079438,0.5054689436079438
0.5803020615385855,0.5803020615385855
0.6467622431972674,0.6467622431972674
0.6703111264621546,0.6703111264621546
0.7174088929919291,0.7174088929919291
0.789102159820586,0.789102159820586
0.8581788840642552,0.8581788840642552
0.8634119692342301,0.8634119692342301
0.8581788840642552,0.8581788840642552
0.8403863944863404,0.8403863944863404
0.788055542786591,0.788055542786591
0.6666479668431722,0.6666479668431722
0.5761155934026055,0.5761155934026055
0.539483997212781,0.539483997212781
0.5054689436079438,0.5054689436079438
0.3762117399095626,0.3762117399095626
0.22340565294629414,0.22340565294629414
0.11874394954679521,0.11874394954679521
0.08211235335697058,0.08211235335697058
0.021408565385261185,0.021408565385261185
-0.059180946232353,-0.059180946232353
-0.14605016005393712,-0.14605016005393712
-0.19995093730467908,-0.19995093730467908
-0.25175848048743105,-0.25175848048743105
-0.27059758709934084,-0.27059758709934084
-0.2779239063373058,-0.2779239063373058
-0.27059758709934084,-0.27059758709934084
-0.28263368299028324,-0.28263368299028324
-0.27059758709934084,-0.27059758709934084
-0.26222465082738095,-0.26222465082738095
-0.27059758709934084,-0.27059758709934084
-0.32240513028209283,-0.32240513028209283
-0.3412442368940027,-0.3412442368940027
-0.3365344602410252,-0.3365344602410252
-0.3412442368940027,-0.3412442368940027
-0.39828486524672957,-0.39828486524672957
-0.41189088668866447,-0.41189088668866447
-0.35589687536993253,-0.35589687536993253
-0.27059758709934084,-0.27059758709934084
-0.2564682571404085,-0.2564682571404085
-0.27059758709934084,-0.27059758709934084
-0.28106375743929074,-0.28106375743929074
-0.27059758709934084,-0.27059758709934084
-0.28368030002427824,-0.28368030002427824
-0.27059758709934084,-0.27059758709934084
-0.23605922497750623,-0.23605922497750623
-0.19995093730467908,-0.19995093730467908
-0.21146372467862395,-0.21146372467862395
-0.19995093730467908,-0.19995093730467908
-0.159656181495872,-0.159656181495872
-0.1293042875100173,-0.1293042875100173
-0.19314792658371166,-0.19314792658371166
-0.27059758709934084,-0.27059758709934084
-0.28263368299028324,-0.28263368299028324
-0.19995093730467908,-0.19995093730467908
-0.13715391526497972,-0.13715391526497972
-0.1293042875100173,-0.1293042875100173
-0.159656181495872,-0.159656181495872
-0.1293042875100173,-0.1293042875100173
-0.04138845665443818,-0.04138845665443818
0.08211235335697058,0.08211235335697058
0.16531840755957222,0.16531840755957222
0.22340565294629414,0.22340565294629414
0.27416657909505115,0.27416657909505115
0.36469895253561774,0.36469895253561774
0.4463350811872269,0.4463350811872269
0.5054689436079438,0.5054689436079438
0.5462870079337484,0.5462870079337484
0.6467622431972674,0.6467622431972674
0.7744495213446561,0.7744495213446561
0.8581788840642552,0.8581788840642552
0.8178841282554481,0.8178841282554481
0.7174088929919291,0.7174088929919291
0.6054208703544653,0.6054208703544653
0.5054689436079438,0.5054689436079438
0.3678388036376027,0.3678388036376027
0.22340565294629414,0.22340565294629414
0.07792588522099061,0.07792588522099061
-0.059180946232353,-0.059180946232353
-0.23605922497750623,-0.23605922497750623
-0.41189088668866447,-0.41189088668866447
-0.5772563780598727,-0.5772563780598727
-0.6939541773503141,-0.6939541773503141
-0.7959993381648256,-0.7959993381648256
-0.8352474769396376,-0.8352474769396376
-0.8488534983815725,-0.8488534983815725
-0.8352474769396376,-0.8352474769396376
-0.8436204132115976,-0.8436204132115976
-0.8352474769396376,-0.8352474769396376
-0.8310610088036577,-0.8310610088036577
-0.8352474769396376,-0.8352474769396376
-0.8802520094014222,-0.8802520094014222
-0.9058941267342995,-0.9058941267342995
-0.8739723071974522,-0.8739723071974522
-0.7646008271449759,-0.7646008271449759
-0.6808714644253767,-0.6808714644253767
-0.6233075275556523,-0.6233075275556523
-0.4642217383884139,-0.4642217383884139
0.011465703562308785,0.011465703562308785
0.7775893724466411,0.7775893724466411
1.7054153730831991,1.7054153730831991
2.747322630425211,2.747322630425211
3.9629683154103916,3.9629683154103916
5.037844009323246,5.037844009323246
5.374331385752635,5.374331385752635
4.643792696024132,4.643792696024132
3.2575484344977683,3.2575484344977683
1.822636480890638,1.822636480890638
0.5761155934026055,0.5761155934026055
-0.6117947401817074,-0.6117947401817074
-1.6113140076469223,-1.6113140076469223
-2.0341472893808983,-2.0341472893808983
-1.6819606574415842,-1.6819606574415842
-0.9828204787329312,-0.9828204787329312
-0.5526608777609905,-0.5526608777609905
-0.6369135489975871,-0.6369135489975871
-0.9058941267342995,-0.9058941267342995
-1.0241618515757334,-1.0241618515757334
-0.9760174680119638,-0.9760174680119638
-0.9828204787329312,-0.9828204787329312
-1.0466641178066256,-1.0466641178066256
-1.0430009581876432,-1.0430009581876432
-0.9058941267342995,-0.9058941267342995
-0.7907662529948506,-0.7907662529948506
-0.7646008271449759,-0.7646008271449759
-0.8185016043957178,-0.8185016043957178
-0.8352474769396376,-0.8352474769396376
-0.8211181469807053,-0.8211181469807053
-0.7646008271449759,-0.7646008271449759
-0.7248293798531663,-0.7248293798531663
-0.6939541773503141,-0.6939541773503141
-0.6772083048063943,-0.6772083048063943
-0.6233075275556523,-0.6233075275556523
-0.5709766758559028,-0.5709766758559028
-0.5526608777609905,-0.5526608777609905
-0.5976654102227751,-0.5976654102227751
-0.6233075275556523,-0.6233075275556523
-0.6065616550117324,-0.6065616550117324
-0.5526608777609905,-0.5526608777609905
-0.5432413244550356,-0.5432413244550356
-0.5526608777609905,-0.5526608777609905
-0.5332984626320832,-0.5332984626320832
-0.41189088668866447,-0.41189088668866447
-0.25437502307241855,-0.25437502307241855
-0.1293042875100173,-0.1293042875100173
-0.09005614873520519,-0.09005614873520519
-0.059180946232353,-0.059180946232353
-0.005803477498608541,-0.005803477498608541
0.08211235335697058,0.08211235335697058
0.15014246056664488,0.15014246056664488
0.22340565294629414,0.22340565294629414
0.29405230274095595,0.29405230274095595
0.36469895253561774,0.36469895253561774
0.3783049739775526,0.3783049739775526
0.36469895253561774,0.36469895253561774
0.34219668630472544,0.34219668630472544
0.36469895253561774,0.36469895253561774
0.4133666446163847,0.4133666446163847
0.5054689436079438,0.5054689436079438
0.6080374129394528,0.6080374129394528
0.7174088929919291,0.7174088929919291
0.7943352449905609,0.7943352449905609
0.8581788840642552,0.8581788840642552
0.8785879162271575,0.8785879162271575
0.8581788840642552,0.8581788840642552
0.784915691684606,0.784915691684606
0.7174088929919291,0.7174088929919291
0.6483321687482598,0.6483321687482598
0.5761155934026055,0.5761155934026055
0.4641275707651417,0.4641275707651417
0.36469895253561774,0.36469895253561774
0.28149289833301605,0.28149289833301605
0.22340565294629414,0.22340565294629414
0.14647930094766243,0.14647930094766243
0.08211235335697058,0.08211235335697058
0.014082246147296258,0.014082246147296258
-0.059180946232353,-0.059180946232353
-0.17587874552279434,-0.17587874552279434
-0.27059758709934084,-0.27059758709934084
-0.3082758003231605,-0.3082758003231605
-0.27059758709934084,-0.27059758709934084
-0.25123517197043355,-0.25123517197043355
-0.27059758709934084,-0.27059758709934084
-0.308799108840158,-0.308799108840158
-0.27059758709934084,-0.27059758709934084
-0.1884381499307342,-0.1884381499307342
-0.1293042875100173,-0.1293042875100173
-0.1795419051417768,-0.1795419051417768
-0.27059758709934084,-0.27059758709934084
-0.3401976198600077,-0.3401976198600077
-0.3412442368940027,-0.3412442368940027
-0.3386276943090152,-0.3386276943090152
-0.3412442368940027,-0.3412442368940027
-0.3579901094379225,-0.3579901094379225
-0.3412442368940027,-0.3412442368940027
-0.31455550252713044,-0.31455550252713044
-0.27059758709934084,-0.27059758709934084
-0.23972238459648867,-0.23972238459648867
-0.19995093730467908,-0.19995093730467908
-0.1884381499307342,-0.1884381499307342
-0.19995093730467908,-0.19995093730467908
-0.2470487038344536,-0.2470487038344536
-0.27059758709934084,-0.27059758709934084
-0.2794938318882983,-0.2794938318882983
-0.27059758709934084,-0.27059758709934084
-0.28106375743929074,-0.28106375743929074
-0.27059758709934084,-0.27059758709934084
-0.26484119341236845,-0.26484119341236845
-0.27059758709934084,-0.27059758709934084
-0.30094948108519554,-0.30094948108519554
-0.27059758709934084,-0.27059758709934084
-0.19419454361770663,-0.19419454361770663
-0.1293042875100173,-0.1293042875100173
-0.14081707488396217,-0.14081707488396217
-0.1293042875100173,-0.1293042875100173
-0.04766815885840812,-0.04766815885840812
0.08211235335697058,0.08211235335697058
0.16270186497458475,0.16270186497458475
0.22340565294629414,0.22340565294629414
0.28463274943500105,0.28463274943500105
0.36469895253561774,0.36469895253561774
0.4395320704662595,0.4395320704662595
0.5761155934026055,0.5761155934026055
0.7493307125287764,0.7493307125287764
0.8581788840642552,0.8581788840642552
0.7760194468956486,0.7760194468956486
0.5761155934026055,0.5761155934026055
0.38406136766452503,0.38406136766452503
0.29405230274095595,0.29405230274095595
0.25061769583016386,0.25061769583016386
0.22340565294629414,0.22340565294629414
0.16322517349158225,0.16322517349158225
0.08211235335697058,0.08211235335697058
-0.028305743729500815,-0.028305743729500815
-0.1293042875100173,-0.1293042875100173
-0.2763539807863133,-0.2763539807863133
-0.48253753648332626,-0.48253753648332626
-0.7243060713361688,-0.7243060713361688
-0.8352474769396376,-0.8352474769396376
-0.8169316788447254,-0.8169316788447254
-0.7646008271449759,-0.7646008271449759
-0.8237346895656927,-0.8237346895656927
-0.9058941267342995,-0.9058941267342995
-0.9362460207201542,-0.9362460207201542
-0.9058941267342995,-0.9058941267342995
-0.8865317116053921,-0.8865317116053921
-0.8352474769396376,-0.8352474769396376
-0.7766369230359182,-0.7766369230359182
-0.7646008271449759,-0.7646008271449759
-0.793382795579838,-0.793382795579838
-0.6939541773503141,-0.6939541773503141
-0.49876010051024855,-0.49876010051024855
-0.3412442368940027,-0.3412442368940027
-0.10784863831312001,-0.10784863831312001
0.6467622431972674,0.6467622431972674
1.9534636101400118,1.9534636101400118
3.3281950842924304,3.3281950842924304
4.4009775441372945,4.4009775441372945
5.303684735957973,5.303684735957973
5.87252109393425,5.87252109393425
5.4449780355472965,5.4449780355472965
3.767774238570326,3.767774238570326
1.7054153730831991,1.7054153730831991
0.21084624853835426,0.21084624853835426
-0.6233075275556523,-0.6233075275556523
-1.1869108003619542,-1.1869108003619542
-1.399374058262937,-1.399374058262937
-1.0791092458604703,-1.0791092458604703
-0.5526608777609905,-0.5526608777609905
-0.42183374851161687,-0.42183374851161687
-0.6939541773503141,-0.6939541773503141
-0.9399091803391366,-0.9399091803391366
-0.9058941267342995,-0.9058941267342995
-0.7886730189268606,-0.7886730189268606
-0.7646008271449759,-0.7646008271449759
-0.8436204132115976,-0.8436204132115976
-0.9058941267342995,-0.9058941267342995
-0.9336294781351667,-0.9336294781351667
-0.9058941267342995,-0.9058941267342995
-0.8750189242314472,-0.8750189242314472
-0.8352474769396376,-0.8352474769396376
-0.8362940939736326,-0.8362940939736326
-0.8352474769396376,-0.8352474769396376
-0.8289677747356677,-0.8289677747356677
-0.7646008271449759,-0.7646008271449759
-0.703373730656269,-0.703373730656269
-0.6939541773503141,-0.6939541773503141
-0.7525647312540336,-0.7525647312540336
-0.7646008271449759,-0.7646008271449759
-0.7049436562072615,-0.7049436562072615
-0.6233075275556523,-0.6233075275556523
-0.6008052613247601,-0.6008052613247601
-0.5526608777609905,-0.5526608777609905
-0.43072999330057427,-0.43072999330057427
-0.27059758709934084,-0.27059758709934084
-0.2166968098485989,-0.2166968098485989
-0.27059758709934084,-0.27059758709934084
-0.3674096627438774,-0.3674096627438774
-0.41189088668866447,-0.41189088668866447
-0.42759014219858926,-0.42759014219858926
-0.41189088668866447,-0.41189088668866447
-0.3731660564308498,-0.3731660564308498
-0.27059758709934084,-0.27059758709934084
-0.15337647929190204,-0.15337647929190204
-0.059180946232353,-0.059180946232353
-0.04609823330741564,-0.04609823330741564
-0.059180946232353,-0.059180946232353
-0.03667868000146073,-0.03667868000146073
0.08211235335697058,0.08211235335697058
0.21450940815733674,0.21450940815733674
0.29405230274095595,0.29405230274095595
0.3071350156658933,0.3071350156658933
0.36469895253561774,0.36469895253561774
0.47145389000310667,0.47145389000310667
0.5761155934026055,0.5761155934026055
0.6106539555244402,0.6106539555244402
0.6467622431972674,0.6467622431972674
0.6959532437950319,0.6959532437950319
0.7174088929919291,0.7174088929919291
0.6457156261632724,0.6457156261632724
0.5761155934026055,0.5761155934026055
0.5630328804776682,0.5630328804776682
0.5761155934026055,0.5761155934026055
0.49761931585298136,0.49761931585298136
0.36469895253561774,0.36469895253561774
0.25114100434716136,0.25114100434716136
0.22340565294629414,0.22340565294629414
0.22183572739530166,0.22183572739530166
0.22340565294629414,0.22340565294629414
0.17578457789952212,0.17578457789952212
0.08211235335697058,0.08211235335697058
-0.0701704250893004,-0.0701704250893004
-0.19995093730467908,-0.19995093730467908
-0.27426074671832334,-0.27426074671832334
-0.27059758709934084,-0.27059758709934084
-0.2658878104463634,-0.2658878104463634
-0.27059758709934084,-0.27059758709934084
-0.2894366937112507,-0.2894366937112507
-0.27059758709934084,-0.27059758709934084
-0.259084799725396,-0.259084799725396
-0.27059758709934084,-0.27059758709934084
-0.306705874772168,-0.306705874772168
-0.27059758709934084,-0.27059758709934084
-0.1863449158627442,-0.1863449158627442
-0.1293042875100173,-0.1293042875100173
-0.1879148414137367,-0.1879148414137367
-0.27059758709934084,-0.27059758709934084
-0.30408933218718054,-0.30408933218718054
-0.27059758709934084,-0.27059758709934084
-0.26222465082738095,-0.26222465082738095
-0.27059758709934084,-0.27059758709934084
-0.28472691705827324,-0.28472691705827324
-0.27059758709934084,-0.27059758709934084
-0.27269082116733084,-0.27269082116733084
-0.27059758709934084,-0.27059758709934084
-0.2784472148543033,-0.2784472148543033
-0.27059758709934084,-0.27059758709934084
-0.260131416759391,-0.260131416759391
-0.19995093730467908,-0.19995093730467908
-0.12354789382304485,-0.12354789382304485
-0.059180946232353,-0.059180946232353
-0.058134329198358016,-0.058134329198358016
-0.059180946232353,-0.059180946232353
-0.037201988518458226,-0.037201988518458226
0.011465703562308785,0.011465703562308785
0.0004762247053613954,0.0004762247053613954
-0.059180946232353,-0.059180946232353
-0.11203510644909997,-0.11203510644909997
-0.059180946232353,-0.059180946232353
0.05333038492210836,0.05333038492210836
0.15275900315163235,0.15275900315163235
0.18258758862048957,0.18258758862048957
0.22340565294629414,0.22340565294629414
0.29352899422395845,0.29352899422395845
0.36469895253561774,0.36469895253561774
0.36469895253561774,0.36469895253561774
0.36469895253561774,0.36469895253561774
0.4290659001263096,0.4290659001263096
0.5761155934026055,0.5761155934026055
0.690720158625057,0.690720158625057
0.7174088929919291,0.7174088929919291
0.632632913238335,0.632632913238335
0.5054689436079438,0.5054689436079438
0.37307188880757763,0.37307188880757763
0.29405230274095595,0.29405230274095595
0.23073197218425906,0.23073197218425906
0.15275900315163235,0.15275900315163235
0.014605554664293753,0.014605554664293753
-0.1293042875100173,-0.1293042875100173
-0.27530736375231835,-0.27530736375231835
-0.41189088668866447,-0.41189088668866447
-0.5756864525088803,-0.5756864525088803
-0.6939541773503141,-0.6939541773503141
-0.7625075930769859,-0.7625075930769859
-0.7646008271449759,-0.7646008271449759
-0.7734970719339332,-0.7734970719339332
-0.7646008271449759,-0.7646008271449759
-0.7646008271449759,-0.7646008271449759
-0.7646008271449759,-0.7646008271449759
-0.7646008271449759,-0.7646008271449759
-0.6939541773503141,-0.6939541773503141
-0.6180744423856773,-0.6180744423856773
-0.6233075275556523,-0.6233075275556523
-0.6939541773503141,-0.6939541773503141
-0.6233075275556523,-0.6233075275556523
-0.4265435251645943,-0.4265435251645943
-0.27059758709934084,-0.27059758709934084
-0.13453737267999225,-0.13453737267999225
0.36469895253561774,0.36469895253561774
1.335959560082968,1.335959560082968
2.481481903790484,2.481481903790484
3.5432748847784006,3.5432748847784006
4.59826485504535,4.59826485504535
5.366481757997672,5.366481757997672
5.162914744885647,5.162914744885647
3.7813802600122606,3.7813802600122606
2.058125313539511,2.058125313539511
0.788055542786591,0.788055542786591
-0.059180946232353,-0.059180946232353
-0.7891963274438581,-0.7891963274438581
-1.1173107676012872,-1.1173107676012872
-0.7918128700288456,-0.7918128700288456
-0.27059758709934084,-0.27059758709934084
-0.260131416759391,-0.260131416759391
-0.6939541773503141,-0.6939541773503141
-1.0346280219156831,-1.0346280219156831
-1.0466641178066256,-1.0466641178066256
-0.9849137128009212,-0.9849137128009212
-0.9760174680119638,-0.9760174680119638
-0.9671212232230063,-0.9671212232230063
-0.9058941267342995,-0.9058941267342995
-0.8922881052923646,-0.8922881052923646
-0.9058941267342995,-0.9058941267342995
-0.9043242011833069,-0.9043242011833069
-0.8352474769396376,-0.8352474769396376
-0.7687872952809558,-0.7687872952809558
-0.6939541773503141,-0.6939541773503141
-0.6510428789565196,-0.6510428789565196
-0.6233075275556523,-0.6233075275556523
-0.6322037723446097,-0.6322037723446097
-0.6233075275556523,-0.6233075275556523
-0.5992353357737675,-0.5992353357737675
-0.5526608777609905,-0.5526608777609905
-0.5244022178431258,-0.5244022178431258
-0.48253753648332626,-0.48253753648332626
-0.42759014219858926,-0.42759014219858926
-0.3412442368940027,-0.3412442368940027
-0.2857735340922682,-0.2857735340922682
-0.27059758709934084,-0.27059758709934084
-0.29309985333023314,-0.29309985333023314
-0.27059758709934084,-0.27059758709934084
-0.20884718209363648,-0.20884718209363648
-0.1293042875100173,-0.1293042875100173
-0.09214938280319517,-0.09214938280319517
-0.059180946232353,-0.059180946232353
-0.02882905224649831,-0.02882905224649831
0.011465703562308785,0.011465703562308785
0.032398044242208573,0.032398044242208573
0.08211235335697058,0.08211235335697058
0.1485725350156524,0.1485725350156524
0.22340565294629414,0.22340565294629414
0.27364327057805365,0.27364327057805365
0.36469895253561774,0.36469895253561774
0.48087344330906157,0.48087344330906157
0.5761155934026055,0.5761155934026055
0.582918604123573,0.582918604123573
0.5761155934026055,0.5761155934026055
0.5954780085315129,0.5954780085315129
0.6467622431972674,0.6467622431972674
0.6718810520131471,0.6718810520131471
0.7174088929919291,0.7174088929919291
0.785962308718601,0.785962308718601
0.8581788840642552,0.8581788840642552
0.8681217458872076,0.8681217458872076
0.8581788840642552,0.8581788840642552
0.8341066922823704,0.8341066922823704
0.788055542786591,0.788055542786591
0.6765908286661245,0.6765908286661245
0.5761155934026055,0.5761155934026055
0.5201215820838736,0.5201215820838736
0.5054689436079438,0.5054689436079438
0.44738169822122187,0.44738169822122187
0.36469895253561774,0.36469895253561774
0.2762598131630411,0.2762598131630411
0.22340565294629414,0.22340565294629414
0.15537554573661982,0.15537554573661982
0.08211235335697058,0.08211235335697058
-0.002663626396623573,-0.002663626396623573
-0.059180946232353,-0.059180946232353
-0.12721105344202732,-0.12721105344202732
-0.19995093730467908,-0.19995093730467908
-0.27216751265033334,-0.27216751265033334
-0.27059758709934084,-0.27059758709934084
-0.22977952277353628,-0.22977952277353628
-0.19995093730467908,-0.19995093730467908
-0.24076900163048368,-0.24076900163048368
-0.27059758709934084,-0.27059758709934084
-0.255944948623411,-0.255944948623411
-0.19995093730467908,-0.19995093730467908
-0.1868682243797417,-0.1868682243797417
-0.19995093730467908,-0.19995093730467908
-0.24024569311348618,-0.24024569311348618
-0.27059758709934084,-0.27059758709934084
-0.28106375743929074,-0.28106375743929074
-0.19995093730467908,-0.19995093730467908
-0.09214938280319517,-0.09214938280319517
-0.059180946232353,-0.059180946232353
-0.16488926666584694,-0.16488926666584694
-0.27059758709934084,-0.27059758709934084
-0.2978096299832106,-0.2978096299832106
-0.27059758709934084,-0.27059758709934084
-0.30199609811919054,-0.30199609811919054
-0.3412442368940027,-0.3412442368940027
-0.33444122617303523,-0.33444122617303523
-0.27059758709934084,-0.27059758709934084
-0.25228178900442855,-0.25228178900442855
-0.27059758709934084,-0.27059758709934084
-0.29362316184723064,-0.29362316184723064
-0.27059758709934084,-0.27059758709934084
-0.26222465082738095,-0.26222465082738095
-0.27059758709934084,-0.27059758709934084
-0.2774005978203083,-0.2774005978203083
-0.19995093730467908,-0.19995093730467908
-0.06493733991932545,-0.06493733991932545
0.08211235335697058,0.08211235335697058
0.16636502459356722,0.16636502459356722
0.22340565294629414,0.22340565294629414
0.2788763557480286,0.2788763557480286
0.36469895253561774,0.36469895253561774
0.433775676779287,0.433775676779287
0.5054689436079438,0.5054689436079438
0.5907682318785354,0.5907682318785354
0.7174088929919291,0.7174088929919291
0.8016615642285259,0.8016615642285259
0.788055542786591,0.788055542786591
0.6540885624352323,0.6540885624352323
0.5054689436079438,0.5054689436079438
0.4023771657594373,0.4023771657594373
0.36469895253561774,0.36469895253561774
0.31132148380187324,0.31132148380187324
0.22340565294629414,0.22340565294629414
0.08682213000994803,0.08682213000994803
-0.059180946232353,-0.059180946232353
-0.2365825334945037,-0.2365825334945037
-0.41189088668866447,-0.41189088668866447
-0.5673135162369204,-0.5673135162369204
-0.6233075275556523,-0.6233075275556523
-0.6280173042086298,-0.6280173042086298
-0.6233075275556523,-0.6233075275556523
-0.6929075603163191,-0.6929075603163191
-0.7646008271449759,-0.7646008271449759
-0.7980925722328156,-0.7980925722328156
-0.7646008271449759,-0.7646008271449759
-0.7290158479891462,-0.7290158479891462
-0.6939541773503141,-0.6939541773503141
-0.709653432860239,-0.709653432860239
-0.7646008271449759,-0.7646008271449759
-0.801755731851798,-0.801755731851798
-0.6939541773503141,-0.6939541773503141
-0.5437646329720331,-0.5437646329720331
-0.48253753648332626,-0.48253753648332626
-0.3695028968118674,-0.3695028968118674
0.22340565294629414,0.22340565294629414
1.3124106768180805,1.3124106768180805
2.481481903790484,2.481481903790484
3.4679184583307614,3.4679184583307614
4.456971555456026,4.456971555456026
5.259203512013186,5.259203512013186
5.162914744885647,5.162914744885647
3.8593532290448875,3.8593532290448875
2.1287719633341724,2.1287719633341724
0.8095111919834882,0.8095111919834882
-0.059180946232353,-0.059180946232353
-0.7792534656209057,-0.7792534656209057
-1.1173107676012872,-1.1173107676012872
-0.8383873280416226,-0.8383873280416226
-0.3412442368940027,-0.3412442368940027
-0.26327126786137595,-0.26327126786137595
-0.5526608777609905,-0.5526608777609905
-0.7708805293489458,-0.7708805293489458
-0.7646008271449759,-0.7646008271449759
-0.7714038378659434,-0.7714038378659434
-0.8352474769396376,-0.8352474769396376
-0.8446670302455925,-0.8446670302455925
-0.7646008271449759,-0.7646008271449759
-0.7405286353630911,-0.7405286353630911
-0.7646008271449759,-0.7646008271449759
-0.7703572208319484,-0.7703572208319484
-0.6939541773503141,-0.6939541773503141
-0.6390067830655771,-0.6390067830655771
-0.6233075275556523,-0.6233075275556523
-0.6468564108205396,-0.6468564108205396
-0.6233075275556523,-0.6233075275556523
-0.5830127717468452,-0.5830127717468452
-0.5526608777609905,-0.5526608777609905
-0.5683601332709154,-0.5683601332709154
-0.5526608777609905,-0.5526608777609905
-0.4940503238572711,-0.4940503238572711
-0.41189088668866447,-0.41189088668866447
-0.3757825990158373,-0.3757825990158373
-0.3412442368940027,-0.3412442368940027
-0.30408933218718054,-0.30408933218718054
-0.27059758709934084,-0.27059758709934084
-0.28315699150728074,-0.28315699150728074
-0.27059758709934084,-0.27059758709934084
-0.21355695874661396,-0.21355695874661396
-0.1293042875100173,-0.1293042875100173
-0.09319599983719017,-0.09319599983719017
-0.059180946232353,-0.059180946232353
-0.0047568604646135515,-0.0047568604646135515
0.08211235335697058,0.08211235335697058
0.14700260946465993,0.14700260946465993
0.22340565294629414,0.22340565294629414
0.2977154623599384,0.2977154623599384
0.36469895253561774,0.36469895253561774
0.388247835800505,0.388247835800505
0.434822293813282,0.434822293813282
0.5059922521249413,0.5059922521249413
0.5761155934026055,0.5761155934026055
0.5803020615385855,0.5803020615385855
0.5761155934026055,0.5761155934026055
0.5939080829805204,0.5939080829805204
0.6467622431972674,0.6467622431972674
0.6765908286661245,0.6765908286661245
0.7174088929919291,0.7174088929919291
0.7770660639296436,0.7770660639296436
0.8581788840642552,0.8581788840642552
0.8843443099141299,0.8843443099141299
0.8581788840642552,0.8581788840642552
0.7854390002016035,0.7854390002016035
0.7174088929919291,0.7174088929919291
0.6420524665442899,0.6420524665442899
0.5761155934026055,0.5761155934026055
0.47773359220707656,0.47773359220707656
0.36469895253561774,0.36469895253561774
0.25375754693214886,0.25375754693214886
0.22340565294629414,0.22340565294629414
0.23387182328624403,0.23387182328624403
0.22340565294629414,0.22340565294629414
0.12345372619977266,0.12345372619977266
0.011465703562308785,0.011465703562308785
-0.07592681877627283,-0.07592681877627283
-0.1293042875100173,-0.1293042875100173
-0.20884718209363648,-0.20884718209363648
-0.27059758709934084,-0.27059758709934084
-0.29571639591522064,-0.29571639591522064
-0.27059758709934084,-0.27059758709934084
-0.2664111189633609,-0.2664111189633609
-0.27059758709934084,-0.27059758709934084
-0.28368030002427824,-0.28368030002427824
-0.27059758709934084,-0.27059758709934084
-0.27164420413333584,-0.27164420413333584
-0.27059758709934084,-0.27059758709934084
-0.2805404489222933,-0.2805404489222933
-0.27059758709934084,-0.27059758709934084
-0.27112089561633834,-0.27112089561633834
-0.27059758709934084,-0.27059758709934084
-0.30199609811919054,-0.30199609811919054
-0.3412442368940027,-0.3412442368940027
-0.3930517800767546,-0.3930517800767546
-0.41189088668866447,-0.41189088668866447
-0.42131043999461937,-0.42131043999461937
-0.41189088668866447,-0.41189088668866447
-0.39880817376372707,-0.39880817376372707
-0.3412442368940027,-0.3412442368940027
-0.2878667681602582,-0.2878667681602582
-0.27059758709934084,-0.27059758709934084
-0.3182186621461129,-0.3182186621461129
-0.3412442368940027,-0.3412442368940027
-0.3187419706631104,-0.3187419706631104
-0.27059758709934084,-0.27059758709934084
-0.2878667681602582,-0.2878667681602582
-0.3412442368940027,-0.3412442368940027
-0.3810156841858123,-0.3810156841858123
-0.3412442368940027,-0.3412442368940027
-0.27478405523532085,-0.27478405523532085
-0.19995093730467908,-0.19995093730467908
-0.12302458530604736,-0.12302458530604736
0.011465703562308785,0.011465703562308785
0.14700260946465993,0.14700260946465993
0.22340565294629414,0.22340565294629414
0.21136955705535176,0.21136955705535176
0.22340565294629414,0.22340565294629414
0.30399516456390835,0.30399516456390835
0.434822293813282,0.434822293813282
0.540530614246776,0.540530614246776
0.6467622431972674,0.6467622431972674
0.7252585207468916,0.7252585207468916
0.7174088929919291,0.7174088929919291
0.5604163378926807,0.5604163378926807
0.36469895253561774,0.36469895253561774
0.22235903591229916,0.22235903591229916
0.15275900315163235,0.15275900315163235
0.05856347009208331,0.05856347009208331
-0.059180946232353,-0.059180946232353
-0.1800652136587743,-0.1800652136587743
-0.27059758709934084,-0.27059758709934084
-0.3961916311787396,-0.3961916311787396
-0.5526608777609905,-0.5526608777609905
-0.7295391565061438,-0.7295391565061438
-0.8352474769396376,-0.8352474769396376
-0.8922881052923646,-0.8922881052923646
-0.9058941267342995,-0.9058941267342995
-0.9231633077952168,-0.9231633077952168
-0.9058941267342995,-0.9058941267342995
-0.8943813393603546,-0.8943813393603546
-0.9058941267342995,-0.9058941267342995
-0.9414791058901291,-0.9414791058901291
-0.9058941267342995,-0.9058941267342995
-0.8216414554977028,-0.8216414554977028
-0.7646008271449759,-0.7646008271449759
-0.7897196359608556,-0.7897196359608556
-0.7646008271449759,-0.7646008271449759
-0.6290639212426248,-0.6290639212426248
-0.41189088668866447,-0.41189088668866447
-0.1303509045440123,-0.1303509045440123
0.434822293813282,0.434822293813282
1.428061859074527,1.428061859074527
2.6928985446574716,2.6928985446574716
3.760447919332361,3.760447919332361
4.2455549145890386,4.2455549145890386
3.9634916239273887,3.9634916239273887
3.0461317936307806,3.0461317936307806
1.8294394916116055,1.8294394916116055
0.7174088929919291,0.7174088929919291
-0.1962877776856966,-0.1962877776856966
-0.9760174680119638,-0.9760174680119638
-1.5343876556482907,-1.5343876556482907
-1.5406673578522605,-1.5406673578522605
-1.0231152345417382,-1.0231152345417382
-0.48253753648332626,-0.48253753648332626
-0.3940983971107496,-0.3940983971107496
-0.6233075275556523,-0.6233075275556523
-0.810128668123758,-0.810128668123758
-0.8352474769396376,-0.8352474769396376
-0.8661226794424899,-0.8661226794424899
-0.9058941267342995,-0.9058941267342995
-0.8734489986804548,-0.8734489986804548
-0.7646008271449759,-0.7646008271449759
-0.7300624650231412,-0.7300624650231412
-0.7646008271449759,-0.7646008271449759
-0.800709114817803,-0.800709114817803
-0.7646008271449759,-0.7646008271449759
-0.7483782631180536,-0.7483782631180536
-0.7646008271449759,-0.7646008271449759
-0.7991391892668105,-0.7991391892668105
-0.7646008271449759,-0.7646008271449759
-0.6918609432823242,-0.6918609432823242
-0.6233075275556523,-0.6233075275556523
-0.6185977509026749,-0.6185977509026749
-0.6233075275556523,-0.6233075275556523
-0.6107481231477124,-0.6107481231477124
-0.5526608777609905,-0.5526608777609905
-0.4940503238572711,-0.4940503238572711
-0.41189088668866447,-0.41189088668866447
-0.33339460913904023,-0.33339460913904023
-0.27059758709934084,-0.27059758709934084
-0.2700742785823434,-0.2700742785823434
-0.27059758709934084,-0.27059758709934084
-0.23396599090951622,-0.23396599090951622
-0.1293042875100173,-0.1293042875100173
-0.0398185311034457,-0.0398185311034457
0.011465703562308785,0.011465703562308785
0.026118342038238637,0.026118342038238637
0.08211235335697058,0.08211235335697058
0.15537554573661982,0.15537554573661982
0.22340565294629414,0.22340565294629414
0.2663169513400887,0.2663169513400887
0.36469895253561774,0.36469895253561774
0.49029299661501646,0.49029299661501646
0.5761155934026055,0.5761155934026055
0.5677426571306456,0.5677426571306456
0.5761155934026055,0.5761155934026055
0.6415291580272924,0.6415291580272924
0.7174088929919291,0.7174088929919291
0.7158389674409367,0.7158389674409367
0.7174088929919291,0.7174088929919291
0.7728795957936636,0.7728795957936636
0.8581788840642552,0.8581788840642552
0.8723082140231876,0.8723082140231876
0.8581788840642552,0.8581788840642552
0.8534691074112778,0.8534691074112778
0.8581788840642552,0.8581788840642552
0.7979984046095433,0.7979984046095433
0.7174088929919291,0.7174088929919291
0.6420524665442899,0.6420524665442899
0.5761155934026055,0.5761155934026055
0.44738169822122187,0.44738169822122187
0.29405230274095595,0.29405230274095595
0.15537554573661982,0.15537554573661982
0.08211235335697058,0.08211235335697058
0.03344466127620356,0.03344466127620356
0.011465703562308785,0.011465703562308785
-0.022549350042528372,-0.022549350042528372
-0.059180946232353,-0.059180946232353
-0.11203510644909997,-0.11203510644909997
-0.1293042875100173,-0.1293042875100173
-0.13139752157800727,-0.13139752157800727
-0.1293042875100173,-0.1293042875100173
-0.17169227738681436,-0.17169227738681436
-0.19995093730467908,-0.19995093730467908
-0.19210130954971666,-0.19210130954971666
-0.1293042875100173,-0.1293042875100173
-0.10104562759215258,-0.10104562759215258
-0.1293042875100173,-0.1293042875100173
-0.21565019281460393,-0.21565019281460393
-0.27059758709934084,-0.27059758709934084
-0.2878667681602582,-0.2878667681602582
-0.27059758709934084,-0.27059758709934084
-0.27373743820132584,-0.27373743820132584
-0.27059758709934084,-0.27059758709934084
-0.27530736375231835,-0.27530736375231835
-0.27059758709934084,-0.27059758709934084
-0.28263368299028324,-0.28263368299028324
-0.27059758709934084,-0.27059758709934084
-0.26274795934437845,-0.26274795934437845
-0.27059758709934084,-0.27059758709934084
-0.32188182176509533,-0.32188182176509533
-0.3412442368940027,-0.3412442368940027
-0.3176953536291154,-0.3176953536291154
-0.27059758709934084,-0.27059758709934084
-0.2883900766772557,-0.2883900766772557
-0.3412442368940027,-0.3412442368940027
-0.39828486524672957,-0.39828486524672957
-0.41189088668866447,-0.41189088668866447
-0.42183374851161687,-0.42183374851161687
-0.41189088668866447,-0.41189088668866447
-0.3794457586348198,-0.3794457586348198
-0.27059758709934084,-0.27059758709934084
-0.1083719468301175,-0.1083719468301175
0.08211235335697058,0.08211235335697058
0.20299662078339184,0.20299662078339184
0.22340565294629414,0.22340565294629414
0.14595599243066493,0.14595599243066493
0.08211235335697058,0.08211235335697058
0.09624168331590292,0.09624168331590292
0.22340565294629414,0.22340565294629414
0.39505084652147243,0.39505084652147243
0.5761155934026055,0.5761155934026055
0.7111291907879592,0.7111291907879592
0.788055542786591,0.788055542786591
0.7399111592228215,0.7399111592228215
0.5761155934026055,0.5761155934026055
0.3563260162636578,0.3563260162636578
0.22340565294629414,0.22340565294629414
0.18520413120547702,0.18520413120547702
0.15275900315163235,0.15275900315163235
-0.012606488219575973,-0.012606488219575973
-0.27059758709934084,-0.27059758709934084
-0.5144593560201735,-0.5144593560201735
-0.6233075275556523,-0.6233075275556523
-0.6416233256505647,-0.6416233256505647
-0.6233075275556523,-0.6233075275556523
-0.6730218366704143,-0.6730218366704143
-0.7646008271449759,-0.7646008271449759
-0.8755422327484448,-0.8755422327484448
-0.9058941267342995,-0.9058941267342995
-0.8765888497824398,-0.8765888497824398
-0.8352474769396376,-0.8352474769396376
-0.8572264346535324,-0.8572264346535324
-0.9058941267342995,-0.9058941267342995
-0.9754941594949662,-0.9754941594949662
-1.0466641178066256,-1.0466641178066256
-1.1026581291253574,-1.1026581291253574
-1.0466641178066256,-1.0466641178066256
-0.9357227122031566,-0.9357227122031566
-0.8352474769396376,-0.8352474769396376
-0.6442398682355521,-0.6442398682355521
-0.059180946232353,-0.059180946232353
0.9162661294509772,0.9162661294509772
1.987478663744849,1.987478663744849
2.966065590530164,2.966065590530164
3.9629683154103916,3.9629683154103916
4.754734101627601,4.754734101627601
4.739558154634674,4.739558154634674
3.664159152204822,3.664159152204822
2.1287719633341724,2.1287719633341724
0.7519472551137638,0.7519472551137638
-0.41189088668866447,-0.41189088668866447
-1.4558913780986664,-1.4558913780986664
-1.9640239481032338,-1.9640239481032338
-1.6196869439188823,-1.6196869439188823
-0.8352474769396376,-0.8352474769396376
-0.4134608122396569,-0.4134608122396569
-0.5526608777609905,-0.5526608777609905
-0.8802520094014222,-0.8802520094014222
-1.0466641178066256,-1.0466641178066256
-1.0953318098873925,-1.0953318098873925
-1.1173107676012872,-1.1173107676012872
-1.1392897253151821,-1.1392897253151821
-1.1173107676012872,-1.1173107676012872
-1.0900987247174176,-1.0900987247174176
-1.0466641178066256,-1.0466641178066256
-1.0173588408547658,-1.0173588408547658
-0.9760174680119638,-0.9760174680119638
-0.952991893264074,-0.952991893264074
-0.9058941267342995,-0.9058941267342995
-0.8718790731294623,-0.8718790731294623
-0.8352474769396376,-0.8352474769396376
-0.8137918277427404,-0.8137918277427404
-0.7646008271449759,-0.7646008271449759
-0.7018038051052765,-0.7018038051052765
-0.6233075275556523,-0.6233075275556523
-0.5767330695428753,-0.5767330695428753
-0.5526608777609905,-0.5526608777609905
-0.5610338140329504,-0.5610338140329504
-0.5526608777609905,-0.5526608777609905
-0.5348683881830757,-0.5348683881830757
-0.48253753648332626,-0.48253753648332626
-0.42131043999461937,-0.42131043999461937
-0.3412442368940027,-0.3412442368940027
-0.29100661926224314,-0.29100661926224314
-0.27059758709934084,-0.27059758709934084
-0.2894366937112507,-0.2894366937112507
-0.27059758709934084,-0.27059758709934084
-0.19419454361770663,-0.19419454361770663
-0.059180946232353,-0.059180946232353
0.041294289031165984,0.041294289031165984
0.08211235335697058,0.08211235335697058
0.06693640636404323,0.06693640636404323
0.08211235335697058,0.08211235335697058
0.13705974764170753,0.13705974764170753
0.22340565294629414,0.22340565294629414
0.2684101854080787,0.2684101854080787
0.29405230274095595,0.29405230274095595
0.33120720744777804,0.33120720744777804
0.434822293813282,0.434822293813282
0.5342509120428061,0.5342509120428061
0.5761155934026055,0.5761155934026055
0.5509967845867259,0.5509967845867259
0.5761155934026055,0.5761155934026055
0.6744975945981346,0.6744975945981346
0.788055542786591,0.788055542786591
0.7932886279565659,0.7932886279565659
0.7174088929919291,0.7174088929919291
0.6232133599323801,0.6232133599323801
0.5761155934026055,0.5761155934026055
0.5195982735668762,0.5195982735668762
0.434822293813282,0.434822293813282
0.31498464342085575,0.31498464342085575
0.22340565294629414,0.22340565294629414
0.1475259179816574,0.1475259179816574
0.08211235335697058,0.08211235335697058
-0.02202604152553088,-0.02202604152553088
-0.1293042875100173,-0.1293042875100173
-0.2266396716715513,-0.2266396716715513
-0.27059758709934084,-0.27059758709934084
-0.30513594922117554,-0.30513594922117554
-0.3412442368940027,-0.3412442368940027
-0.4160773548246444,-0.4160773548246444
-0.48253753648332626,-0.48253753648332626
-0.5186458241561533,-0.5186458241561533
-0.48253753648332626,-0.48253753648332626
-0.4343931529195567,-0.4343931529195567
-0.41189088668866447,-0.41189088668866447
-0.45113902546347656,-0.45113902546347656
-0.48253753648332626,-0.48253753648332626
-0.4945736323742686,-0.4945736323742686
-0.48253753648332626,-0.48253753648332626
-0.49143378127228365,-0.49143378127228365
-0.48253753648332626,-0.48253753648332626
-0.4563721106334515,-0.4563721106334515
-0.41189088668866447,-0.41189088668866447
-0.4056111844846945,-0.4056111844846945
-0.41189088668866447,-0.41189088668866447
-0.4244502910966043,-0.4244502910966043
-0.41189088668866447,-0.41189088668866447
-0.4129375037226594,-0.4129375037226594
-0.41189088668866447,-0.41189088668866447
-0.42078713147762187,-0.42078713147762187
-0.41189088668866447,-0.41189088668866447
-0.4155540463076469,-0.4155540463076469
-0.41189088668866447,-0.41189088668866447
-0.41921720592662937,-0.41921720592662937
-0.41189088668866447,-0.41189088668866447
-0.4155540463076469,-0.4155540463076469
-0.41189088668866447,-0.41189088668866447
-0.4228803655456118,-0.4228803655456118
-0.41189088668866447,-0.41189088668866447
-0.3710728223628599,-0.3710728223628599
-0.27059758709934084,-0.27059758709934084
-0.17901859662477929,-0.17901859662477929
-0.1293042875100173,-0.1293042875100173
-0.12250127678904986,-0.12250127678904986
-0.059180946232353,-0.059180946232353
0.05228376788811337,0.05228376788811337
0.15275900315163235,0.15275900315163235
0.1789244290015071,0.1789244290015071
0.22340565294629414,0.22340565294629414
0.338533526685743,0.338533526685743
0.5054689436079438,0.5054689436079438
0.6101306470074428,0.6101306470074428
0.6467622431972674,0.6467622431972674
0.6268765195513626,0.6268765195513626
0.5761155934026055,0.5761155934026055
0.45104485784020437,0.45104485784020437
0.29405230274095595,0.29405230274095595
0.15171238611763738,0.15171238611763738
0.08211235335697058,0.08211235335697058
0.02559503352124114,0.02559503352124114
-0.059180946232353,-0.059180946232353
-0.20152086285567156,-0.20152086285567156
-0.3412442368940027,-0.3412442368940027
-0.4867240046193062,-0.4867240046193062
-0.6233075275556523,-0.6233075275556523
-0.7698339123149508,-0.7698339123149508
-0.8352474769396376,-0.8352474769396376
-0.8247813065996877,-0.8247813065996877
-0.7646008271449759,-0.7646008271449759
-0.754134656805026,-0.754134656805026
-0.7646008271449759,-0.7646008271449759
-0.7588444334580035,-0.7588444334580035
-0.6939541773503141,-0.6939541773503141
-0.6588925067114819,-0.6588925067114819
-0.6939541773503141,-0.6939541773503141
-0.7734970719339332,-0.7734970719339332
-0.7646008271449759,-0.7646008271449759
-0.6934308688333166,-0.6934308688333166
-0.6233075275556523,-0.6233075275556523
-0.5155059730541683,-0.5155059730541683
-0.1293042875100173,-0.1293042875100173
0.585011838191563,0.585011838191563
1.4934754236992138,1.4934754236992138
2.492471382647431,2.492471382647431
3.6102583749540798,3.6102583749540798
4.5077324816047835,4.5077324816047835
4.59826485504535,4.59826485504535
3.7196298550065565,3.7196298550065565
2.481481903790484,2.481481903790484
1.4045129758096397,1.4045129758096397
0.434822293813282,0.434822293813282
-0.5673135162369204,-0.5673135162369204
-1.187957417395949,-1.187957417395949
-1.0759693947584852,-1.0759693947584852
-0.5526608777609905,-0.5526608777609905
-0.2904833107452457,-0.2904833107452457
-0.41189088668866447,-0.41189088668866447
-0.6133646657326999,-0.6133646657326999
-0.6939541773503141,-0.6939541773503141
-0.7635542101109809,-0.7635542101109809
-0.8352474769396376,-0.8352474769396376
-0.8425737961776026,-0.8425737961776026
-0.7646008271449759,-0.7646008271449759
-0.7337256246421237,-0.7337256246421237
-0.7646008271449759,-0.7646008271449759
-0.8075121255387705,-0.8075121255387705
-0.7646008271449759,-0.7646008271449759
-0.6892444006973366,-0.6892444006973366
-0.6233075275556523,-0.6233075275556523
-0.6437165597185546,-0.6437165597185546
-0.6939541773503141,-0.6939541773503141
-0.7342489331591212,-0.7342489331591212
-0.6939541773503141,-0.6939541773503141
-0.60289849539275,-0.60289849539275
-0.48253753648332626,-0.48253753648332626
-0.4134608122396569,-0.4134608122396569
-0.41189088668866447,-0.41189088668866447
-0.47207136614337636,-0.47207136614337636
-0.48253753648332626,-0.48253753648332626
-0.41032096113767197,-0.41032096113767197
-0.27059758709934084,-0.27059758709934084
-0.17221558590381186,-0.17221558590381186
-0.1293042875100173,-0.1293042875100173
-0.13506068119698975,-0.13506068119698975
-0.1293042875100173,-0.1293042875100173
-0.13349075564599724,-0.13349075564599724
-0.1293042875100173,-0.1293042875100173
-0.12250127678904986,-0.12250127678904986
-0.059180946232353,-0.059180946232353
0.039201054963176,0.039201054963176
0.15275900315163235,0.15275900315163235
0.2082297059533668,0.2082297059533668
0.22340565294629414,0.22340565294629414
0.22863873811626909,0.22863873811626909
0.29405230274095595,0.29405230274095595
0.37254858029058013,0.37254858029058013
0.434822293813282,0.434822293813282
0.4751170496220891,0.4751170496220891
0.5761155934026055,0.5761155934026055
0.6870569990060744,0.6870569990060744
0.7174088929919291,0.7174088929919291
0.626353211034365,0.626353211034365
0.5761155934026055,0.5761155934026055
0.6483321687482598,0.6483321687482598
0.788055542786591,0.788055542786591
0.8487593307583003,0.8487593307583003
0.8581788840642552,0.8581788840642552
0.8597488096152477,0.8597488096152477
0.8581788840642552,0.8581788840642552
0.7728795957936636,0.7728795957936636
0.6467622431972674,0.6467622431972674
0.5243080502198536,0.5243080502198536
0.434822293813282,0.434822293813282
0.32231096265882064,0.32231096265882064
0.22340565294629414,0.22340565294629414
0.1595620138725998,0.1595620138725998
0.15275900315163235,0.15275900315163235
0.1286868113697476,0.1286868113697476
0.08211235335697058,0.08211235335697058
0.0025694587733513744,0.0025694587733513744
-0.059180946232353,-0.059180946232353
-0.11098848941510497,-0.11098848941510497
-0.1293042875100173,-0.1293042875100173
-0.160702798529867,-0.160702798529867
-0.19995093730467908,-0.19995093730467908
-0.2564682571404085,-0.2564682571404085
-0.27059758709934084,-0.27059758709934084
-0.27112089561633834,-0.27112089561633834
-0.27059758709934084,-0.27059758709934084
-0.29362316184723064,-0.29362316184723064
-0.27059758709934084,-0.27059758709934084
-0.22559305463755633,-0.22559305463755633
-0.19995093730467908,-0.19995093730467908
-0.24547877828346112,-0.24547877828346112
-0.27059758709934084,-0.27059758709934084
-0.2470487038344536,-0.2470487038344536
-0.19995093730467908,-0.19995093730467908
-0.22349982056956635,-0.22349982056956635
-0.27059758709934084,-0.27059758709934084
-0.2967630129492156,-0.2967630129492156
-0.27059758709934084,-0.27059758709934084
-0.26431788489537095,-0.26431788489537095
-0.27059758709934084,-0.27059758709934084
-0.2862968426092657,-0.2862968426092657
-0.27059758709934084,-0.27059758709934084
-0.2685043530313509,-0.2685043530313509
-0.27059758709934084,-0.27059758709934084
-0.28525022557527074,-0.28525022557527074
-0.27059758709934084,-0.27059758709934084
-0.26484119341236845,-0.26484119341236845
-0.27059758709934084,-0.27059758709934084
-0.2972863214662131,-0.2972863214662131
-0.27059758709934084,-0.27059758709934084
-0.18948476696472918,-0.18948476696472918
-0.059180946232353,-0.059180946232353
0.07059956598302569,0.07059956598302569
0.22340565294629414,0.22340565294629414
0.3594658673656428,0.3594658673656428
0.434822293813282,0.434822293813282
0.4023771657594373,0.4023771657594373
0.36469895253561774,0.36469895253561774
0.4123200275823897,0.4123200275823897
0.5761155934026055,0.5761155934026055
0.7294449888828716,0.7294449888828716
0.788055542786591,0.788055542786591
0.7100825737539642,0.7100825737539642
0.5761155934026055,0.5761155934026055
0.4416253045342494,0.4416253045342494
0.36469895253561774,0.36469895253561774
0.2987620793939334,0.2987620793939334
0.22340565294629414,0.22340565294629414
0.11194093882582777,0.11194093882582777
0.011465703562308785,0.011465703562308785
-0.11046518089810749,-0.11046518089810749
-0.27059758709934084,-0.27059758709934084
-0.47939768538134125,-0.47939768538134125
-0.6233075275556523,-0.6233075275556523
-0.6876744751463442,-0.6876744751463442
-0.6939541773503141,-0.6939541773503141
-0.7373887842611062,-0.7373887842611062
-0.7646008271449759,-0.7646008271449759
-0.7536113482880284,-0.7536113482880284
-0.6939541773503141,-0.6939541773503141
-0.6562759641264945,-0.6562759641264945
-0.6233075275556523,-0.6233075275556523
-0.6133646657326999,-0.6133646657326999
-0.6233075275556523,-0.6233075275556523
-0.6599391237454769,-0.6599391237454769
-0.6233075275556523,-0.6233075275556523
-0.5254488348771208,-0.5254488348771208
-0.41189088668866447,-0.41189088668866447
-0.27426074671832334,-0.27426074671832334
0.08211235335697058,0.08211235335697058
0.7184555100259241,0.7184555100259241
1.5641220734938757,1.5641220734938757
2.533812755490233,2.533812755490233
3.6102583749540798,3.6102583749540798
4.4344692892251345,4.4344692892251345
4.456971555456026,4.456971555456026
3.5228658526154986,3.5228658526154986
2.198895304611837,2.198895304611837
1.0308706946734285,1.0308706946734285
0.08211235335697058,0.08211235335697058
-0.7483782631180536,-0.7483782631180536
-1.187957417395949,-1.187957417395949
-1.050327277425608,-1.050327277425608
-0.6233075275556523,-0.6233075275556523
-0.3951450141447446,-0.3951450141447446
-0.41189088668866447,-0.41189088668866447
-0.5113195049181884,-0.5113195049181884
-0.6233075275556523,-0.6233075275556523
-0.7462850290500636,-0.7462850290500636
-0.6939541773503141,-0.6939541773503141
-0.48253753648332626,-0.48253753648332626
-0.41189088668866447,-0.41189088668866447
-0.703373730656269,-0.703373730656269
-1.0466641178066256,-1.0466641178066256
-1.1042280546763499,-1.1042280546763499
-0.9058941267342995,-0.9058941267342995
-0.7813466996888957,-0.7813466996888957
-0.7646008271449759,-0.7646008271449759
-0.7358188587101137,-0.7358188587101137
-0.6233075275556523,-0.6233075275556523
-0.5589405799649605,-0.5589405799649605
-0.5526608777609905,-0.5526608777609905
-0.5484744096250106,-0.5484744096250106
-0.48253753648332626,-0.48253753648332626
-0.42863675923258426,-0.42863675923258426
-0.41189088668866447,-0.41189088668866447
-0.4322999188515667,-0.4322999188515667
-0.41189088668866447,-0.41189088668866447
-0.35537356685293503,-0.35537356685293503
-0.27059758709934084,-0.27059758709934084
-0.22402312908656383,-0.22402312908656383
-0.19995093730467908,-0.19995093730467908
-0.1868682243797417,-0.1868682243797417
-0.1293042875100173,-0.1293042875100173
-0.06232079733433797,-0.06232079733433797
0.011465703562308785,0.011465703562308785
0.0695529489490307,0.0695529489490307
0.15275900315163235,0.15275900315163235
0.2302086636672616,0.2302086636672616
0.29405230274095595,0.29405230274095595
0.3186478030398382,0.3186478030398382
0.36469895253561774,0.36469895253561774
0.4290659001263096,0.4290659001263096
0.5054689436079438,0.5054689436079438
0.5400073057297784,0.5400073057297784
0.5761155934026055,0.5761155934026055
0.628446445102355,0.628446445102355
0.7174088929919291,0.7174088929919291
0.789102159820586,0.789102159820586
0.8581788840642552,0.8581788840642552
0.9204525975869571,0.9204525975869571
0.9994721836535788,0.9994721836535788
1.0486631842513434,1.0486631842513434
1.0701188334482405,1.0701188334482405
1.0418601735303759,1.0418601735303759
0.9994721836535788,0.9994721836535788
0.9283022253419195,0.9283022253419195
0.8581788840642552,0.8581788840642552
0.7775893724466411,0.7775893724466411
0.7174088929919291,0.7174088929919291
0.6488554772652574,0.6488554772652574
0.5761155934026055,0.5761155934026055
0.46779073038412416,0.46779073038412416
0.36469895253561774,0.36469895253561774
0.27311996206105615,0.27311996206105615
0.22340565294629414,0.22340565294629414
0.16060863090659477,0.16060863090659477
0.08211235335697058,0.08211235335697058
-0.015223030804563446,-0.015223030804563446
-0.059180946232353,-0.059180946232353
-0.06598395695332043,-0.06598395695332043
-0.059180946232353,-0.059180946232353
-0.09685915945617263,-0.09685915945617263
-0.1293042875100173,-0.1293042875100173
-0.14709677708793212,-0.14709677708793212
-0.1293042875100173,-0.1293042875100173
-0.1293042875100173,-0.1293042875100173
-0.1293042875100173,-0.1293042875100173
-0.15808625594487952,-0.15808625594487952
-0.19995093730467908,-0.19995093730467908
-0.26431788489537095,-0.26431788489537095
-0.27059758709934084,-0.27059758709934084
-0.2166968098485989,-0.2166968098485989
-0.1293042875100173,-0.1293042875100173
-0.10732532979612251,-0.10732532979612251
-0.1293042875100173,-0.1293042875100173
-0.1591328729788745,-0.1591328729788745
-0.1293042875100173,-0.1293042875100173
-0.08743960615021772,-0.08743960615021772
-0.059180946232353,-0.059180946232353
-0.09057945725220269,-0.09057945725220269
-0.1293042875100173,-0.1293042875100173
-0.15546971335989204,-0.15546971335989204
-0.1293042875100173,-0.1293042875100173
-0.11465164903408745,-0.11465164903408745
-0.1293042875100173,-0.1293042875100173
-0.18425168179475424,-0.18425168179475424
-0.19995093730467908,-0.19995093730467908
-0.17849528810778179,-0.17849528810778179
-0.1293042875100173,-0.1293042875100173
-0.10523209572813254,-0.10523209572813254
-0.059180946232353,-0.059180946232353
0.02297849093625367,0.02297849093625367
0.15275900315163235,0.15275900315163235
0.2668402598570862,0.2668402598570862
0.36469895253561774,0.36469895253561774
0.434822293813282,0.434822293813282
0.5054689436079438,0.5054689436079438
0.5431471568317634,0.5431471568317634
0.5761155934026055,0.5761155934026055
0.6373426898913125,0.6373426898913125
0.788055542786591,0.788055542786591
0.9440014808518443,0.9440014808518443
0.9994721836535788,0.9994721836535788
0.8864375439821199,0.8864375439821199
0.7174088929919291,0.7174088929919291
0.5792554445045905,0.5792554445045905
0.5054689436079438,0.5054689436079438
0.432729059745292,0.432729059745292
0.36469895253561774,0.36469895253561774
0.2568973980341338,0.2568973980341338
0.08211235335697058,0.08211235335697058
-0.18111183069276926,-0.18111183069276926
-0.41189088668866447,-0.41189088668866447
-0.5578939629309655,-0.5578939629309655
-0.6233075275556523,-0.6233075275556523
-0.7059902732412565,-0.7059902732412565
-0.7646008271449759,-0.7646008271449759
-0.7897196359608556,-0.7897196359608556
-0.7646008271449759,-0.7646008271449759
-0.7609376675259935,-0.7609376675259935
-0.7646008271449759,-0.7646008271449759
-0.7761136145189208,-0.7761136145189208
-0.7646008271449759,-0.7646008271449759
-0.7687872952809558,-0.7687872952809558
-0.7646008271449759,-0.7646008271449759
-0.7300624650231412,-0.7300624650231412
-0.6233075275556523,-0.6233075275556523
-0.552137569243993,-0.552137569243993
-0.5526608777609905,-0.5526608777609905
-0.46840820652439386,-0.46840820652439386
0.011465703562308785,0.011465703562308785
0.8534691074112778,0.8534691074112778
1.7755387143608634,1.7755387143608634
2.63062483113477,2.63062483113477
3.539611725159418,3.539611725159418
4.236658669800081,4.236658669800081
4.104261614999715,4.104261614999715
2.9535061861222243,2.9535061861222243
1.4934754236992138,1.4934754236992138
0.38196813359653503,0.38196813359653503
-0.41189088668866447,-0.41189088668866447
-1.1293468634922297,-1.1293468634922297
-1.4700207080575987,-1.4700207080575987
-1.160222065995082,-1.160222065995082
-0.5526608777609905,-0.5526608777609905
-0.29152992777924064,-0.29152992777924064
-0.41189088668866447,-0.41189088668866447
-0.5563240373799729,-0.5563240373799729
-0.5526608777609905,-0.5526608777609905
-0.5667902077199228,-0.5667902077199228
-0.6233075275556523,-0.6233075275556523
-0.6510428789565196,-0.6510428789565196
-0.6233075275556523,-0.6233075275556523
-0.6316804638276122,-0.6316804638276122
-0.6233075275556523,-0.6233075275556523
-0.5683601332709154,-0.5683601332709154
-0.48253753648332626,-0.48253753648332626
-0.4731179831773713,-0.4731179831773713
-0.48253753648332626,-0.48253753648332626
-0.47154805762637886,-0.47154805762637886
-0.41189088668866447,-0.41189088668866447
-0.3731660564308498,-0.3731660564308498
-0.3412442368940027,-0.3412442368940027
-0.31507881104412794,-0.31507881104412794
-0.27059758709934084,-0.27059758709934084
-0.24129231014748118,-0.24129231014748118
-0.19995093730467908,-0.19995093730467908
-0.1664591922168394,-0.1664591922168394
-0.1293042875100173,-0.1293042875100173
-0.1298275960270148,-0.1298275960270148
-0.1293042875100173,-0.1293042875100173
-0.11831480865306991,-0.11831480865306991
-0.059180946232353,-0.059180946232353
0.007279235426328827,0.007279235426328827
0.08211235335697058,0.08211235335697058
0.14176952429468498,0.14176952429468498
0.22340565294629414,0.22340565294629414
0.2982387708769359,0.2982387708769359
0.36469895253561774,0.36469895253561774
0.39191099541948743,0.39191099541948743
0.434822293813282,0.434822293813282
0.4929095392000039,0.4929095392000039
0.5761155934026055,0.5761155934026055
0.6430990835782849,0.6430990835782849
0.7174088929919291,0.7174088929919291
0.7645066595217037,0.7645066595217037
0.788055542786591,0.788055542786591
0.792242010922571,0.792242010922571
0.8581788840642552,0.8581788840642552
0.9492345660218193,0.9492345660218193
0.9994721836535788,0.9994721836535788
0.9733067578037041,0.9733067578037041
0.9994721836535788,0.9994721836535788
1.1077970466720601,1.1077970466720601
1.2114121330375642,1.2114121330375642
1.1737339198137446,1.1737339198137446
1.0701188334482405,1.0701188334482405
1.0005188006875738,1.0005188006875738
0.9994721836535788,0.9994721836535788
0.9576075022937792,0.9576075022937792
0.8581788840642552,0.8581788840642552
0.7116524993049567,0.7116524993049567
0.5761155934026055,0.5761155934026055
0.4463350811872269,0.4463350811872269
0.36469895253561774,0.36469895253561774
0.2966688453259434,0.2966688453259434
0.22340565294629414,0.22340565294629414
0.10461461958786285,0.10461461958786285
0.011465703562308785,0.011465703562308785
-0.04243507368843317,-0.04243507368843317
-0.059180946232353,-0.059180946232353
-0.10052231907515509,-0.10052231907515509
-0.1293042875100173,-0.1293042875100173
-0.14395692598594714,-0.14395692598594714
-0.1293042875100173,-0.1293042875100173
-0.13610729823098472,-0.13610729823098472
-0.1293042875100173,-0.1293042875100173
-0.1094185638641125,-0.1094185638641125
-0.059180946232353,-0.059180946232353
-0.045574924790418136,-0.045574924790418136
-0.059180946232353,-0.059180946232353
-0.08534637208222774,-0.08534637208222774
-0.059180946232353,-0.059180946232353
-0.017316264872553427,-0.017316264872553427
0.011465703562308785,0.011465703562308785
-0.022549350042528372,-0.022549350042528372
-0.059180946232353,-0.059180946232353
-0.0785433613612603,-0.0785433613612603
-0.059180946232353,-0.059180946232353
-0.057611020681360516,-0.057611020681360516
-0.059180946232353,-0.059180946232353
-0.06912380805530541,-0.06912380805530541
-0.059180946232353,-0.059180946232353
-0.08168321246324528,-0.08168321246324528
-0.1293042875100173,-0.1293042875100173
-0.19576446916869913,-0.19576446916869913
-0.19995093730467908,-0.19995093730467908
-0.14657346857093462,-0.14657346857093462
-0.059180946232353,-0.059180946232353
-0.033538828899475764,-0.033538828899475764
-0.059180946232353,-0.059180946232353
-0.08115990394624778,-0.08115990394624778
0.011465703562308785,0.011465703562308785
0.188343982307462,0.188343982307462
0.36469895253561774,0.36469895253561774
0.433775676779287,0.433775676779287
0.434822293813282,0.434822293813282
0.4138899531333822,0.4138899531333822
0.434822293813282,0.434822293813282
0.49918924140397386,0.49918924140397386
0.6467622431972674,0.6467622431972674
0.834630000799368,0.834630000799368
0.9994721836535788,0.9994721836535788
1.0465699501833534,1.0465699501833534
0.9994721836535788,0.9994721836535788
0.8744014480911776,0.8744014480911776
0.7174088929919291,0.7174088929919291
0.5457636994167508,0.5457636994167508
0.434822293813282,0.434822293813282
0.35056962257668534,0.35056962257668534
0.22340565294629414,0.22340565294629414
0.0009995332223588901,0.0009995332223588901
-0.19995093730467908,-0.19995093730467908
-0.3307780665540528,-0.3307780665540528
-0.41189088668866447,-0.41189088668866447
-0.5306819200470957,-0.5306819200470957
-0.6233075275556523,-0.6233075275556523
-0.6950007943843091,-0.6950007943843091
-0.7646008271449759,-0.7646008271449759
-0.8776354668164348,-0.8776354668164348
-0.9058941267342995,-0.9058941267342995
-0.8373407110076276,-0.8373407110076276
-0.7646008271449759,-0.7646008271449759
-0.7797767741379033,-0.7797767741379033
-0.7646008271449759,-0.7646008271449759
-0.7002338795542841,-0.7002338795542841
-0.6939541773503141,-0.6939541773503141
-0.7939061040968356,-0.7939061040968356
-0.7646008271449759,-0.7646008271449759
-0.5212623667411408,-0.5212623667411408
-0.19995093730467908,-0.19995093730467908
0.14490937539666993,0.14490937539666993
0.788055542786591,0.788055542786591
1.7650725440209136,1.7650725440209136
2.7635451944521336,2.7635451944521336
3.579906480968225,3.579906480968225
4.386848214178362,4.386848214178362
4.977663529868534,4.977663529868534
4.668911504840012,4.668911504840012
3.1957980294920643,3.1957980294920643
1.3521821241098904,1.3521821241098904
-0.027782435212503318,-0.027782435212503318
-0.9058941267342995,-0.9058941267342995
-1.5841019647630525,-1.5841019647630525
-1.8232539570309076,-1.8232539570309076
-1.3486131321141799,-1.3486131321141799
-0.5526608777609905,-0.5526608777609905
-0.2182667353995914,-0.2182667353995914
-0.48253753648332626,-0.48253753648332626
-0.8713557646124648,-0.8713557646124648
-0.9760174680119638,-0.9760174680119638
-0.9142670630062594,-0.9142670630062594
-0.9058941267342995,-0.9058941267342995
-1.002706202378836,-1.002706202378836
-1.0466641178066256,-1.0466641178066256
-0.9979964257258586,-0.9979964257258586
-0.9058941267342995,-0.9058941267342995
-0.8938580308433571,-0.8938580308433571
-0.9058941267342995,-0.9058941267342995
-0.8797287008844247,-0.8797287008844247
-0.7646008271449759,-0.7646008271449759
-0.6693586770514318,-0.6693586770514318
-0.6233075275556523,-0.6233075275556523
-0.6301105382766198,-0.6301105382766198
-0.6233075275556523,-0.6233075275556523
-0.6044684209437425,-0.6044684209437425
-0.5526608777609905,-0.5526608777609905
-0.5107961964011909,-0.5107961964011909
-0.48253753648332626,-0.48253753648332626
-0.4736412916943688,-0.4736412916943688
-0.41189088668866447,-0.41189088668866447
-0.3281615239690653,-0.3281615239690653
-0.27059758709934084,-0.27059758709934084
-0.28263368299028324,-0.28263368299028324
-0.27059758709934084,-0.27059758709934084
-0.21198703319562145,-0.21198703319562145
-0.1293042875100173,-0.1293042875100173
-0.09633585093917513,-0.09633585093917513
-0.059180946232353,-0.059180946232353
0.0004762247053613954,0.0004762247053613954
0.08211235335697058,0.08211235335697058
0.13444320505672006,0.13444320505672006
0.22340565294629414,0.22340565294629414
0.3777816654605551,0.3777816654605551
0.5761155934026055,0.5761155934026055
0.689673541591062,0.689673541591062
0.7174088929919291,0.7174088929919291
0.7372946166378339,0.7372946166378339
0.8581788840642552,0.8581788840642552
0.9848195451776489,0.9848195451776489
0.9994721836535788,0.9994721836535788
0.8921939376690924,0.8921939376690924
0.8581788840642552,0.8581788840642552
0.974353374837699,0.974353374837699
1.1407654832429024,1.1407654832429024
1.1664076005757795,1.1664076005757795
1.0701188334482405,1.0701188334482405
0.9413849382668569,0.9413849382668569
0.8581788840642552,0.8581788840642552
0.7775893724466411,0.7775893724466411
0.7174088929919291,0.7174088929919291
0.6750209031151321,0.6750209031151321
0.6467622431972674,0.6467622431972674
0.5646028060286608,0.5646028060286608
0.5054689436079438,0.5054689436079438
0.583965221157568,0.583965221157568
0.8581788840642552,0.8581788840642552
1.0952376422641203,1.0952376422641203
0.9994721836535788,0.9994721836535788
0.44947493228921187,0.44947493228921187
-0.27059758709934084,-0.27059758709934084
-0.8143151362597378,-0.8143151362597378
-0.9760174680119638,-0.9760174680119638
-0.8635061368575024,-0.8635061368575024
-0.6233075275556523,-0.6233075275556523
-0.4045645674506995,-0.4045645674506995
-0.27059758709934084,-0.27059758709934084
-0.308799108840158,-0.308799108840158
-0.48253753648332626,-0.48253753648332626
-0.6641255918814569,-0.6641255918814569
-0.6233075275556523,-0.6233075275556523
-0.30565925773817304,-0.30565925773817304
0.15275900315163235,0.15275900315163235
0.4274959745753171,0.4274959745753171
0.29405230274095595,0.29405230274095595
-0.29257654481323564,-0.29257654481323564
-0.9760174680119638,-0.9760174680119638
-1.183770949259969,-1.183770949259969
-0.48253753648332626,-0.48253753648332626
0.7990450216435383,0.7990450216435383
1.7755387143608634,1.7755387143608634
1.7064619901171942,1.7064619901171942
0.7174088929919291,0.7174088929919291
-0.5233556008091308,-0.5233556008091308
-1.399374058262937,-1.399374058262937
-1.7615035520252034,-1.7615035520252034
-1.6819606574415842,-1.6819606574415842
-1.3564627598691423,-1.3564627598691423
-0.9760174680119638,-0.9760174680119638
-0.7693106037979534,-0.7693106037979534
-0.7646008271449759,-0.7646008271449759
-0.8352474769396376,-0.8352474769396376
-0.7646008271449759,-0.7646008271449759
-0.5374849307680631,-0.5374849307680631
-0.27059758709934084,-0.27059758709934084
-0.12040804272105989,-0.12040804272105989
-0.059180946232353,-0.059180946232353
-0.030922286314488286,-0.030922286314488286
0.011465703562308785,0.011465703562308785
0.03292135275920607,0.03292135275920607
0.08211235335697058,0.08211235335697058
0.19043721637545197,0.19043721637545197
0.36469895253561774,0.36469895253561774
0.5023290925059588,0.5023290925059588
0.5761155934026055,0.5761155934026055
0.5630328804776682,0.5630328804776682
0.5054689436079438,0.5054689436079438
0.4227861979223396,0.4227861979223396
0.36469895253561774,0.36469895253561774
0.2872492920199885,0.2872492920199885
0.15275900315163235,0.15275900315163235
-0.04138845665443818,-0.04138845665443818
-0.19995093730467908,-0.19995093730467908
-0.35589687536993253,-0.35589687536993253
-0.5526608777609905,-0.5526608777609905
-0.7222128372681789,-0.7222128372681789
-0.6233075275556523,-0.6233075275556523
-0.33234799210504523,-0.33234799210504523
-0.19995093730467908,-0.19995093730467908
-0.503469877163226,-0.503469877163226
-0.9760174680119638,-0.9760174680119638
-1.2486612053676585,-1.2486612053676585
-1.187957417395949,-1.187957417395949
-0.9278730844481943,-0.9278730844481943
-0.5526608777609905,-0.5526608777609905
-0.2868201511262632,-0.2868201511262632
-0.41189088668866447,-0.41189088668866447
-0.9435723399581191,-0.9435723399581191
-1.399374058262937,-1.399374058262937
-1.4454252077587164,-1.4454252077587164
-1.187957417395949,-1.187957417395949
-0.8593196687215224,-0.8593196687215224
-0.3412442368940027,-0.3412442368940027
0.4416253045342494,0.4416253045342494
1.3521821241098904,1.3521821241098904
2.297277305807366,2.297277305807366
3.398841734087092,3.398841734087092
4.34132037319958,4.34132037319958
4.386848214178362,4.386848214178362
3.2638281367017385,3.2638281367017385
1.7755387143608634,1.7755387143608634
0.7749728298616536,0.7749728298616536
0.22340565294629414,0.22340565294629414
-0.45846534470144146,-0.45846534470144146
-1.258604067190611,-1.258604067190611
-1.6359095079458046,-1.6359095079458046
-1.3292507169852728,-1.3292507169852728
-0.8080354340557679,-0.8080354340557679
-0.6233075275556523,-0.6233075275556523
-0.8765888497824398,-0.8765888497824398
-1.187957417395949,-1.187957417395949
-1.2659303864285758,-1.2659303864285758
-1.1173107676012872,-1.1173107676012872
-0.9697377658079939,-0.9697377658079939
-0.9058941267342995,-0.9058941267342995
-0.9074640522852919,-0.9074640522852919
-0.9058941267342995,-0.9058941267342995
-0.9242099248292118,-0.9242099248292118
-0.9058941267342995,-0.9058941267342995
-0.8519933494835575,-0.8519933494835575
-0.7646008271449759,-0.7646008271449759
-0.7263993054041588,-0.7263993054041588
-0.6939541773503141,-0.6939541773503141
-0.6599391237454769,-0.6599391237454769
-0.6233075275556523,-0.6233075275556523
-0.6306338467936172,-0.6306338467936172
-0.6233075275556523,-0.6233075275556523
-0.5924323250528001,-0.5924323250528001
-0.5526608777609905,-0.5526608777609905
-0.5584172714479629,-0.5584172714479629
-0.5526608777609905,-0.5526608777609905
-0.5264954519111158,-0.5264954519111158
-0.48253753648332626,-0.48253753648332626
-0.4631751213544189,-0.4631751213544189
-0.41189088668866447,-0.41189088668866447
-0.3370577687580227,-0.3370577687580227
-0.27059758709934084,-0.27059758709934084
-0.27478405523532085,-0.27478405523532085
-0.27059758709934084,-0.27059758709934084
-0.22245320353557135,-0.22245320353557135
-0.1293042875100173,-0.1293042875100173
-0.06284410585133547,-0.06284410585133547
0.011465703562308785,0.011465703562308785
0.10409131107086535,0.10409131107086535
0.22340565294629414,0.22340565294629414
0.30347185604691085,0.30347185604691085
0.36469895253561774,0.36469895253561774
0.43743883639826947,0.43743883639826947
0.5761155934026055,0.5761155934026055
0.7074660311689768,0.7074660311689768
0.788055542786591,0.788055542786591
0.829396915629393,0.829396915629393
0.928825533858917,0.928825533858917
1.0104616625105263,1.0104616625105263
0.9994721836535788,0.9994721836535788
0.9905759388646214,0.9905759388646214
1.2114121330375642,1.2114121330375642
1.4892889555632338,1.4892889555632338
1.422828773904552,1.422828773904552
0.9759233003886916,0.9759233003886916
0.7174088929919291,0.7174088929919291
0.937198470130877,0.937198470130877
1.2114121330375642,1.2114121330375642
0.9481879489878243,0.9481879489878243
0.29405230274095595,0.29405230274095595
-0.1962877776856966,-0.1962877776856966
-0.27059758709934084,-0.27059758709934084
-0.21565019281460393,-0.21565019281460393
-0.19995093730467908,-0.19995093730467908
-0.08325313801423775,-0.08325313801423775
0.29405230274095595,0.29405230274095595
0.6483321687482598,0.6483321687482598
0.6467622431972674,0.6467622431972674
0.35161623961068034,0.35161623961068034
0.22340565294629414,0.22340565294629414
0.3380102181687455,0.3380102181687455
0.29405230274095595,0.29405230274095595
-0.2067539480256465,-0.2067539480256465
-0.7646008271449759,-0.7646008271449759
-0.8954279563943496,-0.8954279563943496
-0.6233075275556523,-0.6233075275556523
-0.3940983971107496,-0.3940983971107496
-0.3412442368940027,-0.3412442368940027
-0.33130137507105023,-0.33130137507105023
-0.27059758709934084,-0.27059758709934084
-0.2789705233713008,-0.2789705233713008
-0.3412442368940027,-0.3412442368940027
-0.3799690671518173,-0.3799690671518173
-0.3412442368940027,-0.3412442368940027
-0.30304271515318554,-0.30304271515318554
-0.27059758709934084,-0.27059758709934084
-0.26484119341236845,-0.26484119341236845
-0.27059758709934084,-0.27059758709934084
-0.2967630129492156,-0.2967630129492156
-0.27059758709934084,-0.27059758709934084
-0.23972238459648867,-0.23972238459648867
-0.27059758709934084,-0.27059758709934084
-0.39776155672973207,-0.39776155672973207
-0.48253753648332626,-0.48253753648332626
-0.4731179831773713,-0.4731179831773713
-0.41189088668866447,-0.41189088668866447
-0.3904352374917672,-0.3904352374917672
-0.3412442368940027,-0.3412442368940027
-0.22297651205256885,-0.22297651205256885
-0.059180946232353,-0.059180946232353
0.05437700195610335,0.05437700195610335
0.15275900315163235,0.15275900315163235
0.26056055765311625,0.26056055765311625
0.36469895253561774,0.36469895253561774
0.38196813359653503,0.38196813359653503
0.36469895253561774,0.36469895253561774
0.3866779102495125,0.3866779102495125
0.5054689436079438,0.5054689436079438
0.6378659984083099,0.6378659984083099
0.7174088929919291,0.7174088929919291
0.6839171479040895,0.6839171479040895
0.5761155934026055,0.5761155934026055
0.4217395808883446,0.4217395808883446
0.29405230274095595,0.29405230274095595
0.20195000374939687,0.20195000374939687
0.15275900315163235,0.15275900315163235
0.07373941708501065,0.07373941708501065
-0.059180946232353,-0.059180946232353
-0.2501885549364386,-0.2501885549364386
-0.41189088668866447,-0.41189088668866447
-0.5374849307680631,-0.5374849307680631
-0.6233075275556523,-0.6233075275556523
-0.7180263691321989,-0.7180263691321989
-0.7646008271449759,-0.7646008271449759
-0.7980925722328156,-0.7980925722328156
-0.8352474769396376,-0.8352474769396376
-0.9058941267342995,-0.9058941267342995
-0.9058941267342995,-0.9058941267342995
-0.797569263715818,-0.797569263715818
-0.6233075275556523,-0.6233075275556523
-0.5301586115300982,-0.5301586115300982
-0.5526608777609905,-0.5526608777609905
-0.6656955174324494,-0.6656955174324494
-0.7646008271449759,-0.7646008271449759
-0.8394339450756176,-0.8394339450756176
-0.8352474769396376,-0.8352474769396376
-0.649472953405527,-0.649472953405527
-0.1293042875100173,-0.1293042875100173
0.6561817965032223,0.6561817965032223
1.5641220734938757,1.5641220734938757
2.541139074728198,2.541139074728198
3.6102583749540798,3.6102583749540798
4.391557990831339,4.391557990831339
4.3162015643837,4.3162015643837
3.2795273922116635,3.2795273922116635
1.916832013950187,1.916832013950187
0.7409577762568165,0.7409577762568165
-0.27059758709934084,-0.27059758709934084
-1.1968536621849066,-1.1968536621849066
-1.6113140076469223,-1.6113140076469223
-1.2486612053676585,-1.2486612053676585
-0.5526608777609905,-0.5526608777609905
-0.25071186345343605,-0.25071186345343605
-0.41189088668866447,-0.41189088668866447
-0.6405767086165697,-0.6405767086165697
-0.6939541773503141,-0.6939541773503141
-0.7159331350642089,-0.7159331350642089
-0.7646008271449759,-0.7646008271449759
-0.7755903060019232,-0.7755903060019232
-0.6939541773503141,-0.6939541773503141
-0.6311571553106148,-0.6311571553106148
-0.6233075275556523,-0.6233075275556523
-0.6714519111194218,-0.6714519111194218
-0.6939541773503141,-0.6939541773503141
-0.6908143262483292,-0.6908143262483292
-0.6233075275556523,-0.6233075275556523
-0.5667902077199228,-0.5667902077199228
-0.5526608777609905,-0.5526608777609905
-0.603945112426745,-0.603945112426745
-0.6233075275556523,-0.6233075275556523
-0.5814428461958527,-0.5814428461958527
-0.48253753648332626,-0.48253753648332626
-0.40142471634871457,-0.40142471634871457
-0.3412442368940027,-0.3412442368940027
-0.33130137507105023,-0.33130137507105023
-0.3412442368940027,-0.3412442368940027
-0.3490938646489651,-0.3490938646489651
-0.27059758709934084,-0.27059758709934084
-0.1486667026389246,-0.1486667026389246
-0.059180946232353,-0.059180946232353
-0.06441403140232795,-0.06441403140232795
-0.059180946232353,-0.059180946232353
-0.0016170093626285834,-0.0016170093626285834
0.08211235335697058,0.08211235335697058
0.11298755585982276,0.11298755585982276
0.15275900315163235,0.15275900315163235
0.2202658018443092,0.2202658018443092
0.29405230274095595,0.29405230274095595
0.31446133490385825,0.31446133490385825
0.36469895253561774,0.36469895253561774
0.4651741877991367,0.4651741877991367
0.5761155934026055,0.5761155934026055
0.6106539555244402,0.6106539555244402
0.6467622431972674,0.6467622431972674
0.736247999603839,0.736247999603839
0.8581788840642552,0.8581788840642552
0.8921939376690924,0.8921939376690924
0.8581788840642552,0.8581788840642552
0.8231172134254231,0.8231172134254231
0.8581788840642552,0.8581788840642552
0.9037067250430373,0.9037067250430373
0.928825533858917,0.928825533858917
0.9005668739410523,0.9005668739410523
0.8581788840642552,0.8581788840642552
0.7885788513035884,0.7885788513035884
0.7174088929919291,0.7174088929919291
0.6321096047213375,0.6321096047213375
0.5761155934026055,0.5761155934026055
0.5326809864918135,0.5326809864918135
0.5054689436079438,0.5054689436079438
0.4421486130512469,0.4421486130512469
0.36469895253561774,0.36469895253561774
0.2773064301970361,0.2773064301970361
0.22340565294629414,0.22340565294629414
0.1595620138725998,0.1595620138725998
0.08211235335697058,0.08211235335697058
-0.014699722287565952,-0.014699722287565952
-0.059180946232353,-0.059180946232353
-0.06598395695332043,-0.06598395695332043
-0.059180946232353,-0.059180946232353
-0.09685915945617263,-0.09685915945617263
-0.1293042875100173,-0.1293042875100173
-0.14343361746894964,-0.14343361746894964
-0.1293042875100173,-0.1293042875100173
-0.15494640484289454,-0.15494640484289454
-0.19995093730467908,-0.19995093730467908
-0.25437502307241855,-0.25437502307241855
-0.27059758709934084,-0.27059758709934084
-0.2794938318882983,-0.2794938318882983
-0.27059758709934084,-0.27059758709934084
-0.27321412968432834,-0.27321412968432834
-0.27059758709934084,-0.27059758709934084
-0.30094948108519554,-0.30094948108519554
-0.3412442368940027,-0.3412442368940027
-0.3961916311787396,-0.3961916311787396
-0.41189088668866447,-0.41189088668866447
-0.39723824821273457,-0.39723824821273457
-0.3412442368940027,-0.3412442368940027
-0.3004261725681981,-0.3004261725681981
-0.27059758709934084,-0.27059758709934084
-0.27269082116733084,-0.27269082116733084
-0.27059758709934084,-0.27059758709934084
-0.2978096299832106,-0.2978096299832106
-0.3412442368940027,-0.3412442368940027
-0.4035179504167045,-0.4035179504167045
-0.41189088668866447,-0.41189088668866447
-0.3668863542268799,-0.3668863542268799
-0.27059758709934084,-0.27059758709934084
-0.1774486710737868,-0.1774486710737868
-0.059180946232353,-0.059180946232353
0.07687926818699563,0.07687926818699563
0.22340565294629414,0.22340565294629414
0.31184479231887074,0.31184479231887074
0.36469895253561774,0.36469895253561774
0.4070869424124148,0.4070869424124148
0.5054689436079438,0.5054689436079438
0.6567051050202197,0.6567051050202197
0.8581788840642552,0.8581788840642552
1.0136015136125112,1.0136015136125112
1.0701188334482405,1.0701188334482405
1.0340105457754134,1.0340105457754134
0.9994721836535788,0.9994721836535788
0.9131262783489922,0.9131262783489922
0.7174088929919291,0.7174088929919291
0.5012824754719638,0.5012824754719638
0.5054689436079438,0.5054689436079438
0.6300163706533476,0.6300163706533476
0.5054689436079438,0.5054689436079438
-0.02673581817850833,-0.02673581817850833
-0.5526608777609905,-0.5526608777609905
-0.7195962946831913,-0.7195962946831913
-0.6233075275556523,-0.6233075275556523
-0.6363902404805897,-0.6363902404805897
-0.7646008271449759,-0.7646008271449759
-0.8713557646124648,-0.8713557646124648
-0.9058941267342995,-0.9058941267342995
-0.9859603298349161,-0.9859603298349161
-1.0466641178066256,-1.0466641178066256
-1.0116024471677934,-1.0116024471677934
-0.9058941267342995,-0.9058941267342995
-0.8818219349524147,-0.8818219349524147
-0.9058941267342995,-0.9058941267342995
-0.8635061368575024,-0.8635061368575024
-0.6939541773503141,-0.6939541773503141
-0.5688834417879128,-0.5688834417879128
-0.5526608777609905,-0.5526608777609905
-0.45009240842948156,-0.45009240842948156
0.08211235335697058,0.08211235335697058
0.9968556410685914,0.9968556410685914
1.987478663744849,1.987478663744849
2.9064084195924496,2.9064084195924496
3.892844974132727,3.892844974132727
4.676237824077977,4.676237824077977
4.59826485504535,4.59826485504535
3.4213440003179842,3.4213440003179842
1.8461853641555253,1.8461853641555253
0.5823952956065755,0.5823952956065755
-0.3412442368940027,-0.3412442368940027
-1.1471393530701446,-1.1471393530701446
-1.5406673578522605,-1.5406673578522605
-1.2282521732047562,-1.2282521732047562
-0.5526608777609905,-0.5526608777609905
-0.23082613980753128,-0.23082613980753128
-0.41189088668866447,-0.41189088668866447
-0.7227361457851763,-0.7227361457851763
-0.8352474769396376,-0.8352474769396376
-0.8158850618107304,-0.8158850618107304
-0.7646008271449759,-0.7646008271449759
-0.711746666928229,-0.711746666928229
-0.6233075275556523,-0.6233075275556523
-0.5667902077199228,-0.5667902077199228
-0.5526608777609905,-0.5526608777609905
-0.5960954846717826,-0.5960954846717826
-0.6233075275556523,-0.6233075275556523
-0.6400534000995721,-0.6400534000995721
-0.6233075275556523,-0.6233075275556523
-0.6290639212426248,-0.6290639212426248
-0.6233075275556523,-0.6233075275556523
-0.603945112426745,-0.603945112426745
-0.5526608777609905,-0.5526608777609905
-0.5343450796660782,-0.5343450796660782
-0.5526608777609905,-0.5526608777609905
-0.6044684209437425,-0.6044684209437425
-0.6233075275556523,-0.6233075275556523
-0.61127143166471,-0.61127143166471
-0.5526608777609905,-0.5526608777609905
-0.49248039830627865,-0.49248039830627865
-0.41189088668866447,-0.41189088668866447
-0.3203118962141029,-0.3203118962141029
-0.19995093730467908,-0.19995093730467908
-0.12773436195902482,-0.12773436195902482
-0.1293042875100173,-0.1293042875100173
-0.19367123510070913,-0.19367123510070913
-0.19995093730467908,-0.19995093730467908
-0.1397704578499672,-0.1397704578499672
-0.059180946232353,-0.059180946232353
-0.03144559483148578,-0.03144559483148578
0.011465703562308785,0.011465703562308785
0.10042815145188289,0.10042815145188289
0.22340565294629414,0.22340565294629414
0.30033200494492585,0.30033200494492585
0.36469895253561774,0.36469895253561774
0.4285425916093121,0.4285425916093121
0.5054689436079438,0.5054689436079438
0.5604163378926807,0.5604163378926807
0.6467622431972674,0.6467622431972674
0.7561337232497438,0.7561337232497438
0.8581788840642552,0.8581788840642552
0.8953337887710774,0.8953337887710774
0.928825533858917,0.928825533858917
0.9717368322527116,0.9717368322527116
0.9994721836535788,0.9994721836535788
0.9429548638178494,0.9429548638178494
0.8581788840642552,0.8581788840642552
0.7796826065146311,0.7796826065146311
0.7174088929919291,0.7174088929919291
0.6127471895924302,0.6127471895924302
0.5054689436079438,0.5054689436079438
0.4175531127523647,0.4175531127523647
0.36469895253561774,0.36469895253561774
0.27155003651006365,0.27155003651006365
0.15275900315163235,0.15275900315163235
0.042864214582158465,0.042864214582158465
0.011465703562308785,0.011465703562308785
-0.0037102434306185623,-0.0037102434306185623
-0.059180946232353,-0.059180946232353
-0.18320506476075926,-0.18320506476075926
-0.27059758709934084,-0.27059758709934084
-0.29205323629623814,-0.29205323629623814
-0.27059758709934084,-0.27059758709934084
-0.2962397044322181,-0.2962397044322181
-0.3412442368940027,-0.3412442368940027
-0.3899119289747697,-0.3899119289747697
-0.41189088668866447,-0.41189088668866447
-0.4359630784705492,-0.4359630784705492
-0.41189088668866447,-0.41189088668866447
-0.3475239390979726,-0.3475239390979726
-0.27059758709934084,-0.27059758709934084
-0.2779239063373058,-0.2779239063373058
-0.3412442368940027,-0.3412442368940027
-0.40979765262067447,-0.40979765262067447
-0.41189088668866447,-0.41189088668866447
-0.4035179504167045,-0.4035179504167045
-0.41189088668866447,-0.41189088668866447
-0.4432893977085141,-0.4432893977085141
-0.41189088668866447,-0.41189088668866447
-0.33496453469003273,-0.33496453469003273
-0.27059758709934084,-0.27059758709934084
-0.3166487365951204,-0.3166487365951204
-0.41189088668866447,-0.41189088668866447
-0.46945482355838886,-0.46945482355838886
-0.41189088668866447,-0.41189088668866447
-0.32345174731608783,-0.32345174731608783
-0.27059758709934084,-0.27059758709934084
-0.28315699150728074,-0.28315699150728074
-0.27059758709934084,-0.27059758709934084
-0.21617350133160143,-0.21617350133160143
-0.1293042875100173,-0.1293042875100173
-0.06493733991932545,-0.06493733991932545
0.011465703562308785,0.011465703562308785
0.08786874704394301,0.08786874704394301
0.15275900315163235,0.15275900315163235
0.17316803531453465,0.17316803531453465
0.22340565294629414,0.22340565294629414
0.33434705854976304,0.33434705854976304
0.5054689436079438,0.5054689436079438
0.6582750305712123,0.6582750305712123
0.788055542786591,0.788055542786591
0.8613187351662402,0.8613187351662402
0.8581788840642552,0.8581788840642552
0.7189788185429217,0.7189788185429217
0.5054689436079438,0.5054689436079438
0.3097515582508808,0.3097515582508808
0.22340565294629414,0.22340565294629414
0.17473796086552715,0.17473796086552715
0.08211235335697058,0.08211235335697058
-0.09790577649016761,-0.09790577649016761
-0.27059758709934084,-0.27059758709934084
-0.41974051444362687,-0.41974051444362687
-0.5526608777609905,-0.5526608777609905
-0.7018038051052765,-0.7018038051052765
-0.7646008271449759,-0.7646008271449759
-0.7619842845599885,-0.7619842845599885
-0.7646008271449759,-0.7646008271449759
-0.85356327503455,-0.85356327503455
-0.9058941267342995,-0.9058941267342995
-0.8582730516875274,-0.8582730516875274
-0.7646008271449759,-0.7646008271449759
-0.7682639867639584,-0.7682639867639584
-0.8352474769396376,-0.8352474769396376
-0.8776354668164348,-0.8776354668164348
-0.8352474769396376,-0.8352474769396376
-0.793382795579838,-0.793382795579838
-0.7646008271449759,-0.7646008271449759
-0.7190729861661939,-0.7190729861661939
-0.5526608777609905,-0.5526608777609905
-0.20884718209363648,-0.20884718209363648
0.434822293813282,0.434822293813282
1.4343415612784969,1.4343415612784969
2.6928985446574716,2.6928985446574716
3.787659962216231,3.787659962216231
4.2455549145890386,4.2455549145890386
3.8394675053989826,3.8394675053989826
2.8341918442467953,2.8341918442467953
1.6562243724854346,1.6562243724854346
0.5761155934026055,0.5761155934026055
-0.4563721106334515,-0.4563721106334515
-1.399374058262937,-1.399374058262937
-1.9483246925933089,-1.9483246925933089
-1.7526073072362458,-1.7526073072362458
-1.0273017026777183,-1.0273017026777183
-0.41189088668866447,-0.41189088668866447
-0.35589687536993253,-0.35589687536993253
-0.6233075275556523,-0.6233075275556523
-0.797569263715818,-0.797569263715818
-0.7646008271449759,-0.7646008271449759
-0.7363421672271112,-0.7363421672271112
-0.7646008271449759,-0.7646008271449759
-0.7876264018928657,-0.7876264018928657
-0.7646008271449759,-0.7646008271449759
-0.7740203804509308,-0.7740203804509308
-0.7646008271449759,-0.7646008271449759
-0.7127932839622239,-0.7127932839622239
-0.6233075275556523,-0.6233075275556523
-0.5882458569168202,-0.5882458569168202
-0.5526608777609905,-0.5526608777609905
-0.5118428134351859,-0.5118428134351859
-0.48253753648332626,-0.48253753648332626
-0.5060864197482134,-0.5060864197482134
-0.48253753648332626,-0.48253753648332626
-0.3831089182538022,-0.3831089182538022
-0.27059758709934084,-0.27059758709934084
-0.25437502307241855,-0.25437502307241855
-0.27059758709934084,-0.27059758709934084
-0.2596081082423935,-0.2596081082423935
-0.19995093730467908,-0.19995093730467908
-0.16488926666584694,-0.16488926666584694
-0.1293042875100173,-0.1293042875100173
-0.09476592538818264,-0.09476592538818264
-0.059180946232353,-0.059180946232353
-0.06807719102131041,-0.06807719102131041
-0.059180946232353,-0.059180946232353
-0.010513254151585993,-0.010513254151585993
0.08211235335697058,0.08211235335697058
0.15223569463463488,0.15223569463463488
0.22340565294629414,0.22340565294629414
0.29143576015596845,0.29143576015596845
0.36469895253561774,0.36469895253561774
0.3976673891064599,0.3976673891064599
0.434822293813282,0.434822293813282
0.48976968809801896,0.48976968809801896
0.5761155934026055,0.5761155934026055
0.626353211034365,0.626353211034365
0.6467622431972674,0.6467622431972674
0.6551351794692273,0.6551351794692273
0.7174088929919291,0.7174088929919291
0.7964284790585509,0.7964284790585509
0.8581788840642552,0.8581788840642552
0.8581788840642552,0.8581788840642552
0.8581788840642552,0.8581788840642552
0.88015784177815,0.88015784177815
0.928825533858917,0.928825533858917
0.9225458316549471,0.9225458316549471
0.8581788840642552,0.8581788840642552
0.7435743188418039,0.7435743188418039
0.6467622431972674,0.6467622431972674
0.5630328804776682,0.5630328804776682
0.5054689436079438,0.5054689436079438
0.4332523682622895,0.4332523682622895
0.36469895253561774,0.36469895253561774
0.28410944091800355,0.28410944091800355
0.22340565294629414,0.22340565294629414
0.15171238611763738,0.15171238611763738
0.08211235335697058,0.08211235335697058
-0.0031869349136210675,-0.0031869349136210675
-0.059180946232353,-0.059180946232353
-0.10313886166014256,-0.10313886166014256
-0.1293042875100173,-0.1293042875100173
-0.17587874552279434,-0.17587874552279434
-0.19995093730467908,-0.19995093730467908
-0.19210130954971666,-0.19210130954971666
-0.1293042875100173,-0.1293042875100173
-0.09738246797317011,-0.09738246797317011
-0.1293042875100173,-0.1293042875100173
-0.22506974612055883,-0.22506974612055883
-0.27059758709934084,-0.27059758709934084
-0.25228178900442855,-0.25228178900442855
-0.19995093730467908,-0.19995093730467908
-0.19471785213470413,-0.19471785213470413
-0.19995093730467908,-0.19995093730467908
-0.20570733099165153,-0.20570733099165153
-0.19995093730467908,-0.19995093730467908
-0.23501260794351123,-0.23501260794351123
-0.27059758709934084,-0.27059758709934084
-0.29309985333023314,-0.29309985333023314
-0.27059758709934084,-0.27059758709934084
-0.24600208680045862,-0.24600208680045862
-0.19995093730467908,-0.19995093730467908
-0.158609564461877,-0.158609564461877
-0.1293042875100173,-0.1293042875100173
-0.1800652136587743,-0.1800652136587743
-0.27059758709934084,-0.27059758709934084
-0.33234799210504523,-0.33234799210504523
-0.27059758709934084,-0.27059758709934084
-0.1685524262848294,-0.1685524262848294
-0.1293042875100173,-0.1293042875100173
-0.19105469251572166,-0.19105469251572166
-0.19995093730467908,-0.19995093730467908
-0.09005614873520519,-0.09005614873520519
0.08211235335697058,0.08211235335697058
0.17735450345051462,0.17735450345051462
0.22340565294629414,0.22340565294629414
0.27311996206105615,0.27311996206105615
0.36469895253561774,0.36469895253561774
0.4547080174591868,0.4547080174591868
0.5761155934026055,0.5761155934026055
0.7043261800669918,0.7043261800669918
0.788055542786591,0.788055542786591
0.7482840954947814,0.7482840954947814
0.6467622431972674,0.6467622431972674
0.5321576779748161,0.5321576779748161
0.434822293813282,0.434822293813282
0.3170778774888457,0.3170778774888457
0.22340565294629414,0.22340565294629414
0.15275900315163235,0.15275900315163235
0.08211235335697058,0.08211235335697058
-0.07174035064029288,-0.07174035064029288
-0.27059758709934084,-0.27059758709934084
-0.456895419150449,-0.456895419150449
-0.5526608777609905,-0.5526608777609905
-0.6243541445896473,-0.6243541445896473
-0.6939541773503141,-0.6939541773503141
-0.7912895615118481,-0.7912895615118481
-0.8352474769396376,-0.8352474769396376
-0.8415271791436076,-0.8415271791436076
-0.8352474769396376,-0.8352474769396376
-0.8739723071974522,-0.8739723071974522
-0.9058941267342995,-0.9058941267342995
-0.9168836055912468,-0.9168836055912468
-0.9058941267342995,-0.9058941267342995
-0.9195001481762343,-0.9195001481762343
-0.9058941267342995,-0.9058941267342995
-0.8561798176195374,-0.8561798176195374
-0.7646008271449759,-0.7646008271449759
-0.6541827300585045,-0.6541827300585045
-0.41189088668866447,-0.41189088668866447
0.08001911928898059,0.08001911928898059
0.928825533858917,0.928825533858917
2.078534345702413,2.078534345702413
3.3281950842924304,3.3281950842924304
4.232995510181099,4.232995510181099
4.386848214178362,4.386848214178362
3.6798584077147467,3.6798584077147467
2.481481903790484,2.481481903790484
1.2449038781254038,1.2449038781254038
0.22340565294629414,0.22340565294629414
-0.6201676764536673,-0.6201676764536673
-1.258604067190611,-1.258604067190611
-1.558983155947173,-1.558983155947173
-1.399374058262937,-1.399374058262937
-0.9754941594949662,-0.9754941594949662
-0.6233075275556523,-0.6233075275556523
-0.5709766758559028,-0.5709766758559028
-0.6939541773503141,-0.6939541773503141
-0.7912895615118481,-0.7912895615118481
-0.7646008271449759,-0.7646008271449759
-0.7159331350642089,-0.7159331350642089
-0.6939541773503141,-0.6939541773503141
-0.706513581758254,-0.706513581758254
-0.6939541773503141,-0.6939541773503141
-0.6740684537044093,-0.6740684537044093
-0.6233075275556523,-0.6233075275556523
-0.5866759313658276,-0.5866759313658276
-0.5526608777609905,-0.5526608777609905
-0.5610338140329504,-0.5610338140329504
-0.5526608777609905,-0.5526608777609905
-0.5296353030131008,-0.5296353030131008
-0.48253753648332626,-0.48253753648332626
-0.4731179831773713,-0.4731179831773713
-0.48253753648332626,-0.48253753648332626
-0.48201422796632876,-0.48201422796632876
-0.41189088668866447,-0.41189088668866447
-0.32606828990107534,-0.32606828990107534
-0.27059758709934084,-0.27059758709934084
-0.28158706595628824,-0.28158706595628824
-0.27059758709934084,-0.27059758709934084
-0.21565019281460393,-0.21565019281460393
-0.1293042875100173,-0.1293042875100173
-0.0890095317012102,-0.0890095317012102
-0.059180946232353,-0.059180946232353
-0.012083179702578477,-0.012083179702578477
0.08211235335697058,0.08211235335697058
0.1595620138725998,0.1595620138725998
0.22340565294629414,0.22340565294629414
0.2757365046460436,0.2757365046460436
0.36469895253561774,0.36469895253561774
0.4458117726702294,0.4458117726702294
0.5054689436079438,0.5054689436079438
0.5253546672538486,0.5253546672538486
0.5761155934026055,0.5761155934026055
0.6666479668431722,0.6666479668431722
0.788055542786591,0.788055542786591
0.8518991818602853,0.8518991818602853
0.8581788840642552,0.8581788840642552
0.8309668411803856,0.8309668411803856
0.8581788840642552,0.8581788840642552
0.9246390657229371,0.9246390657229371
0.9994721836535788,0.9994721836535788
1.014648130646506,1.014648130646506
0.9994721836535788,0.9994721836535788
0.9591774278447717,0.9591774278447717
0.928825533858917,0.928825533858917
0.8895773950841049,0.8895773950841049
0.8581788840642552,0.8581788840642552
0.7786359894806361,0.7786359894806361
0.6467622431972674,0.6467622431972674
0.4944794647509964,0.4944794647509964
0.434822293813282,0.434822293813282
0.4238328149563346,0.4238328149563346
0.36469895253561774,0.36469895253561774
0.23230189773525156,0.23230189773525156
0.22340565294629414,0.22340565294629414
0.4091801764804048,0.4091801764804048
0.6467622431972674,0.6467622431972674
0.6760675201491271,0.6760675201491271
0.5054689436079438,0.5054689436079438
0.28410944091800355,0.28410944091800355
0.15275900315163235,0.15275900315163235
0.05280707640511087,0.05280707640511087
-0.059180946232353,-0.059180946232353
-0.21303365022961646,-0.21303365022961646
-0.3412442368940027,-0.3412442368940027
-0.4223570570286143,-0.4223570570286143
-0.41189088668866447,-0.41189088668866447
-0.3674096627438774,-0.3674096627438774
-0.3412442368940027,-0.3412442368940027
-0.4155540463076469,-0.4155540463076469
-0.5526608777609905,-0.5526608777609905
-0.7028504221392715,-0.7028504221392715
-0.7646008271449759,-0.7646008271449759
-0.7347722416761187,-0.7347722416761187
-0.6233075275556523,-0.6233075275556523
-0.5285886859791058,-0.5285886859791058
-0.48253753648332626,-0.48253753648332626
-0.5139360475031759,-0.5139360475031759
-0.5526608777609905,-0.5526608777609905
-0.5803962291618577,-0.5803962291618577
-0.5526608777609905,-0.5526608777609905
-0.5029465686462286,-0.5029465686462286
-0.41189088668866447,-0.41189088668866447
-0.31246226845914044,-0.31246226845914044
-0.19995093730467908,-0.19995093730467908
-0.11831480865306991,-0.11831480865306991
-0.059180946232353,-0.059180946232353
-0.05185462699438808,-0.05185462699438808
-0.059180946232353,-0.059180946232353
-0.041911765171435675,-0.041911765171435675
0.08211235335697058,0.08211235335697058
0.2673635683740837,0.2673635683740837
0.434822293813282,0.434822293813282
0.5133185713629063,0.5133185713629063
0.5761155934026055,0.5761155934026055
0.6650780412921797,0.6650780412921797
0.788055542786591,0.788055542786591
0.8901007036011024,0.8901007036011024
0.9994721836535788,0.9994721836535788
1.081108312305188,1.081108312305188
1.0701188334482405,1.0701188334482405
0.8942871717370824,0.8942871717370824
0.6467622431972674,0.6467622431972674
0.4259260490243246,0.4259260490243246
0.29405230274095595,0.29405230274095595
0.20456654633438434,0.20456654633438434
0.15275900315163235,0.15275900315163235
0.07635595966999813,0.07635595966999813
-0.059180946232353,-0.059180946232353
-0.2794938318882983,-0.2794938318882983
-0.48253753648332626,-0.48253753648332626
-0.6458097937865446,-0.6458097937865446
-0.7646008271449759,-0.7646008271449759
-0.8839151690204047,-0.8839151690204047
-0.9058941267342995,-0.9058941267342995
-0.8247813065996877,-0.8247813065996877
-0.6939541773503141,-0.6939541773503141
-0.6745917622214068,-0.6745917622214068
-0.7646008271449759,-0.7646008271449759
-0.8629828283405049,-0.8629828283405049
-0.8352474769396376,-0.8352474769396376
-0.7625075930769859,-0.7625075930769859
-0.7646008271449759,-0.7646008271449759
-0.8488534983815725,-0.8488534983815725
-0.8352474769396376,-0.8352474769396376
-0.7316323905741338,-0.7316323905741338
-0.6233075275556523,-0.6233075275556523
-0.3841555352877972,-0.3841555352877972
0.36469895253561774,0.36469895253561774
1.5745882438338255,1.5745882438338255
2.7635451944521336,2.7635451944521336
3.646366662626907,3.646366662626907
4.456971555456026,4.456971555456026
5.089651552505997,5.089651552505997
4.880328145707,4.880328145707
3.5071665971055737,3.5071665971055737
1.7054153730831991,1.7054153730831991
0.289865834604976,0.289865834604976
-0.6939541773503141,-0.6939541773503141
-1.5186884001383658,-1.5186884001383658
-1.893377298308572,-1.893377298308572
-1.5118853894173983,-1.5118853894173983
-0.7646008271449759,-0.7646008271449759
-0.4249735996136018,-0.4249735996136018
-0.6233075275556523,-0.6233075275556523
-0.9388625633051416,-0.9388625633051416
-1.0466641178066256,-1.0466641178066256
-1.0508505859426054,-1.0508505859426054
-1.0466641178066256,-1.0466641178066256
-1.0178821493717634,-1.0178821493717634
-0.9058941267342995,-0.9058941267342995
-0.8069888170217729,-0.8069888170217729
-0.7646008271449759,-0.7646008271449759
-0.7865797848588707,-0.7865797848588707
-0.7646008271449759,-0.7646008271449759
-0.704420347690264,-0.704420347690264
-0.6233075275556523,-0.6233075275556523
-0.6123180486987049,-0.6123180486987049
-0.6233075275556523,-0.6233075275556523
-0.6175511338686799,-0.6175511338686799
-0.5526608777609905,-0.5526608777609905
-0.4846307705513162,-0.4846307705513162
-0.41189088668866447,-0.41189088668866447
-0.3464773220639776,-0.3464773220639776
-0.27059758709934084,-0.27059758709934084
-0.22977952277353628,-0.22977952277353628
-0.19995093730467908,-0.19995093730467908
-0.1795419051417768,-0.1795419051417768
-0.1293042875100173,-0.1293042875100173
-0.0884862231842127,-0.0884862231842127
-0.059180946232353,-0.059180946232353
-0.06650726547031793,-0.06650726547031793
-0.059180946232353,-0.059180946232353
-0.01888619042354591,-0.01888619042354591
0.08211235335697058,0.08211235335697058
0.17369134383153215,0.17369134383153215
0.22340565294629414,0.22340565294629414
0.21241617408934677,0.21241617408934677
0.22340565294629414,0.22340565294629414
0.27416657909505115,0.27416657909505115
0.36469895253561774,0.36469895253561774
0.434822293813282,0.434822293813282
0.5054689436079438,0.5054689436079438
0.5682659656476432,0.5682659656476432
0.6467622431972674,0.6467622431972674
0.731014914433864,0.731014914433864
0.8581788840642552,0.8581788840642552
0.9675503641167317,0.9675503641167317
0.9994721836535788,0.9994721836535788
0.9235924486889421,0.9235924486889421
0.8581788840642552,0.8581788840642552
0.8471894052073079,0.8471894052073079
0.8581788840642552,0.8581788840642552
0.8000916386775333,0.8000916386775333
0.7174088929919291,0.7174088929919291
0.6399592324762999,0.6399592324762999
0.5761155934026055,0.5761155934026055
0.46831403890112167,0.46831403890112167
0.36469895253561774,0.36469895253561774
0.28306282388400855,0.28306282388400855
0.22340565294629414,0.22340565294629414
0.11822064102979771,0.11822064102979771
0.011465703562308785,0.011465703562308785
-0.057611020681360516,-0.057611020681360516
-0.059180946232353,-0.059180946232353
-0.07540351025927534,-0.07540351025927534
-0.1293042875100173,-0.1293042875100173
-0.22192989501857385,-0.22192989501857385
-0.27059758709934084,-0.27059758709934084
-0.28211037447328574,-0.28211037447328574
-0.27059758709934084,-0.27059758709934084
-0.30147278960219304,-0.30147278960219304
-0.3412442368940027,-0.3412442368940027
-0.3695028968118674,-0.3695028968118674
-0.3412442368940027,-0.3412442368940027
-0.30251940663618804,-0.30251940663618804
-0.27059758709934084,-0.27059758709934084
-0.29362316184723064,-0.29362316184723064
-0.3412442368940027,-0.3412442368940027
-0.39985479079772207,-0.39985479079772207
-0.41189088668866447,-0.41189088668866447
-0.40979765262067447,-0.40979765262067447
-0.41189088668866447,-0.41189088668866447
-0.4553254935994565,-0.4553254935994565
-0.48253753648332626,-0.48253753648332626
-0.49195708978928115,-0.49195708978928115
-0.48253753648332626,-0.48253753648332626
-0.4945736323742686,-0.4945736323742686
-0.48253753648332626,-0.48253753648332626
-0.4532322595314665,-0.4532322595314665
-0.41189088668866447,-0.41189088668866447
-0.41084426965466947,-0.41084426965466947
-0.41189088668866447,-0.41189088668866447
-0.4160773548246444,-0.4160773548246444
-0.41189088668866447,-0.41189088668866447
-0.43020668478357676,-0.43020668478357676
-0.41189088668866447,-0.41189088668866447
-0.3391510028260127,-0.3391510028260127
-0.19995093730467908,-0.19995093730467908
-0.059180946232353,-0.059180946232353
0.08211235335697058,0.08211235335697058
0.1982868441304144,0.1982868441304144
0.29405230274095595,0.29405230274095595
0.33330044151576804,0.33330044151576804
0.36469895253561774,0.36469895253561774
0.4280192830923146,0.4280192830923146
0.5761155934026055,0.5761155934026055
0.7435743188418039,0.7435743188418039
0.8581788840642552,0.8581788840642552
0.836723234867358,0.836723234867358
0.7174088929919291,0.7174088929919291
0.5546599442057083,0.5546599442057083
0.434822293813282,0.434822293813282
0.35109293109368284,0.35109293109368284
0.29405230274095595,0.29405230274095595
0.20404323781738684,0.20404323781738684
0.08211235335697058,0.08211235335697058
-0.09162607428619768,-0.09162607428619768
-0.27059758709934084,-0.27059758709934084
-0.4422427806745191,-0.4422427806745191
-0.5526608777609905,-0.5526608777609905
-0.6400534000995721,-0.6400534000995721
-0.6939541773503141,-0.6939541773503141
-0.752041422737036,-0.752041422737036
-0.7646008271449759,-0.7646008271449759
-0.7646008271449759,-0.7646008271449759
-0.7646008271449759,-0.7646008271449759
-0.8085587425727654,-0.8085587425727654
-0.8352474769396376,-0.8352474769396376
-0.8226880725316978,-0.8226880725316978
-0.7646008271449759,-0.7646008271449759
-0.7237827628191713,-0.7237827628191713
-0.6939541773503141,-0.6939541773503141
-0.6991872625202891,-0.6991872625202891
-0.6939541773503141,-0.6939541773503141
-0.6044684209437425,-0.6044684209437425
-0.27059758709934084,-0.27059758709934084
0.34167337778772794,0.34167337778772794
1.2114121330375642,1.2114121330375642
2.2779148906784585,2.2779148906784585
3.469488383881754,3.469488383881754
4.424003118885184,4.424003118885184
4.668911504840012,4.668911504840012
3.9938435179132434,3.9938435179132434
2.7635451944521336,2.7635451944521336
1.4735897000533091,1.4735897000533091
0.36469895253561774,0.36469895253561774
-0.6238308360726498,-0.6238308360726498
-1.399374058262937,-1.399374058262937
-1.7259185728693738,-1.7259185728693738
-1.4700207080575987,-1.4700207080575987
-0.9331061696181692,-0.9331061696181692
-0.5526608777609905,-0.5526608777609905
-0.5610338140329504,-0.5610338140329504
-0.7646008271449759,-0.7646008271449759
-0.9095572863532819,-0.9095572863532819
-0.9058941267342995,-0.9058941267342995
-0.8870550201223897,-0.8870550201223897
-0.9058941267342995,-0.9058941267342995
-0.9388625633051416,-0.9388625633051416
-0.9058941267342995,-0.9058941267342995
-0.8436204132115976,-0.8436204132115976
-0.7646008271449759,-0.7646008271449759
-0.7232594543021738,-0.7232594543021738
-0.6939541773503141,-0.6939541773503141
-0.7028504221392715,-0.7028504221392715
-0.6939541773503141,-0.6939541773503141
-0.6740684537044093,-0.6740684537044093
-0.6233075275556523,-0.6233075275556523
-0.5856293143318327,-0.5856293143318327
-0.5526608777609905,-0.5526608777609905
-0.550044335176003,-0.550044335176003
-0.5526608777609905,-0.5526608777609905
-0.5673135162369204,-0.5673135162369204
-0.5526608777609905,-0.5526608777609905
-0.5285886859791058,-0.5285886859791058
-0.48253753648332626,-0.48253753648332626
-0.45218564249747156,-0.45218564249747156
-0.41189088668866447,-0.41189088668866447
-0.3626998860908999,-0.3626998860908999
-0.27059758709934084,-0.27059758709934084
-0.1879148414137367,-0.1879148414137367
-0.1293042875100173,-0.1293042875100173
-0.10994187238110999,-0.10994187238110999
-0.059180946232353,-0.059180946232353
0.010419086528313795,0.010419086528313795
0.08211235335697058,0.08211235335697058
0.1276401943357526,0.1276401943357526
0.22340565294629414,0.22340565294629414
0.36522226105261524,0.36522226105261524
0.5054689436079438,0.5054689436079438
0.5583231038246907,0.5583231038246907
0.5761155934026055,0.5761155934026055
0.5986178596334979,0.5986178596334979
0.6467622431972674,0.6467622431972674
0.6729276690471421,0.6729276690471421
0.7174088929919291,0.7174088929919291
0.782822457616616,0.782822457616616
0.8581788840642552,0.8581788840642552
0.8728315225401851,0.8728315225401851
0.8581788840642552,0.8581788840642552
0.8424796285543305,0.8424796285543305
0.8581788840642552,0.8581788840642552
0.8450961711393179,0.8450961711393179
0.788055542786591,0.788055542786591
0.6577517220542147,0.6577517220542147
0.5054689436079438,0.5054689436079438
0.36260571846762774,0.36260571846762774
0.29405230274095595,0.29405230274095595
0.26108386617011375,0.26108386617011375
0.22340565294629414,0.22340565294629414
0.1197905665807902,0.1197905665807902
0.011465703562308785,0.011465703562308785
-0.05865763771535551,-0.05865763771535551
-0.059180946232353,-0.059180946232353
-0.07331027619128536,-0.07331027619128536
-0.1293042875100173,-0.1293042875100173
-0.22559305463755633,-0.22559305463755633
-0.27059758709934084,-0.27059758709934084
-0.27530736375231835,-0.27530736375231835
-0.27059758709934084,-0.27059758709934084
-0.31246226845914044,-0.31246226845914044
-0.3412442368940027,-0.3412442368940027
-0.3485705561319676,-0.3485705561319676
-0.3412442368940027,-0.3412442368940027
-0.3799690671518173,-0.3799690671518173
-0.41189088668866447,-0.41189088668866447
-0.406134493001692,-0.406134493001692
-0.3412442368940027,-0.3412442368940027
-0.29257654481323564,-0.29257654481323564
-0.27059758709934084,-0.27059758709934084
-0.2988562470172056,-0.2988562470172056
-0.3412442368940027,-0.3412442368940027
-0.39880817376372707,-0.39880817376372707
-0.41189088668866447,-0.41189088668866447
-0.3899119289747697,-0.3899119289747697
-0.3412442368940027,-0.3412442368940027
-0.33287130062204273,-0.33287130062204273
-0.3412442368940027,-0.3412442368940027
-0.359560034988915,-0.359560034988915
-0.3412442368940027,-0.3412442368940027
-0.31298557697613794,-0.31298557697613794
-0.27059758709934084,-0.27059758709934084
-0.26170134231038344,-0.26170134231038344
-0.27059758709934084,-0.27059758709934084
-0.2774005978203083,-0.2774005978203083
-0.19995093730467908,-0.19995093730467908
-0.06546064843632293,-0.06546064843632293
0.08211235335697058,0.08211235335697058
0.18729736527346702,0.18729736527346702
0.29405230274095595,0.29405230274095595
0.3667921866036077,0.3667921866036077
0.36469895253561774,0.36469895253561774
0.286725983502991,0.286725983502991
0.29405230274095595,0.29405230274095595
0.4421486130512469,0.4421486130512469
0.6467622431972674,0.6467622431972674
0.7383412336718289,0.7383412336718289
0.7174088929919291,0.7174088929919291
0.6253065940003701,0.6253065940003701
0.5054689436079438,0.5054689436079438
0.34219668630472544,0.34219668630472544
0.22340565294629414,0.22340565294629414
0.19410037599443444,0.19410037599443444
0.22340565294629414,0.22340565294629414
0.15171238611763738,0.15171238611763738
-0.059180946232353,-0.059180946232353
-0.34490739651298513,-0.34490739651298513
-0.5526608777609905,-0.5526608777609905
-0.6834880070103642,-0.6834880070103642
-0.7646008271449759,-0.7646008271449759
-0.8624595198235074,-0.8624595198235074
-0.9058941267342995,-0.9058941267342995
-0.8943813393603546,-0.8943813393603546
-0.8352474769396376,-0.8352474769396376
-0.8200715299467103,-0.8200715299467103
-0.8352474769396376,-0.8352474769396376
-0.8368174024906302,-0.8368174024906302
-0.7646008271449759,-0.7646008271449759
-0.7185496776491963,-0.7185496776491963
-0.7646008271449759,-0.7646008271449759
-0.8415271791436076,-0.8415271791436076
-0.7646008271449759,-0.7646008271449759
-0.6159812083176874,-0.6159812083176874
-0.5526608777609905,-0.5526608777609905
-0.43020668478357676,-0.43020668478357676
0.22340565294629414,0.22340565294629414
1.4123626035646022,1.4123626035646022
2.62225189486281,2.62225189486281
3.517109458928526,3.517109458928526
4.3162015643837,4.3162015643837
4.904923646005882,4.904923646005882
4.59826485504535,4.59826485504535
3.1052656560514977,3.1052656560514977
1.2815354743152285,1.2815354743152285
0.04077098051416849,0.04077098051416849
-0.6233075275556523,-0.6233075275556523
-1.151849129723122,-1.151849129723122
-1.399374058262937,-1.399374058262937
-1.09585511840439,-1.09585511840439
-0.5526608777609905,-0.5526608777609905
-0.3935750885937521,-0.3935750885937521
-0.6233075275556523,-0.6233075275556523
-0.8331542428716477,-0.8331542428716477
-0.8352474769396376,-0.8352474769396376
-0.8357707854566352,-0.8357707854566352
-0.9058941267342995,-0.9058941267342995
-0.956131744366059,-0.956131744366059
-0.9058941267342995,-0.9058941267342995
-0.8383873280416226,-0.8383873280416226
-0.7646008271449759,-0.7646008271449759
-0.6991872625202891,-0.6991872625202891
-0.6233075275556523,-0.6233075275556523
-0.610224814630715,-0.610224814630715
-0.6233075275556523,-0.6233075275556523
-0.648426336371532,-0.648426336371532
-0.6233075275556523,-0.6233075275556523
-0.5871992398828252,-0.5871992398828252
-0.5526608777609905,-0.5526608777609905
-0.5406247818700481,-0.5406247818700481
-0.48253753648332626,-0.48253753648332626
-0.3815389927028098,-0.3815389927028098
-0.27059758709934084,-0.27059758709934084
-0.24390885273246865,-0.24390885273246865
-0.27059758709934084,-0.27059758709934084
-0.30408933218718054,-0.30408933218718054
-0.27059758709934084,-0.27059758709934084
-0.206230639508649,-0.206230639508649
-0.1293042875100173,-0.1293042875100173
-0.09162607428619768,-0.09162607428619768
-0.059180946232353,-0.059180946232353
-0.016269647838558436,-0.016269647838558436
0.08211235335697058,0.08211235335697058
0.17473796086552715,0.17473796086552715
0.22340565294629414,0.22340565294629414
0.20718308891937182,0.20718308891937182
0.22340565294629414,0.22340565294629414
0.30347185604691085,0.30347185604691085
0.434822293813282,0.434822293813282
0.5227381246688612,0.5227381246688612
0.5761155934026055,0.5761155934026055
0.6226900514153826,0.6226900514153826
0.7174088929919291,0.7174088929919291
0.8037547982965157,0.8037547982965157
0.8581788840642552,0.8581788840642552
0.8754480651251726,0.8754480651251726
0.928825533858917,0.928825533858917
0.9863894707286415,0.9863894707286415
0.9994721836535788,0.9994721836535788
0.9262089912739295,0.9262089912739295
0.8581788840642552,0.8581788840642552
0.8210239793574331,0.8210239793574331
0.788055542786591,0.788055542786591
0.6860103819720795,0.6860103819720795
0.5761155934026055,0.5761155934026055
0.4918629221660089,0.4918629221660089
0.434822293813282,0.434822293813282
0.33225382448177304,0.33225382448177304
0.22340565294629414,0.22340565294629414
0.13339658802272505,0.13339658802272505
0.08211235335697058,0.08211235335697058
0.009372469494318806,0.009372469494318806
-0.059180946232353,-0.059180946232353
-0.11360503200009245,-0.11360503200009245
-0.1293042875100173,-0.1293042875100173
-0.16174941556386196,-0.16174941556386196
-0.19995093730467908,-0.19995093730467908
-0.25071186345343605,-0.25071186345343605
-0.27059758709934084,-0.27059758709934084
-0.28211037447328574,-0.28211037447328574
-0.27059758709934084,-0.27059758709934084
-0.27373743820132584,-0.27373743820132584
-0.27059758709934084,-0.27059758709934084
-0.2805404489222933,-0.2805404489222933
-0.27059758709934084,-0.27059758709934084
-0.2700742785823434,-0.2700742785823434
-0.27059758709934084,-0.27059758709934084
-0.3072291832891655,-0.3072291832891655
-0.3412442368940027,-0.3412442368940027
-0.36636304570988243,-0.36636304570988243
-0.3412442368940027,-0.3412442368940027
-0.3061825662551705,-0.3061825662551705
-0.27059758709934084,-0.27059758709934084
-0.27216751265033334,-0.27216751265033334
-0.27059758709934084,-0.27059758709934084
-0.27530736375231835,-0.27530736375231835
-0.27059758709934084,-0.27059758709934084
-0.30304271515318554,-0.30304271515318554
-0.3412442368940027,-0.3412442368940027
-0.3710728223628599,-0.3710728223628599
-0.3412442368940027,-0.3412442368940027
-0.2993795555342031,-0.2993795555342031
-0.27059758709934084,-0.27059758709934084
-0.2857735340922682,-0.2857735340922682
-0.27059758709934084,-0.27059758709934084
-0.19995093730467908,-0.19995093730467908
-0.059180946232353,-0.059180946232353
0.08734543852694551,0.08734543852694551
0.22340565294629414,0.22340565294629414
0.31079817528487574,0.31079817528487574
0.36469895253561774,0.36469895253561774
0.38196813359653503,0.38196813359653503
0.434822293813282,0.434822293813282
0.5468103164507458,0.5468103164507458
0.7174088929919291,0.7174088929919291
0.8393397774523454,0.8393397774523454
0.8581788840642552,0.8581788840642552
0.7634600424877087,0.7634600424877087
0.6467622431972674,0.6467622431972674
0.5342509120428061,0.5342509120428061
0.434822293813282,0.434822293813282
0.3181244945228407,0.3181244945228407
0.22340565294629414,0.22340565294629414
0.13078004543773758,0.13078004543773758
0.011465703562308785,0.011465703562308785
-0.1879148414137367,-0.1879148414137367
-0.41189088668866447,-0.41189088668866447
-0.6363902404805897,-0.6363902404805897
-0.8352474769396376,-0.8352474769396376
-1.0424776496706456,-1.0424776496706456
-1.187957417395949,-1.187957417395949
-1.2622672268095934,-1.2622672268095934
-1.258604067190611,-1.258604067190611
-1.2570341416396185,-1.2570341416396185
-1.258604067190611,-1.258604067190611
-1.2675003119795683,-1.2675003119795683
-1.258604067190611,-1.258604067190611
-1.2784897908365156,-1.2784897908365156
-1.3292507169852728,-1.3292507169852728
-1.394140973092962,-1.394140973092962
-1.399374058262937,-1.399374058262937
-1.391001121990977,-1.391001121990977
-1.399374058262937,-1.399374058262937
-1.3569860683861399,-1.3569860683861399
-1.0466641178066256,-1.0466641178066256
-0.43753300402154166,-0.43753300402154166
0.36469895253561774,0.36469895253561774
1.2857219424512085,1.2857219424512085
2.34018860420116,2.34018860420116
3.186378476186109,3.186378476186109
3.2575484344977683,3.2575484344977683
2.3710638067040124,2.3710638067040124
1.0701188334482405,1.0701188334482405
-0.108895255347115,-0.108895255347115
-1.1173107676012872,-1.1173107676012872
-2.0713021940877203,-2.0713021940877203
-2.669967137532854,-2.669967137532854
-2.6139731262141224,-2.6139731262141224
-2.1053172476925575,-2.1053172476925575
-1.7013230725704915,-1.7013230725704915
-1.6113140076469223,-1.6113140076469223
-1.689286976679549,-1.689286976679549
-1.7526073072362458,-1.7526073072362458
-1.8044148504189979,-1.8044148504189979
-1.8232539570309076,-1.8232539570309076
-1.8017983078340105,-1.8017983078340105
-1.7526073072362458,-1.7526073072362458
-1.7290584239713587,-1.7290584239713587
-1.6819606574415842,-1.6819606574415842
-1.6149771672659048,-1.6149771672659048
-1.5406673578522605,-1.5406673578522605
-1.495662825390476,-1.495662825390476
-1.399374058262937,-1.399374058262937
-1.292619120795448,-1.292619120795448
-1.258604067190611,-1.258604067190611
-1.3648356961411023,-1.3648356961411023
-1.4700207080575987,-1.4700207080575987
-1.4569379951326613,-1.4569379951326613
-1.3292507169852728,-1.3292507169852728
-1.2277288646877587,-1.2277288646877587
-1.187957417395949,-1.187957417395949
-1.1905739599809366,-1.1905739599809366
-1.187957417395949,-1.187957417395949
-1.2204025454497938,-1.2204025454497938
-1.258604067190611,-1.258604067190611
-1.250231130918651,-1.250231130918651
-1.1173107676012872,-1.1173107676012872
-0.9247332333462093,-0.9247332333462093
-0.7646008271449759,-0.7646008271449759
-0.7122699754452264,-0.7122699754452264
-0.6939541773503141,-0.6939541773503141
-0.649472953405527,-0.649472953405527
-0.5526608777609905,-0.5526608777609905
-0.4736412916943688,-0.4736412916943688
-0.41189088668866447,-0.41189088668866447
-0.359560034988915,-0.359560034988915
-0.27059758709934084,-0.27059758709934084
-0.1695990433188244,-0.1695990433188244
-0.059180946232353,-0.059180946232353
0.020361948351266194,0.020361948351266194
0.08211235335697058,0.08211235335697058
0.13287327950572755,0.13287327950572755
0.22340565294629414,0.22340565294629414
0.3170778774888457,0.3170778774888457
0.36469895253561774,0.36469895253561774
0.3097515582508808,0.3097515582508808
0.22340565294629414,0.22340565294629414
0.1784011204845096,0.1784011204845096
0.22340565294629414,0.22340565294629414
0.27992297278202355,0.27992297278202355
0.29405230274095595,0.29405230274095595
0.23230189773525156,0.23230189773525156
0.15275900315163235,0.15275900315163235
0.05647023602409333,0.05647023602409333
-0.059180946232353,-0.059180946232353
-0.23239606535852375,-0.23239606535852375
-0.41189088668866447,-0.41189088668866447
-0.5584172714479629,-0.5584172714479629
-0.6233075275556523,-0.6233075275556523
-0.6421466341675621,-0.6421466341675621
-0.6233075275556523,-0.6233075275556523
-0.6154578998006899,-0.6154578998006899
-0.6233075275556523,-0.6233075275556523
-0.6845346240443592,-0.6845346240443592
-0.7646008271449759,-0.7646008271449759
-0.8551332005855424,-0.8551332005855424
-0.9058941267342995,-0.9058941267342995
-0.9268264674141993,-0.9268264674141993
-0.9058941267342995,-0.9058941267342995
-0.8975211904623396,-0.8975211904623396
-0.9058941267342995,-0.9058941267342995
-0.9315362440671767,-0.9315362440671767
-0.9058941267342995,-0.9058941267342995
-0.8593196687215224,-0.8593196687215224
-0.8352474769396376,-0.8352474769396376
-0.8765888497824398,-0.8765888497824398
-0.9058941267342995,-0.9058941267342995
-0.9100805948702794,-0.9100805948702794
-0.9058941267342995,-0.9058941267342995
-0.9310129355501792,-0.9310129355501792
-0.9058941267342995,-0.9058941267342995
-0.8315843173206552,-0.8315843173206552
-0.7646008271449759,-0.7646008271449759
-0.7719271463829408,-0.7719271463829408
-0.7646008271449759,-0.7646008271449759
