ECG,PPG
0.2190276279765773,0.2190276279765773
0.300975863078904,0.300975863078904
0.31851829872772014,0.31851829872772014
0.3132555680330753,0.3132555680330753
0.3272895165521282,0.3272895165521282
0.35886590071999724,0.35886590071999724
0.3836759168518943,0.3836759168518943
0.39219652845274783,0.39219652845274783
0.39645683425317463,0.39645683425317463
0.4057292645246917,0.4057292645246917
0.41550290724331784,0.41550290724331784
0.41550290724331784,0.41550290724331784
0.40623047697180076,0.40623047697180076
0.39294834712341137,0.39294834712341137
0.37490469902748624,0.37490469902748624
0.34683680198938044,0.34683680198938044
0.31225314313885727,0.31225314313885727
0.2794237278532157,0.2794237278532157
0.253360680603546,0.253360680603546
0.23030490803653053,0.23030490803653053
0.20900337903439667,0.20900337903439667
0.19121033716202604,0.19121033716202604
0.1781788135371912,0.1781788135371912
0.16640032103012894,0.16640032103012894
0.1548724347466212,0.1548724347466212
0.14334454846311348,0.14334454846311348
0.13532514930936895,0.13532514930936895
0.13106484350894218,0.13106484350894218
0.13231787462671477,0.13231787462671477
0.13607696798003252,0.13607696798003252
0.1420915173453409,0.1420915173453409
0.1466024293693222,0.1466024293693222
0.1483566729342038,0.1483566729342038
0.1453493982515496,0.1453493982515496
0.14234212356889542,0.14234212356889542
0.1438457609102225,0.1438457609102225
0.15211576628752155,0.15211576628752155
0.16063637788837506,0.16063637788837506
0.16439547124169282,0.16439547124169282
0.16489668368880184,0.16489668368880184
0.17291608284254636,0.17291608284254636
0.1922127620562441,0.1922127620562441
0.21526853462325957,0.21526853462325957
0.23055551426008503,0.23055551426008503
0.23606885117828438,0.23606885117828438
0.23882551963738408,0.23882551963738408
0.245591887673356,0.245591887673356
0.253360680603546,0.253360680603546
0.2548643179448731,0.2548643179448731
0.2458424938969105,0.2458424938969105
0.23030490803653053,0.23030490803653053
0.21376489728193246,0.21376489728193246
0.19747549275088894,0.19747549275088894
0.17692578241941861,0.17692578241941861
0.1498603102755309,0.1498603102755309
0.12129120079031606,0.12129120079031606
0.09998967178818222,0.09998967178818222
0.08796057305756544,0.08796057305756544
0.07943996145671191,0.07943996145671191
0.06816268139675868,0.06816268139675868
0.05538176399547836,0.05538176399547836
0.04360327148841611,0.04360327148841611
0.03382962876978998,0.03382962876978998
0.024306592274718382,0.024306592274718382
0.017790830462300965,0.017790830462300965
0.01703901179163742,0.01703901179163742
0.020296892697846125,0.020296892697846125
0.02129931759206419,0.02129931759206419
0.016788405568082903,0.016788405568082903
0.007766581520120326,0.007766581520120326
-0.001505848751396765,-0.001505848751396765
-0.009024035458032244,-0.009024035458032244
-0.014036159929122563,-0.014036159929122563
-0.015790403494004176,-0.015790403494004176
-0.013033735034904499,-0.013033735034904499
-0.007269791893150633,-0.007269791893150633
-0.002007061198505797,-0.002007061198505797
-0.001756454974951281,-0.001756454974951281
-0.004513123434050957,-0.004513123434050957
-0.010026460352250308,-0.010026460352250308
-0.016291615941113207,-0.016291615941113207
-0.024561621318412233,-0.024561621318412233
-0.02982435201305707,-0.02982435201305707
-0.030826776907275134,-0.030826776907275134
-0.027067683553957392,-0.027067683553957392
-0.019549496847321914,-0.019549496847321914
-0.010026460352250308,-0.010026460352250308
-0.0032600923162783768,-0.0032600923162783768
-0.002508273645614829,-0.002508273645614829
-0.0032600923162783768,-0.0032600923162783768
0.0020026383783664586,0.0020026383783664586
0.00952082508500194,0.00952082508500194
0.013279918438319679,0.013279918438319679
0.03483205366400805,0.03483205366400805
0.1217924132374251,0.1217924132374251
0.2974673759491408,0.2974673759491408
0.5169984277828967,0.5169984277828967
0.6989385460834754,0.6989385460834754
0.7934170923635279,0.7934170923635279
0.8144680151421072,0.8144680151421072
0.8066992222119173,0.8066992222119173
0.7891567865631011,0.7891567865631011
0.7307655364748988,0.7307655364748988
0.5791487712244167,0.5791487712244167
0.32754012277568273,0.32754012277568273
0.0528757017599332,0.0528757017599332
-0.13157047877619055,-0.13157047877619055
-0.17266989943913116,-0.17266989943913116
-0.1197919862691283,-0.1197919862691283
-0.06190194862803512,-0.06190194862803512
-0.04160284452011932,-0.04160284452011932
-0.04160284452011932,-0.04160284452011932
-0.03458587026059288,-0.03458587026059288
-0.01854707195310385,-0.01854707195310385
-0.007520398116705148,-0.007520398116705148
-0.010778279022913855,-0.010778279022913855
-0.024812227541966752,-0.024812227541966752
-0.0395979947316832,-0.0395979947316832
-0.04385830053210997,-0.04385830053210997
-0.03684132627258352,-0.03684132627258352
-0.022556771529976108,-0.022556771529976108
-0.011028885246468372,-0.011028885246468372
-0.005766154551823536,-0.005766154551823536
-0.009525247905141275,-0.009525247905141275
-0.017043434611776754,-0.017043434611776754
-0.021554346635758042,-0.021554346635758042
-0.017043434611776754,-0.017043434611776754
-0.009024035458032244,-0.009024035458032244
-0.007019185669596116,-0.007019185669596116
-0.012532522587795468,-0.012532522587795468
-0.015539797270449658,-0.015539797270449658
-0.007019185669596116,-0.007019185669596116
0.007265369073011295,0.007265369073011295
0.01127506864988355,0.01127506864988355
-0.001255242527842249,-0.001255242527842249
-0.019298890623767398,-0.019298890623767398
-0.0255640462126303,-0.0255640462126303
-0.014787978599786112,-0.014787978599786112
0.0025038508254754907,0.0025038508254754907
0.013279918438319679,0.013279918438319679
0.015785980673864837,0.015785980673864837
0.015535374450310323,0.015535374450310323
0.01754022423874645,0.01754022423874645
0.019795680250737094,0.019795680250737094
0.02129931759206419,0.02129931759206419
0.021800530039173222,0.021800530039173222
0.026060835839599995,0.026060835839599995
0.039092359464434824,0.039092359464434824
0.062398738255004804,0.062398738255004804
0.08670754193979287,0.08670754193979287
0.10249573402372737,0.10249573402372737
0.10800907094192673,0.10800907094192673
0.1137730140836806,0.1137730140836806
0.12555150659074285,0.12555150659074285
0.13858303021557766,0.13858303021557766
0.1468530355928767,0.1468530355928767
0.1561254658643938,0.1561254658643938
0.17441972018387344,0.17441972018387344
0.19998155498643408,0.19998155498643408
0.21952884042368634,0.21952884042368634
0.2283000582480944,0.2283000582480944
0.237823094743166,0.237823094743166
0.2626331108750631,0.2626331108750631
0.2977179821726953,0.2977179821726953
0.3245328480930285,0.3245328480930285
0.3338052783645456,0.3338052783645456
0.3383161903885269,0.3383161903885269
0.35335256380179786,0.35335256380179786
0.37716015503947686,0.37716015503947686
0.3924471346763024,0.3924471346763024
0.3911941035585298,0.3911941035585298
0.379165004827913,0.379165004827913
0.36563226875596916,0.36563226875596916
0.34859104555426207,0.34859104555426207
0.3240316356459195,0.3240316356459195
0.2959637386078137,0.2959637386078137
0.2751634220527889,0.2751634220527889
0.26163068598084505,0.26163068598084505
0.24458946277913793,0.24458946277913793
0.21702277818814117,0.21702277818814117
0.18845366870292635,0.18845366870292635
0.16840517081856507,0.16840517081856507
0.15662667831150281,0.15662667831150281
0.14585061069865862,0.14585061069865862
0.13682878665069606,0.13682878665069606
0.12981181239116962,0.12981181239116962
0.12254423190808865,0.12254423190808865
0.11226937674235349,0.11226937674235349
0.1092621020596993,0.1092621020596993
0.12229362568453413,0.12229362568453413
0.14635182314576767,0.14635182314576767
0.1611375903354841,0.1611375903354841
0.15913274054704798,0.15913274054704798
0.15111334139330349,0.15111334139330349
0.15562425341728475,0.15562425341728475
0.17116183927766476,0.17116183927766476
0.1826897255611725,0.1826897255611725
0.18394275667894505,0.18394275667894505
0.1877018500322628,0.1877018500322628
0.20048276743354312,0.20048276743354312
0.21176004749349633,0.21176004749349633
0.21125883504638732,0.21125883504638732
0.2095045914815057,0.2095045914815057
0.2205312653179044,0.2205312653179044
0.23832430719027503,0.23832430719027503
0.24208340054359279,0.24208340054359279
0.22654581468321278,0.22654581468321278
0.2080009541401786,0.2080009541401786
0.20223701099842473,0.20223701099842473
0.20123458610420666,0.20123458610420666
0.18394275667894505,0.18394275667894505
0.14259272979244994,0.14259272979244994
0.0934739099757648,0.0934739099757648
0.06089510091367771,0.06089510091367771
0.053376914207042235,0.053376914207042235
0.06039388846656868,0.06039388846656868
0.06640843783187707,0.06640843783187707
0.06164691958434126,0.06164691958434126
0.04610933372396127,0.04610933372396127
0.02881750429869967,0.02881750429869967
0.022051136262727738,0.022051136262727738
0.02581022961604548,0.02581022961604548
0.029569322969363217,0.029569322969363217
0.025309017168936444,0.025309017168936444
0.018292042909409997,0.018292042909409997
0.01503416200320129,0.01503416200320129
0.014532949556092259,0.014532949556092259
0.01252809976765613,0.01252809976765613
0.010272643755665486,0.010272643755665486
0.00826779396722936,0.00826779396722936
0.0015014259312574269,0.0015014259312574269
-0.011780703917131919,-0.011780703917131919
-0.024311015094857717,-0.024311015094857717
-0.02907253334239352,-0.02907253334239352
-0.030325564460166102,-0.030325564460166102
-0.037091932496138035,-0.037091932496138035
-0.04686557521476416,-0.04686557521476416
-0.05212830590940899,-0.05212830590940899
-0.04836921255609126,-0.04836921255609126
-0.04335708808500094,-0.04335708808500094
-0.042605269414337385,-0.042605269414337385
-0.04887042500320029,-0.04887042500320029
-0.056889824156944796,-0.056889824156944796
-0.06115012995737157,-0.06115012995737157
-0.061400736180926084,-0.061400736180926084
-0.0631549797458077,-0.0631549797458077
-0.06866831666400704,-0.06866831666400704
-0.06992134778177962,-0.06992134778177962
-0.0583934614982719,-0.0583934614982719
-0.03984860095523771,-0.03984860095523771
-0.030325564460166102,-0.030325564460166102
-0.026817077330402877,-0.026817077330402877
0.011776281096992584,0.011776281096992584
0.13933484888624123,0.13933484888624123
0.3601189318377698,0.3601189318377698
0.6014527251207686,0.6014527251207686
0.7691082886787398,0.7691082886787398
0.8332634819086959,0.8332634819086959
0.8262465076491695,0.8262465076491695
0.7640961642076495,0.7640961642076495
0.6029563624620957,0.6029563624620957
0.316513448939284,0.316513448939284
-0.021303740412203526,-0.021303740412203526
-0.26790026438984726,-0.26790026438984726
-0.33706758209089366,-0.33706758209089366
-0.26815087061340176,-0.26815087061340176
-0.17266989943913116,-0.17266989943913116
-0.1263077480815457,-0.1263077480815457
-0.1258065356344367,-0.1258065356344367
-0.12981623521130894,-0.12981623521130894
-0.11753653025713766,-0.11753653025713766
-0.10049530705543057,-0.10049530705543057
-0.09498197013723123,-0.09498197013723123
-0.09798924481988541,-0.09798924481988541
-0.09899166971410348,-0.09899166971410348
-0.09548318258434026,-0.09548318258434026
-0.09172408923102252,-0.09172408923102252
-0.09047105811324993,-0.09047105811324993
-0.08646135853637768,-0.08646135853637768
-0.07919377805329672,-0.07919377805329672
-0.07067316645244318,-0.07067316645244318
-0.0679164979933435,-0.0679164979933435
-0.06866831666400704,-0.06866831666400704
-0.0679164979933435,-0.0679164979933435
-0.06190194862803512,-0.06190194862803512
-0.05513558059206319,-0.05513558059206319
-0.05563679303917222,-0.05563679303917222
-0.061400736180926084,-0.061400736180926084
-0.06440801086358028,-0.06440801086358028
-0.06039831128670802,-0.06039831128670802
-0.054133155697845124,-0.054133155697845124
-0.05338133702718158,-0.05338133702718158
-0.05714043038049932,-0.05714043038049932
-0.057892249051162865,-0.057892249051162865
-0.04987284989741835,-0.04987284989741835
-0.038094357390356104,-0.038094357390356104
-0.029323139565948037,-0.029323139565948037
-0.025313439989075783,-0.025313439989075783
-0.021554346635758042,-0.021554346635758042
-0.016542222164667723,-0.016542222164667723
-0.012532522587795468,-0.012532522587795468
-0.00927464168158676,-0.00927464168158676
-0.0002528176336241851,-0.0002528176336241851
0.014282343332537743,0.014282343332537743
0.02681265451026354,0.02681265451026354
0.031824778981353864,0.031824778981353864
0.03708750967599869,0.03708750967599869
0.04936721463016998,0.04936721463016998
0.0669096502789861,0.0669096502789861
0.07994117390382094,0.07994117390382094
0.08846178550467447,0.08846178550467447
0.09723300332908254,0.09723300332908254
0.11001392073036285,0.11001392073036285
0.12730575015562445,0.12730575015562445
0.15261697873463057,0.15261697873463057
0.18669942513804474,0.18669942513804474
0.22328793377700407,0.22328793377700407
0.2523582557093279,0.2523582557093279
0.27090311625236213,0.27090311625236213
0.28443585232430596,0.28443585232430596
0.3034819253144492,0.3034819253144492
0.331549822352555,0.331549822352555
0.3643792376381966,0.3643792376381966
0.39395077201762946,0.39395077201762946
0.4160041196904269,0.4160041196904269
0.4307898868801433,0.4307898868801433
0.44231777316365106,0.44231777316365106
0.4510889909880591,0.4510889909880591
0.45534929678848585,0.45534929678848585
0.4498359598702865,0.4498359598702865
0.4322935242214704,0.4322935242214704
0.40447623340691913,0.40447623340691913
0.37390227413326815,0.37390227413326815
0.3438295273067263,0.3438295273067263
0.3147592053744024,0.3147592053744024
0.284937064771415,0.284937064771415
0.25762098640397274,0.25762098640397274
0.2380737009667205,0.2380737009667205
0.22754823957743084,0.22754823957743084
0.21802520308235923,0.21802520308235923
0.2032394358926428,0.2032394358926428
0.18494518157316314,0.18494518157316314
0.17592335752520055,0.17592335752520055
0.1799330571020728,0.1799330571020728
0.19045851849136247,0.19045851849136247
0.19622246163311635,0.19622246163311635
0.19922973631577054,0.19922973631577054
0.20574549812818796,0.20574549812818796
0.22003005287079536,0.22003005287079536
0.23556763873117537,0.23556763873117537
0.24759673746179212,0.24759673746179212
0.25436310549776403,0.25436310549776403
0.26087886731018145,0.26087886731018145
0.268898266463926,0.268898266463926
0.27967433407677017,0.27967433407677017
0.2914528265838324,0.2914528265838324
0.30448435020866726,0.30448435020866726
0.31601223649217497,0.31601223649217497
0.3240316356459195,0.3240316356459195
0.3272895165521282,0.3272895165521282
0.32954497256411885,0.32954497256411885
0.3338052783645456,0.3338052783645456
0.3395692215062995,0.3395692215062995
0.34107285884762656,0.34107285884762656
0.33530891570587273,0.33530891570587273
0.32152557341037435,0.32152557341037435
0.30122646930245855,0.30122646930245855
0.27541402827634337,0.27541402827634337
0.24659431256757405,0.24659431256757405
0.21827580930591375,0.21827580930591375
0.19321518695046216,0.19321518695046216
0.17066062683055572,0.17066062683055572
0.14885788538131284,0.14885788538131284
0.12730575015562445,0.12730575015562445
0.10951270828325382,0.10951270828325382
0.09698239710552801,0.09698239710552801
0.08971481662244706,0.08971481662244706
0.08695814816334738,0.08695814816334738
0.08921360417533802,0.08921360417533802
0.09272209130510124,0.09272209130510124
0.09297269752865576,0.09297269752865576
0.08770996683401093,0.08770996683401093
0.08219662991581157,0.08219662991581157
0.07918935523315739,0.07918935523315739
0.07768571789183029,0.07768571789183029
0.07192177475007643,0.07192177475007643
0.06365176937277739,0.06365176937277739
0.05663479511325094,0.05663479511325094
0.0543793391012603,0.0543793391012603
0.05312630798348772,0.05312630798348772
0.05036963952438804,0.05036963952438804
0.04535751505329772,0.04535751505329772
0.041849027923534496,0.041849027923534496
0.03884175324088031,0.03884175324088031
0.03608508478178063,0.03608508478178063
0.03157417275779935,0.03157417275779935
0.0293187167458087,0.0293187167458087
0.028566898075145154,0.028566898075145154
0.029068110522254186,0.029068110522254186
0.025309017168936444,0.025309017168936444
0.01703901179163742,0.01703901179163742
0.011776281096992584,0.011776281096992584
0.016788405568082903,0.016788405568082903
0.03157417275779935,0.03157417275779935
0.04786357728884288,0.04786357728884288
0.05863964490168707,0.05863964490168707
0.05989267601945965,0.05989267601945965
0.0513720644186061,0.0513720644186061
0.050119033300833525,0.050119033300833525
0.09923785311751866,0.09923785311751866
0.2443388565555834,0.2443388565555834
0.4804099191439375,0.4804099191439375
0.7350258422753256,0.7350258422753256
0.9187202041407858,0.9187202041407858
0.999916620572449,0.999916620572449
1.0129481441972839,1.0129481441972839
0.9896417654067139,0.9896417654067139
0.9004259498213062,0.9004259498213062
0.6931746029417215,0.6931746029417215
0.3854301604167759,0.3854301604167759
0.08921360417533802,0.08921360417533802
-0.07819135315907864,-0.07819135315907864
-0.09423015146656767,-0.09423015146656767
-0.03433526403703836,-0.03433526403703836
0.015785980673864837,0.015785980673864837
0.027815079404481604,0.027815079404481604
0.02054749892140064,0.02054749892140064
0.015785980673864837,0.015785980673864837
0.016036586897419356,0.016036586897419356
0.015284768226755806,0.015284768226755806
0.014282343332537743,0.014282343332537743
0.015535374450310323,0.015535374450310323
0.018292042909409997,0.018292042909409997
0.01804143668585548,0.01804143668585548
0.01754022423874645,0.01754022423874645
0.018542649132964516,0.018542649132964516
0.02079810514495516,0.02079810514495516
0.01703901179163742,0.01703901179163742
0.00952082508500194,0.00952082508500194
0.005260519284575166,0.005260519284575166
0.010022037532110971,0.010022037532110971
0.016788405568082903,0.016788405568082903
0.016788405568082903,0.016788405568082903
0.010022037532110971,0.010022037532110971
0.005511125508129683,0.005511125508129683
0.009019612637892907,0.009019612637892907
0.014532949556092259,0.014532949556092259
0.01127506864988355,0.01127506864988355
-0.0002528176336241851,-0.0002528176336241851
-0.009024035458032244,-0.009024035458032244
-0.005264942104714504,-0.005264942104714504
0.006764156625902263,0.006764156625902263
0.016788405568082903,0.016788405568082903
0.020296892697846125,0.020296892697846125
0.022802954933391285,0.022802954933391285
0.028065685628036123,0.028065685628036123
0.03483205366400805,0.03483205366400805
0.039593571911543855,0.039593571911543855
0.04535751505329772,0.04535751505329772
0.05488055154836933,0.05488055154836933
0.0669096502789861,0.0669096502789861
0.07292419964429449,0.07292419964429449
0.07267359342073997,0.07267359342073997
0.07116995607941287,0.07116995607941287
0.07668329299761223,0.07668329299761223
0.08770996683401093,0.08770996683401093
0.10024027801173672,0.10024027801173672
0.11051513317747189,0.11051513317747189
0.12129120079031606,0.12129120079031606
0.1343227244151509,0.1343227244151509
0.14935909782842186,0.14935909782842186
0.16539789613591088,0.16539789613591088
0.18544639402027216,0.18544639402027216
0.2092539852579512,0.2092539852579512
0.23331218271918472,0.23331218271918472
0.25436310549776403,0.25436310549776403
0.27616584694700697,0.27616584694700697
0.3019782879731221,0.3019782879731221
0.32954497256411885,0.32954497256411885
0.3520995326840253,0.3520995326840253
0.36813833099151433,0.36813833099151433
0.38267349195767625,0.38267349195767625
0.39846168404161075,0.39846168404161075
0.41074138899578205,0.41074138899578205
0.4129968450077727,0.4129968450077727
0.4039750209598101,0.4039750209598101
0.3899410724407572,0.3899410724407572
0.3759071239217043,0.3759071239217043
0.3596177193906608,0.3596177193906608
0.33555952192942723,0.33555952192942723
0.3037325315380037,0.3037325315380037
0.27090311625236213,0.27090311625236213
0.24358703788491987,0.24358703788491987
0.22103247776501342,0.22103247776501342
0.19922973631577054,0.19922973631577054
0.1764245699723096,0.1764245699723096
0.1578797094292754,0.1578797094292754
0.14434697335733154,0.14434697335733154
0.13332029952093283,0.13332029952093283
0.12053938211965252,0.12053938211965252
0.10901149583614479,0.10901149583614479
0.10274634024728188,0.10274634024728188
0.10324755269439093,0.10324755269439093
0.10700664604770865,0.10700664604770865
0.11352240786012607,0.11352240786012607
0.12154180701387059,0.12154180701387059
0.13206726840316027,0.13206726840316027
0.14284333601600444,0.14284333601600444
0.15387000985240315,0.15387000985240315
0.16188940900614765,0.16188940900614765
0.16489668368880184,0.16489668368880184
0.1623906214532567,0.1623906214532567
0.16163880278259316,0.16163880278259316
0.16765335214790153,0.16765335214790153
0.18068487577273637,0.18068487577273637
0.19346579317401666,0.19346579317401666
0.198477917645107,0.198477917645107
0.19371639939757118,0.19371639939757118
0.18544639402027216,0.18544639402027216
0.182940331784727,0.182940331784727
0.19121033716202604,0.19121033716202604
0.20424186078686085,0.20424186078686085
0.21075762259927827,0.21075762259927827
0.2047430732339699,0.2047430732339699
0.190709124714917,0.190709124714917
0.17441972018387344,0.17441972018387344
0.15662667831150281,0.15662667831150281
0.13382151196804187,0.13382151196804187
0.10650543360059962,0.10650543360059962
0.07943996145671191,0.07943996145671191
0.05613358266614191,0.05613358266614191
0.036335691005335145,0.036335691005335145
0.02004628647429161,0.02004628647429161
0.00952082508500194,0.00952082508500194
0.006513550402347746,0.006513550402347746
0.009270218861447422,0.009270218861447422
0.011776281096992584,0.011776281096992584
0.00952082508500194,0.00952082508500194
0.0040074881668025865,0.0040074881668025865
0.0002483948134848469,0.0002483948134848469
-2.2114100696691024e-06,-2.2114100696691024e-06
0.0004990010370393629,0.0004990010370393629
-0.0030094860927238607,-0.0030094860927238607
-0.012031310140686435,-0.012031310140686435
-0.021303740412203526,-0.021303740412203526
-0.025062833765521268,-0.025062833765521268
-0.02105313418864901,-0.02105313418864901
-0.015539797270449658,-0.015539797270449658
-0.017043434611776754,-0.017043434611776754
-0.02907253334239352,-0.02907253334239352
-0.044359512979219,-0.044359512979219
-0.05488497436850867,-0.05488497436850867
-0.05438376192139964,-0.05438376192139964
-0.04937163745030932,-0.04937163745030932
-0.045863150320546095,-0.045863150320546095
-0.04811860633253674,-0.04811860633253674
-0.0506246685680819,-0.0506246685680819
-0.05212830590940899,-0.05212830590940899
-0.05388254947429061,-0.05388254947429061
-0.05488497436850867,-0.05488497436850867
-0.050875274791636414,-0.050875274791636414
-0.04060041962590126,-0.04060041962590126
-0.03107738313082965,-0.03107738313082965
-0.025313439989075783,-0.025313439989075783
-0.021554346635758042,-0.021554346635758042
-0.020050709294430948,-0.020050709294430948
-0.014286766152677079,-0.014286766152677079
0.029569322969363217,0.029569322969363217
0.15637607208794832,0.15637607208794832
0.370894999450614,0.370894999450614
0.6072166682625225,0.6072166682625225
0.7768770816089298,0.7768770816089298
0.8460443993099762,0.8460443993099762
0.8535625860166117,0.8535625860166117
0.8377743939326772,0.8377743939326772
0.7733685944791666,0.7733685944791666
0.600199694002996,0.600199694002996
0.3225279983045924,0.3225279983045924
0.04159842169997998,0.04159842169997998
-0.12731017297576377,-0.12731017297576377
-0.15663110113164216,-0.15663110113164216
-0.11177258711538379,-0.11177258711538379
-0.07042256022888865,-0.07042256022888865
-0.05989709883959899,-0.05989709883959899
-0.06566104198135285,-0.06566104198135285
-0.06942013533467059,-0.06942013533467059
-0.06891892288756156,-0.06891892288756156
-0.06866831666400704,-0.06866831666400704
-0.07092377267599768,-0.07092377267599768
-0.0741816535822064,-0.0741816535822064
-0.07668771581775155,-0.07668771581775155
-0.07819135315907864,-0.07819135315907864
-0.07668771581775155,-0.07668771581775155
-0.07468286602931543,-0.07468286602931543
-0.07443225980576092,-0.07443225980576092
-0.07844195938263317,-0.07844195938263317
-0.08094802161817832,-0.08094802161817832
-0.07944438427685123,-0.07944438427685123
-0.07593589714708801,-0.07593589714708801
-0.07718892826486058,-0.07718892826486058
-0.08320347763016897,-0.08320347763016897
-0.08721317720704122,-0.08721317720704122
-0.08646135853637768,-0.08646135853637768
-0.08320347763016897,-0.08320347763016897
-0.08119862784173285,-0.08119862784173285
-0.08094802161817832,-0.08094802161817832
-0.08019620294751478,-0.08019620294751478
-0.07769014071196961,-0.07769014071196961
-0.07568529092353349,-0.07568529092353349
-0.07568529092353349,-0.07568529092353349
-0.07668771581775155,-0.07668771581775155
-0.07518407847642446,-0.07518407847642446
-0.06992134778177962,-0.06992134778177962
-0.0631549797458077,-0.0631549797458077
-0.056889824156944796,-0.056889824156944796
-0.05313073080362706,-0.05313073080362706
-0.05037406234452738,-0.05037406234452738
-0.04611375654410061,-0.04611375654410061
-0.03784375116680158,-0.03784375116680158
-0.02606525865973933,-0.02606525865973933
-0.013534947482013532,-0.013534947482013532
-0.0040119109869419245,-0.0040119109869419245
0.0027544570490300067,0.0027544570490300067
0.009019612637892907,0.009019612637892907
0.016788405568082903,0.016788405568082903
0.025559623392490963,0.025559623392490963
0.03533326611111708,0.03533326611111708
0.047362364841733846,0.047362364841733846
0.06415298181988642,0.06415298181988642
0.08420147970424771,0.08420147970424771
0.10349815891794543,0.10349815891794543
0.11878513855477091,0.11878513855477091
0.13206726840316027,0.13206726840316027
0.14860727915775832,0.14860727915775832
0.17091123305411024,0.17091123305411024
0.19672367408022537,0.19672367408022537
0.22028065909434988,0.22028065909434988
0.24032915697871116,0.24032915697871116
0.25962583619240887,0.25962583619240887
0.28067675897098826,0.28067675897098826
0.30147707552601305,0.30147707552601305
0.3162628427157295,0.3162628427157295
0.32177617963392885,0.32177617963392885
0.31701466138639306,0.31701466138639306
0.30273010664378563,0.30273010664378563
0.28067675897098826,0.28067675897098826
0.2548643179448731,0.2548643179448731
0.22779884580098536,0.22779884580098536
0.2002321612099886,0.2002321612099886
0.1719136579483283,0.1719136579483283
0.14434697335733154,0.14434697335733154
0.11878513855477091,0.11878513855477091
0.0967317908819735,0.0967317908819735
0.0779363241153848,0.0779363241153848
0.06340116314922287,0.06340116314922287
0.05212388308926965,0.05212388308926965
0.043102059041307074,0.043102059041307074
0.03508265988756257,0.03508265988756257
0.0308223540871358,0.0308223540871358
0.030321141640026767,0.030321141640026767
0.032576597652017404,0.032576597652017404
0.03608508478178063,0.03608508478178063
0.04235024037064353,0.04235024037064353
0.05162267064216062,0.05162267064216062
0.06214813203145029,0.06214813203145029
0.06791207517320416,0.06791207517320416
0.06891450006742222,0.06891450006742222
0.0716711685265219,0.0716711685265219
0.0824472361393661,0.0824472361393661
0.09698239710552801,0.09698239710552801
0.10650543360059962,0.10650543360059962
0.11026452695391736,0.11026452695391736
0.11728150121344381,0.11728150121344381
0.12830817504984252,0.12830817504984252
0.13181666217960575,0.13181666217960575
0.12204301946097962,0.12204301946097962
0.11151755807168995,0.11151755807168995
0.1155272576485622,0.1155272576485622
0.12981181239116962,0.12981181239116962
0.135826361756478,0.135826361756478
0.12404786924941574,0.12404786924941574
0.1045005838121635,0.1045005838121635
0.08946421039889255,0.08946421039889255
0.07868814278604835,0.07868814278604835
0.06039388846656868,0.06039388846656868
0.029819929192917732,0.029819929192917732
-0.004262517210496441,-0.004262517210496441
-0.029323139565948037,-0.029323139565948037
-0.04110163207301029,-0.04110163207301029
-0.04686557521476416,-0.04686557521476416
-0.052880124580072546,-0.052880124580072546
-0.06089952373381705,-0.06089952373381705
-0.068167104216898,-0.068167104216898
-0.07192619757021575,-0.07192619757021575
-0.0726780162408793,-0.0726780162408793
-0.07242741001732478,-0.07242741001732478
-0.07493347225286995,-0.07493347225286995
-0.08195044651239639,-0.08195044651239639
-0.09097227056035896,-0.09097227056035896
-0.099242275937658,-0.099242275937658
-0.1057580377500754,-0.1057580377500754
-0.10926652487983864,-0.10926652487983864
-0.11001834355050218,-0.11001834355050218
-0.10951713110339314,-0.10951713110339314
-0.11077016222116573,-0.11077016222116573
-0.11452925557448347,-0.11452925557448347
-0.11753653025713766,-0.11753653025713766
-0.11803774270424669,-0.11803774270424669
-0.11853895515135572,-0.11853895515135572
-0.12330047339889152,-0.12330047339889152
-0.12831259786998184,-0.12831259786998184
-0.13056805388197248,-0.13056805388197248
-0.1275607791993183,-0.1275607791993183
-0.12555592941088217,-0.12555592941088217
-0.12655835430510023,-0.12655835430510023
-0.13031744765841796,-0.13031744765841796
-0.13307411611751765,-0.13307411611751765
-0.13006684143486347,-0.13006684143486347
-0.12154622983400991,-0.12154622983400991
-0.1120231933389383,-0.1120231933389383
-0.10701106886784799,-0.10701106886784799
-0.10375318796163928,-0.10375318796163928
-0.09999409460832154,-0.09999409460832154
-0.09974348838476703,-0.09974348838476703
-0.09874106349054897,-0.09874106349054897
-0.05764164282760835,-0.05764164282760835
0.0746784432091761,0.0746784432091761
0.30273010664378563,0.30273010664378563
0.5533363301983015,0.5533363301983015
0.7315173551455624,0.7315173551455624
0.8044437661999265,0.8044437661999265
0.8122125591301166,0.8122125591301166
0.7934170923635279,0.7934170923635279
0.7232473497682634,0.7232473497682634
0.5455675372681116,0.5455675372681116
0.2668934166754899,0.2668934166754899
-0.012031310140686435,-0.012031310140686435
-0.17567717412178538,-0.17567717412178538
-0.1919665786528289,-0.1919665786528289
-0.12505471696377313,-0.12505471696377313
-0.060147705063153506,-0.060147705063153506
-0.03834496361391062,-0.03834496361391062
-0.05513558059206319,-0.05513558059206319
-0.09072166433680445,-0.09072166433680445
-0.130818660105527,-0.130818660105527
-0.15788413224941472,-0.15788413224941472
-0.14309836505969828,-0.14309836505969828
-0.05889467394538093,-0.05889467394538093
0.07918935523315739,0.07918935523315739
0.19146094338558053,0.19146094338558053
0.1892054873735899,0.1892054873735899
0.05989267601945965,0.05989267601945965
-0.09823985104343994,-0.09823985104343994
-0.1636480753911686,-0.1636480753911686
-0.08445650874794156,-0.08445650874794156
0.09071724151666512,0.09071724151666512
0.27416099715857084,0.27416099715857084
0.3879362226523211,0.3879362226523211
0.38743501020521204,0.38743501020521204
0.2648885668870537,0.2648885668870537
0.06039388846656868,0.06039388846656868
-0.1526214015547699,-0.1526214015547699
-0.29321149296885335,-0.29321149296885335
-0.31802150910075044,-0.31802150910075044
-0.2496060100703676,-0.2496060100703676
-0.16715656252093183,-0.16715656252093183
-0.13407654101173572,-0.13407654101173572
-0.13482835968239926,-0.13482835968239926
-0.10801349376206605,-0.10801349376206605
-0.04185345074367384,-0.04185345074367384
0.019545074027182578,0.019545074027182578
0.0651554067141045,0.0651554067141045
0.14960970405197638,0.14960970405197638
0.2816791838652063,0.2816791838652063
0.35886590071999724,0.35886590071999724
0.27466220960567983,0.27466220960567983
0.08620632949268384,0.08620632949268384
-0.007520398116705148,-0.007520398116705148
0.12454908169652477,0.12454908169652477
0.3821722795105672,0.3821722795105672
0.5362951069965944,0.5362951069965944
0.4638699083893394,0.4638699083893394
0.25937522996885437,0.25937522996885437
0.10349815891794543,0.10349815891794543
0.07943996145671191,0.07943996145671191
0.13858303021557766,0.13858303021557766
0.20449246701041537,0.20449246701041537
0.253360680603546,0.253360680603546
0.2974673759491408,0.2974673759491408
0.339318615282745,0.339318615282745
0.3711456056741685,0.3711456056741685
0.38718440398165754,0.38718440398165754
0.3914447097820843,0.3914447097820843
0.38943985999364816,0.38943985999364816
0.38743501020521204,0.38743501020521204
0.3886880413229846,0.3886880413229846
0.3989628964887198,0.3989628964887198
0.42026442549085363,0.42026442549085363
0.44707929141118685,0.44707929141118685
0.46412051461289394,0.46412051461289394
0.4588577839182491,0.4588577839182491
0.43479958645701555,0.43479958645701555
0.4012183525007104,0.4012183525007104
0.35560801981378853,0.35560801981378853
0.29571313238425917,0.29571313238425917
0.24283521921425633,0.24283521921425633
0.24032915697871116,0.24032915697871116
0.3039831377615582,0.3039831377615582
0.3844277355225578,0.3844277355225578
0.3957050155825111,0.3957050155825111
0.30147707552601305,0.30147707552601305
0.1561254658643938,0.1561254658643938
0.06590722538476804,0.06590722538476804
0.08019178012737545,0.08019178012737545
0.15186516006396703,0.15186516006396703
0.17767760109008215,0.17767760109008215
0.10049088423529125,0.10049088423529125
-0.048619818779645774,-0.048619818779645774
-0.18269414838131182,-0.18269414838131182
-0.24283964203439565,-0.24283964203439565
-0.23055993708022438,-0.23055993708022438
-0.18620263551107505,-0.18620263551107505
-0.13758502814149895,-0.13758502814149895
-0.09322772657234961,-0.09322772657234961
-0.05162709346229996,-0.05162709346229996
-0.013284341258459014,-0.013284341258459014
0.024306592274718382,0.024306592274718382
0.06791207517320416,0.06791207517320416
0.14560000447510413,0.14560000447510413
0.29922161951402243,0.29922161951402243
0.5307817700783951,0.5307817700783951
0.7447994849939518,0.7447994849939518
0.8041931599763721,0.8041931599763721
0.6620994312209615,0.6620994312209615
0.42803321842104364,0.42803321842104364
0.25386189305065504,0.25386189305065504
0.19146094338558053,0.19146094338558053
0.1764245699723096,0.1764245699723096
0.14459757958088607,0.14459757958088607
0.10600422115349059,0.10600422115349059
0.0967317908819735,0.0967317908819735
0.11101634562458092,0.11101634562458092
0.10775846471837221,0.10775846471837221
0.08470269215135674,0.08470269215135674
0.08770996683401093,0.08770996683401093
0.1390842426626867,0.1390842426626867
0.18669942513804474,0.18669942513804474
0.16364365257102928,0.16364365257102928
0.08495329837491125,0.08495329837491125
0.047362364841733846,0.047362364841733846
0.11803331988410737,0.11803331988410737
0.25285946815643695,0.25285946815643695
0.35335256380179786,0.35335256380179786
0.37690954881592237,0.37690954881592237
0.35435498869601595,0.35435498869601595
0.29671555727847726,0.29671555727847726
0.16464607746524734,0.16464607746524734
-0.05037406234452738,-0.05037406234452738
-0.2548687407650124,-0.2548687407650124
-0.33481212607890304,-0.33481212607890304
-0.2776739071084734,-0.2776739071084734
-0.1731711118862402,-0.1731711118862402
-0.10500621907941186,-0.10500621907941186
-0.08646135853637768,-0.08646135853637768
-0.09047105811324993,-0.09047105811324993
-0.10074591327898509,-0.10074591327898509
-0.11553168046870153,-0.11553168046870153
-0.12806199164642734,-0.12806199164642734
-0.11728592403358315,-0.11728592403358315
-0.07017195400533414,-0.07017195400533414
-0.0027588798691693447,-0.0027588798691693447
0.032576597652017404,0.032576597652017404
0.006513550402347746,0.006513550402347746
-0.045863150320546095,-0.045863150320546095
-0.040349813402346744,-0.040349813402346744
0.053376914207042235,0.053376914207042235
0.1686557770421196,0.1686557770421196
0.19672367408022537,0.19672367408022537
0.09247148508154673,0.09247148508154673
-0.08871681454836833,-0.08871681454836833
-0.2343190304335421,-0.2343190304335421
-0.26138450257742984,-0.26138450257742984
-0.16916141230936796,-0.16916141230936796
-0.030826776907275134,-0.030826776907275134
0.08520390459846577,0.08520390459846577
0.17416911396031895,0.17416911396031895
0.2846864585478605,0.2846864585478605
0.4523420221058317,0.4523420221058317
0.6518245760552264,0.6518245760552264
0.8234898391900698,0.8234898391900698
0.9480411322966642,0.9480411322966642
1.0660766635908412,1.0660766635908412
1.1740879459428377,1.1740879459428377
1.138251255974542,1.138251255974542
0.8355189379206865,0.8355189379206865
0.3866831915345485,0.3866831915345485
0.10650543360059962,0.10650543360059962
0.15136394761685798,0.15136394761685798
0.3686395434386233,0.3686395434386233
0.5528351177511925,0.5528351177511925
0.692422784271058,0.692422784271058
0.8282513574376056,0.8282513574376056
0.8538131922401663,0.8538131922401663
0.6443063893485909,0.6443063893485909
0.2977179821726953,0.2977179821726953
0.06791207517320416,0.06791207517320416
0.06891450006742222,0.06891450006742222
0.17542214507809153,0.17542214507809153
0.22479157111833117,0.22479157111833117
0.20248761722197925,0.20248761722197925
0.20574549812818796,0.20574549812818796
0.27290796604079826,0.27290796604079826
0.34232588996539914,0.34232588996539914
0.34984407667203465,0.34984407667203465
0.32478345431658306,0.32478345431658306
0.3255352729872466,0.3255352729872466
0.36462984386175107,0.36462984386175107
0.40948835787800947,0.40948835787800947
0.4478311100818504,0.4478311100818504
0.4693832453075388,0.4693832453075388
0.4375562549161152,0.4375562549161152
0.3358101281529817,0.3358101281529817
0.22729763335387632,0.22729763335387632
0.18569700024382668,0.18569700024382668
0.21125883504638732,0.21125883504638732
0.23732188229605697,0.23732188229605697
0.22604460223610376,0.22604460223610376
0.18995730604425345,0.18995730604425345
0.15762910320572088,0.15762910320572088
0.14585061069865862,0.14585061069865862
0.1533687974052941,0.1533687974052941
0.1561254658643938,0.1561254658643938
0.1468530355928767,0.1468530355928767
0.16640032103012894,0.16640032103012894
0.2581221988510818,0.2581221988510818
0.37064439322705944,0.37064439322705944
0.3911941035585298,0.3911941035585298
0.2884455519011782,0.2884455519011782
0.17692578241941861,0.17692578241941861
0.16990880815989218,0.16990880815989218
0.2440882503320289,0.2440882503320289
0.2879443394540692,0.2879443394540692
0.2681464477932624,0.2681464477932624
0.2511052245915553,0.2511052245915553
0.2826816087594244,0.2826816087594244
0.2994722257375769,0.2994722257375769
0.22704702713032182,0.22704702713032182
0.1092621020596993,0.1092621020596993
0.07893874900960286,0.07893874900960286
0.1799330571020728,0.1799330571020728
0.30022404440824046,0.30022404440824046
0.31526041782151143,0.31526041782151143
0.24233400676714728,0.24233400676714728
0.19897913009221602,0.19897913009221602
0.2518570432622189,0.2518570432622189
0.3606201442848788,0.3606201442848788
0.45935899636535815,0.45935899636535815
0.5167478215593422,0.5167478215593422
0.521008127359769,0.521008127359769
0.456852934129813,0.456852934129813
0.3438295273067263,0.3438295273067263
0.25837280507463634,0.25837280507463634
0.2826816087594244,0.2826816087594244
0.40648108319535525,0.40648108319535525
0.5245166144895322,0.5245166144895322
0.5377987443379215,0.5377987443379215
0.4408141358223239,0.4408141358223239
0.284937064771415,0.284937064771415
0.11101634562458092,0.11101634562458092
-0.044108906755664486,-0.044108906755664486
-0.12154622983400991,-0.12154622983400991
-0.09272651412524058,-0.09272651412524058
-0.0032600923162783768,-0.0032600923162783768
0.07442783698562158,0.07442783698562158
0.10625482737704511,0.10625482737704511
0.08846178550467447,0.08846178550467447
0.03207538520490838,0.03207538520490838
-0.015539797270449658,-0.015539797270449658
0.01127506864988355,0.01127506864988355
0.11226937674235349,0.11226937674235349
0.21201065371705086,0.21201065371705086
0.25160643703866437,0.25160643703866437
0.26062826108662696,0.26062826108662696
0.2791731216296611,0.2791731216296611
0.2661415980048263,0.2661415980048263
0.14935909782842186,0.14935909782842186
-0.026315864883293846,-0.026315864883293846
-0.08971923944258639,-0.08971923944258639
0.05588297644258739,0.05588297644258739
0.2556161366155366,0.2556161366155366
0.2548643179448731,0.2548643179448731
0.038591147017325786,0.038591147017325786
-0.13507896590595378,-0.13507896590595378
-0.09172408923102252,-0.09172408923102252
0.025309017168936444,0.025309017168936444
0.0012508197077029108,0.0012508197077029108
-0.13783563436505344,-0.13783563436505344
-0.20123900892434599,-0.20123900892434599
-0.11302561823315638,-0.11302561823315638
0.03934296568798934,0.03934296568798934
0.14760485426354025,0.14760485426354025
0.14785546048709478,0.14785546048709478
0.02681265451026354,0.02681265451026354
-0.12405229206955508,-0.12405229206955508
-0.14861170197789764,-0.14861170197789764
-0.02105313418864901,-0.02105313418864901
0.07943996145671191,0.07943996145671191
-0.00927464168158676,-0.00927464168158676
-0.20524870850121826,-0.20524870850121826
-0.28418966892089076,-0.28418966892089076
-0.17743141768666698,-0.17743141768666698
-0.05613800548628125,-0.05613800548628125
-0.1055074315265209,-0.1055074315265209
-0.29170785562752627,-0.29170785562752627
-0.4160085425105662,-0.4160085425105662
-0.3724030596120804,-0.3724030596120804
-0.2676496581662927,-0.2676496581662927
-0.25562055943567596,-0.25562055943567596
-0.34659061858596524,-0.34659061858596524
-0.43304976571227327,-0.43304976571227327
-0.4508428075846439,-0.4508428075846439
-0.421271273205211,-0.421271273205211
-0.37290427205918947,-0.37290427205918947
-0.3059924103701337,-0.3059924103701337
-0.2343190304335421,-0.2343190304335421
-0.19873294668880084,-0.19873294668880084
-0.21878144457316212,-0.21878144457316212
-0.2588784403418847,-0.2588784403418847
-0.26138450257742984,-0.26138450257742984
-0.20324385871278214,-0.20324385871278214
-0.1150304680215925,-0.1150304680215925
-0.0583934614982719,-0.0583934614982719
-0.06992134778177962,-0.06992134778177962
-0.13633199702372636,-0.13633199702372636
-0.21276689520785375,-0.21276689520785375
-0.2668978394956292,-0.2668978394956292
-0.29321149296885335,-0.29321149296885335
-0.29646937387506206,-0.29646937387506206
-0.28068118179112755,-0.28068118179112755
-0.24409267315216823,-0.24409267315216823
-0.19848234046524632,-0.19848234046524632
-0.1654023189560502,-0.1654023189560502
-0.1654023189560502,-0.1654023189560502
-0.1839471794990844,-0.1839471794990844
-0.1811905110399847,-0.1811905110399847
-0.11828834892780121,-0.11828834892780121
0.014532949556092259,0.014532949556092259
0.20449246701041537,0.20449246701041537
0.4192620005966356,0.4192620005966356
0.6099733367216221,0.6099733367216221
0.7237485622153724,0.7237485622153724
0.7387849356286433,0.7387849356286433
0.6681139805862699,0.6681139805862699
0.5285263140664045,0.5285263140664045
0.31851829872772014,0.31851829872772014
0.05087085197149707,0.05087085197149707
-0.2105114391958631,-0.2105114391958631
-0.3769139716360617,-0.3769139716360617
-0.412500055380803,-0.412500055380803
-0.36338123556411783,-0.36338123556411783
-0.31351059707676915,-0.31351059707676915
-0.29972725478127077,-0.29972725478127077
-0.3004790734519343,-0.3004790734519343
-0.2826860315795637,-0.2826860315795637
-0.2531144972001308,-0.2531144972001308
-0.2435914607050592,-0.2435914607050592
-0.2621363212480934,-0.2621363212480934
-0.27867633200269143,-0.27867633200269143
-0.2699051141782834,-0.2699051141782834
-0.25336510342368534,-0.25336510342368534
-0.26363995858942046,-0.26363995858942046
-0.30198271079326144,-0.30198271079326144
-0.3267927269251585,-0.3267927269251585
-0.3092502912763424,-0.3092502912763424
-0.2686520830605108,-0.2686520830605108
-0.2531144972001308,-0.2531144972001308
-0.2796787568969095,-0.2796787568969095
-0.3162672655358688,-0.3162672655358688
-0.32604090825449494,-0.32604090825449494
-0.3097515037234514,-0.3097515037234514
-0.295466948980844,-0.295466948980844
-0.28193421290890014,-0.28193421290890014
-0.2455963104934953,-0.2455963104934953
-0.19071354753505632,-0.19071354753505632
-0.1666553500738228,-0.1666553500738228
-0.19572567200614666,-0.19572567200614666
-0.24108539846951405,-0.24108539846951405
-0.2623869274716479,-0.2623869274716479
-0.2668978394956292,-0.2668978394956292
-0.2689026892840653,-0.2689026892840653
-0.25035782874103113,-0.25035782874103113
-0.20549931472477276,-0.20549931472477276
-0.18169172348709375,-0.18169172348709375
-0.21928265702027114,-0.21928265702027114
-0.2879487622742085,-0.2879487622742085
-0.32478787713672236,-0.32478787713672236
-0.30423816680525206,-0.30423816680525206
-0.2355720615513147,-0.2355720615513147
-0.1415947277183712,-0.1415947277183712
-0.0741816535822064,-0.0741816535822064
-0.09573378880789477,-0.09573378880789477
-0.19246779109993795,-0.19246779109993795
-0.2551193469885669,-0.2551193469885669
-0.1949738533354831,-0.1949738533354831
-0.05363194325073609,-0.05363194325073609
0.045106908829743206,0.045106908829743206
0.0355838723346716,0.0355838723346716
-0.042104056967228354,-0.042104056967228354
-0.10650985642073896,-0.10650985642073896
-0.10976773732694767,-0.10976773732694767
-0.05112588101519093,-0.05112588101519093
0.04786357728884288,0.04786357728884288
0.15412061607595767,0.15412061607595767
0.2315579391543031,0.2315579391543031
0.25386189305065504,0.25386189305065504
0.22278672132989505,0.22278672132989505
0.16765335214790153,0.16765335214790153
0.12279483813164317,0.12279483813164317
0.10324755269439093,0.10324755269439093
0.10800907094192673,0.10800907094192673
0.143595154686668,0.143595154686668
0.22579399601254924,0.22579399601254924
0.3503452891191437,0.3503452891191437
0.4701350639782023,0.4701350639782023
0.528776920289959,0.528776920289959
0.5164972153357877,0.5164972153357877
0.4636193021657849,0.4636193021657849
0.3806686421692401,0.3806686421692401
0.245591887673356,0.245591887673356
0.06791207517320416,0.06791207517320416
-0.07794074693552414,-0.07794074693552414
-0.12380168584600056,-0.12380168584600056
-0.08445650874794156,-0.08445650874794156
-0.02982435201305707,-0.02982435201305707
0.0004990010370393629,0.0004990010370393629
0.016036586897419356,0.016036586897419356
0.03282720387557192,0.03282720387557192
0.044605696382634175,0.044605696382634175
0.043102059041307074,0.043102059041307074
0.030321141640026767,0.030321141640026767
0.01628719312097387,0.01628719312097387
0.005009913061020651,0.005009913061020651
-0.0030094860927238607,-0.0030094860927238607
-0.007771004340259665,-0.007771004340259665
-0.008272216787368695,-0.008272216787368695
-0.0040119109869419245,-0.0040119109869419245
0.005009913061020651,0.005009913061020651
0.017289618015191934,0.017289618015191934
0.030321141640026767,0.030321141640026767
0.034581447440453536,0.034581447440453536
0.022051136262727738,0.022051136262727738
0.0012508197077029108,0.0012508197077029108
-0.004513123434050957,-0.004513123434050957
0.01378113088542871,0.01378113088542871
0.03783932834666224,0.03783932834666224
0.050620245747942556,0.050620245747942556
0.05964206979590513,0.05964206979590513
0.08395087348069319,0.08395087348069319
0.12254423190808865,0.12254423190808865
0.15036152272263992,0.15036152272263992
0.14159030489823188,0.14159030489823188
0.08946421039889255,0.08946421039889255
0.01703901179163742,0.01703901179163742
-0.02606525865973933,-0.02606525865973933
-0.0027588798691693447,-0.0027588798691693447
0.06816268139675868,0.06816268139675868
0.11226937674235349,0.11226937674235349
0.07392662453851255,0.07392662453851255
-0.022556771529976108,-0.022556771529976108
-0.09297712034879509,-0.09297712034879509
-0.08821560210125928,-0.08821560210125928
-0.054133155697845124,-0.054133155697845124
-0.08169984028884188,-0.08169984028884188
-0.19397142844126503,-0.19397142844126503
-0.311004534841224,-0.311004534841224
-0.3255396958073859,-0.3255396958073859
-0.20950901430164504,-0.20950901430164504
-0.030826776907275134,-0.030826776907275134
0.10399937136505447,0.10399937136505447
0.11627907631922575,0.11627907631922575
0.0012508197077029108,0.0012508197077029108
-0.16465050028538666,-0.16465050028538666
-0.2801799693440185,-0.2801799693440185
-0.3079972601585698,-0.3079972601585698
-0.29872482988705273,-0.29872482988705273
-0.31476362819454173,-0.31476362819454173
-0.350349711939283,-0.350349711939283
-0.3433327376797566,-0.3433327376797566
-0.2671484457191837,-0.2671484457191837
-0.18018808614576665,-0.18018808614576665
-0.15487685756676053,-0.15487685756676053
-0.1902123350879473,-0.1902123350879473
-0.2170272010082805,-0.2170272010082805
-0.20249204004211857,-0.20249204004211857
-0.17417353678045827,-0.17417353678045827
-0.14760927708367957,-0.14760927708367957
-0.08320347763016897,-0.08320347763016897
0.029569322969363217,0.029569322969363217
0.11652968254278026,0.11652968254278026
0.10825967716548124,0.10825967716548124
0.03282720387557192,0.03282720387557192
-0.032581020472156746,-0.032581020472156746
-0.06942013533467059,-0.06942013533467059
-0.11402804312737444,-0.11402804312737444
-0.1684095936387044,-0.1684095936387044
-0.17392293055690375,-0.17392293055690375
-0.07568529092353349,-0.07568529092353349
0.12605271903785187,0.12605271903785187
0.37465409280393175,0.37465409280393175
0.6004503002265505,0.6004503002265505
0.7525682779241417,0.7525682779241417
0.8199813520603065,0.8199813520603065
0.8209837769545246,0.8209837769545246
0.7746216255969391,0.7746216255969391
0.6738779237280238,0.6738779237280238
0.49569689878076295,0.49569689878076295
0.24333643166136534,0.24333643166136534
-0.012031310140686435,-0.012031310140686435
-0.1654023189560502,-0.1654023189560502
-0.1666553500738228,-0.1666553500738228
-0.06591164820490737,-0.06591164820490737
0.03934296568798934,0.03934296568798934
0.08019178012737545,0.08019178012737545
0.038591147017325786,0.038591147017325786
-0.0679164979933435,-0.0679164979933435
-0.19046294131150182,-0.19046294131150182
-0.2673990519427382,-0.2673990519427382
-0.2689026892840653,-0.2689026892840653
-0.2275526623975702,-0.2275526623975702
-0.19873294668880084,-0.19873294668880084
-0.1982317342416918,-0.1982317342416918
-0.19873294668880084,-0.19873294668880084
-0.17993747992221215,-0.17993747992221215
-0.1649011065089412,-0.1649011065089412
-0.1729205056626857,-0.1729205056626857
-0.1729205056626857,-0.1729205056626857
-0.1040037941851938,-0.1040037941851938
0.034080234993344505,0.034080234993344505
0.15236637251107604,0.15236637251107604
0.15136394761685798,0.15136394761685798
0.02581022961604548,0.02581022961604548
-0.13307411611751765,-0.13307411611751765
-0.23807812378685986,-0.23807812378685986
-0.27842572577913693,-0.27842572577913693
-0.294965736533735,-0.294965736533735
-0.30574180414657914,-0.30574180414657914
-0.29195846185108076,-0.29195846185108076
-0.2433408544815047,-0.2433408544815047
-0.19296900354704696,-0.19296900354704696
-0.18043869236932117,-0.18043869236932117
-0.20474749605410922,-0.20474749605410922
-0.22730205617401567,-0.22730205617401567
-0.22279114415003437,-0.22279114415003437
-0.20073779647723697,-0.20073779647723697
-0.1824435421577573,-0.1824435421577573
-0.1729205056626857,-0.1729205056626857
-0.16314686294405956,-0.16314686294405956
-0.15061655176633376,-0.15061655176633376
-0.14410078995391634,-0.14410078995391634
-0.14911291442500668,-0.14911291442500668
-0.15688170735519666,-0.15688170735519666
-0.15612988868453312,-0.15612988868453312
-0.1446020024010254,-0.1446020024010254
-0.13332472234107218,-0.13332472234107218
-0.13006684143486347,-0.13006684143486347
-0.13307411611751765,-0.13307411611751765
-0.13307411611751765,-0.13307411611751765
-0.11954138004557378,-0.11954138004557378
-0.08646135853637768,-0.08646135853637768
-0.03734253871969255,-0.03734253871969255
0.013530524661874195,0.013530524661874195
0.055131157771923844,0.055131157771923844
0.08670754193979287,0.08670754193979287
0.11251998296590801,0.11251998296590801
0.1343227244151509,0.1343227244151509
0.15437122229951217,0.15437122229951217
0.17868002598430022,0.17868002598430022
0.21251186616415987,0.21251186616415987
0.2531100743799915,0.2531100743799915
0.29120222036027793,0.29120222036027793
0.3162628427157295,0.3162628427157295
0.3257858792108011,0.3257858792108011
0.31952072362193823,0.31952072362193823
0.29997343818468597,0.29997343818468597
0.27190554114658017,0.27190554114658017
0.24509067522624697,0.24509067522624697
0.22804945202453988,0.22804945202453988
0.21677217196458665,0.21677217196458665
0.19797670519799795,0.19797670519799795
0.1641448650181383,0.1641448650181383
0.1232960505787522,0.1232960505787522
0.08846178550467447,0.08846178550467447
0.06289995070211384,0.06289995070211384
0.04059599680576192,0.04059599680576192
0.01804143668585548,0.01804143668585548
-0.001004636304287733,-0.001004636304287733
-0.011780703917131919,-0.011780703917131919
-0.016291615941113207,-0.016291615941113207
-0.020301315517985464,-0.020301315517985464
-0.030074958236611587,-0.030074958236611587
-0.044359512979219,-0.044359512979219
-0.057892249051162865,-0.057892249051162865
-0.06340558596936222,-0.06340558596936222
-0.061400736180926084,-0.061400736180926084
-0.052378912132963515,-0.052378912132963515
-0.03458587026059288,-0.03458587026059288
0.0002483948134848469,0.0002483948134848469
0.05412873287770578,0.05412873287770578
0.11151755807168995,0.11151755807168995
0.13933484888624123,0.13933484888624123
0.11251998296590801,0.11251998296590801
0.03733811589955321,0.03733811589955321
-0.04761739388542771,-0.04761739388542771
-0.099242275937658,-0.099242275937658
-0.10124712572609412,-0.10124712572609412
-0.06916952911111608,-0.06916952911111608
-0.029323139565948037,-0.029323139565948037
0.004258094390357102,0.004258094390357102
0.031072960310690314,0.031072960310690314
0.05162267064216062,0.05162267064216062
0.06264934447855933,0.06264934447855933
0.0639023755963319,0.0639023755963319
0.06214813203145029,0.06214813203145029
0.06415298181988642,0.06415298181988642
0.06791207517320416,0.06791207517320416
0.07016753118519481,0.07016753118519481
0.07217238097363093,0.07217238097363093
0.07768571789183029,0.07768571789183029
0.08044238635092997,0.08044238635092997
0.06665904405543159,0.06665904405543159
0.031824778981353864,0.031824778981353864
-0.00927464168158676,-0.00927464168158676
-0.0333328391428203,-0.0333328391428203
-0.0318292018014932,-0.0318292018014932
-0.018797678176658367,-0.018797678176658367
-0.012783128811349983,-0.012783128811349983
-0.017043434611776754,-0.017043434611776754
-0.020050709294430948,-0.020050709294430948
-0.013033735034904499,-0.013033735034904499
0.0015014259312574269,0.0015014259312574269
0.013029312214765163,0.013029312214765163
0.015535374450310323,0.015535374450310323
0.008017187743674842,0.008017187743674842
-0.004262517210496441,-0.004262517210496441
-0.01679282838822224,-0.01679282838822224
-0.027568896001066427,-0.027568896001066427
-0.039096782284574166,-0.039096782284574166
-0.05187769968585448,-0.05187769968585448
-0.06515982953424382,-0.06515982953424382
-0.07718892826486058,-0.07718892826486058
-0.08671196475993219,-0.08671196475993219
-0.09999409460832154,-0.09999409460832154
-0.11803774270424669,-0.11803774270424669
-0.13808624058860797,-0.13808624058860797
-0.14811048953078862,-0.14811048953078862
-0.1466068521894615,-0.1466068521894615
-0.13958987792993507,-0.13958987792993507
-0.1365826032472809,-0.1365826032472809
-0.1415947277183712,-0.1415947277183712
-0.15487685756676053,-0.15487685756676053
-0.17367232433334923,-0.17367232433334923
-0.18319536082842083,-0.18319536082842083
-0.16941201853292245,-0.16941201853292245
-0.14109351527126215,-0.14109351527126215
-0.1258065356344367,-0.1258065356344367
-0.12806199164642734,-0.12806199164642734
-0.099242275937658,-0.099242275937658
0.024807804721827413,0.024807804721827413
0.24935098102667375,0.24935098102667375
0.4982029610163081,0.4982029610163081
0.6771358046342325,0.6771358046342325
0.757580402395232,0.757580402395232
0.7776289002795934,0.7776289002795934
0.7726167758085031,0.7726167758085031
0.7114688572612011,0.7114688572612011
0.5352926821023765,0.5352926821023765
0.24859916235601018,0.24859916235601018
-0.0395979947316832,-0.0395979947316832
-0.20123900892434599,-0.20123900892434599
-0.20675234584254534,-0.20675234584254534
-0.13984048415348957,-0.13984048415348957
-0.09397954524301316,-0.09397954524301316
-0.08921802699547736,-0.08921802699547736
-0.09347833279590413,-0.09347833279590413
-0.09072166433680445,-0.09072166433680445
-0.08946863321903187,-0.08946863321903187
-0.09297712034879509,-0.09297712034879509
-0.09172408923102252,-0.09172408923102252
-0.08671196475993219,-0.08671196475993219
-0.08721317720704122,-0.08721317720704122
-0.09222530167813155,-0.09222530167813155
-0.09197469545457702,-0.09197469545457702
-0.08445650874794156,-0.08445650874794156
-0.08094802161817832,-0.08094802161817832
-0.0852083274186051,-0.0852083274186051
-0.09122287678391348,-0.09122287678391348
-0.0884662083248138,-0.0884662083248138
-0.07769014071196961,-0.07769014071196961
-0.06741528554623447,-0.06741528554623447
-0.06566104198135285,-0.06566104198135285
-0.07017195400533414,-0.07017195400533414
-0.07167559134666124,-0.07167559134666124
-0.06666346687557091,-0.06666346687557091
-0.0583934614982719,-0.0583934614982719
-0.05313073080362706,-0.05313073080362706
-0.052880124580072546,-0.052880124580072546
-0.05613800548628125,-0.05613800548628125
-0.059145280168935443,-0.059145280168935443
-0.0583934614982719,-0.0583934614982719
-0.054634368144954155,-0.054634368144954155
-0.05187769968585448,-0.05187769968585448
-0.05112588101519093,-0.05112588101519093
-0.04811860633253674,-0.04811860633253674
-0.0395979947316832,-0.0395979947316832
-0.027067683553957392,-0.027067683553957392
-0.01604100971755869,-0.01604100971755869
-0.00927464168158676,-0.00927464168158676
-0.006517973222487085,-0.006517973222487085
-0.005515548328269021,-0.005515548328269021
-0.0032600923162783768,-0.0032600923162783768
0.005511125508129683,0.005511125508129683
0.02079810514495516,0.02079810514495516
0.038591147017325786,0.038591147017325786
0.05162267064216062,0.05162267064216062
0.0591408573487961,0.0591408573487961
0.06590722538476804,0.06590722538476804
0.0779363241153848,0.0779363241153848
0.09648118465841898,0.09648118465841898
0.11978756344898897,0.11978756344898897
0.14434697335733154,0.14434697335733154
0.16765335214790153,0.16765335214790153
0.1889548811500354,0.1889548811500354
0.20900337903439667,0.20900337903439667
0.22905187691875795,0.22905187691875795
0.25060401214444633,0.25060401214444633
0.2726573598172437,0.2726573598172437
0.292705857701605,0.292705857701605
0.3099976871268666,0.3099976871268666
0.3267883041050192,0.3267883041050192
0.3413234650711811,0.3413234650711811
0.3503452891191437,0.3503452891191437
0.3528513513546888,0.3528513513546888
0.3526007451311343,0.3526007451311343
0.35109710778980724,0.35109710778980724
0.3438295273067263,0.3438295273067263
0.3257858792108011,0.3257858792108011
0.29922161951402243,0.29922161951402243
0.269399478911035,0.269399478911035
0.24032915697871116,0.24032915697871116
0.2160203532939231,0.2160203532939231
0.20223701099842473,0.20223701099842473
0.19772609897444343,0.19772609897444343
0.19446821806823475,0.19446821806823475
0.18544639402027216,0.18544639402027216
0.17542214507809153,0.17542214507809153
0.17266547661899184,0.17266547661899184
0.17943184465496378,0.17943184465496378
0.18845366870292635,0.18845366870292635
0.19597185540956183,0.19597185540956183
0.1987285238686615,0.1987285238686615
0.198477917645107,0.198477917645107
0.19647306785667087,0.19647306785667087
0.1987285238686615,0.1987285238686615
0.2047430732339699,0.2047430732339699
0.21376489728193246,0.21376489728193246
0.2235385400005586,0.2235385400005586
0.23707127607250245,0.23707127607250245
0.25160643703866437,0.25160643703866437
0.2613800797572905,0.2613800797572905
0.26062826108662696,0.26062826108662696
0.2546137117213186,0.2546137117213186
0.2511052245915553,0.2511052245915553
0.25411249927420954,0.25411249927420954
0.2598764424159634,0.2598764424159634
0.2661415980048263,0.2661415980048263
0.2724067535936892,0.2724067535936892
0.2786719091825521,0.2786719091825521
0.28117797141809725,0.28117797141809725
0.27892251540610663,0.27892251540610663
0.2756646344998979,0.2756646344998979
0.2794237278532157,0.2794237278532157
0.28669130833629664,0.28669130833629664
0.28869615812473276,0.28869615812473276
0.28117797141809725,0.28117797141809725
0.27165493492302567,0.27165493492302567
0.2648885668870537,0.2648885668870537
0.2553655303919821,0.2553655303919821
0.23581824495472986,0.23581824495472986
0.2127624723877144,0.2127624723877144
0.19471882429178924,0.19471882429178924
0.18193790689050893,0.18193790689050893
0.16539789613591088,0.16539789613591088
0.14434697335733154,0.14434697335733154
0.12905999372050606,0.12905999372050606
0.13031302483827864,0.13031302483827864
0.143595154686668,0.143595154686668
0.15587485964083928,0.15587485964083928
0.15888213432349346,0.15888213432349346
0.15762910320572088,0.15762910320572088
0.15813031565282992,0.15813031565282992
0.1578797094292754,0.1578797094292754
0.1498603102755309,0.1498603102755309
0.13557575553292348,0.13557575553292348
0.12204301946097962,0.12204301946097962
0.1137730140836806,0.1137730140836806
0.10901149583614479,0.10901149583614479
0.10424997758860899,0.10424997758860899
0.09547875976420092,0.09547875976420092
0.08194602369225706,0.08194602369225706
0.0651554067141045,0.0651554067141045
0.05162267064216062,0.05162267064216062
0.04335266526486159,0.04335266526486159
0.04084660302931643,0.04084660302931643
0.03608508478178063,0.03608508478178063
0.02756447318092709,0.02756447318092709
0.016036586897419356,0.016036586897419356
0.007766581520120326,0.007766581520120326
0.0002483948134848469,0.0002483948134848469
-0.009024035458032244,-0.009024035458032244
-0.01729404083533127,-0.01729404083533127
-0.017795253282440304,-0.017795253282440304
-0.012532522587795468,-0.012532522587795468
-0.00927464168158676,-0.00927464168158676
-0.00802161056381418,-0.00802161056381418
-0.001004636304287733,-0.001004636304287733
0.00751597529656581,0.00751597529656581
0.0062629441787932305,0.0062629441787932305
0.014532949556092259,0.014532949556092259
0.08871239172822899,0.08871239172822899
0.26664281045193533,0.26664281045193533
0.5077259975113797,0.5077259975113797
0.7154785568380734,0.7154785568380734
0.8234898391900698,0.8234898391900698
0.8457937930864217,0.8457937930864217
0.8312586321202597,0.8312586321202597
0.7831422371977927,0.7831422371977927
0.6520751822787808,0.6520751822787808
0.4129968450077727,0.4129968450077727
0.1278069626027335,0.1278069626027335
-0.09022045188969542,-0.09022045188969542
-0.17342171810979473,-0.17342171810979473
-0.15161897666055182,-0.15161897666055182
-0.10525682530296637,-0.10525682530296637
-0.08621075231282316,-0.08621075231282316
-0.09172408923102252,-0.09172408923102252
-0.09823985104343994,-0.09823985104343994
-0.10024470083187606,-0.10024470083187606
-0.10500621907941186,-0.10500621907941186
-0.1120231933389383,-0.1120231933389383
-0.11402804312737444,-0.11402804312737444
-0.11102076844472024,-0.11102076844472024
-0.11227379956249282,-0.11227379956249282
-0.11904016759846475,-0.11904016759846475
-0.12380168584600056,-0.12380168584600056
-0.1165341053629196,-0.1165341053629196
-0.10275076306742122,-0.10275076306742122
-0.09097227056035896,-0.09097227056035896
-0.08570953986571413,-0.08570953986571413
-0.08069741539462381,-0.08069741539462381
-0.07142498512310672,-0.07142498512310672
-0.06064891751026254,-0.06064891751026254
-0.055887399262726734,-0.055887399262726734
-0.05764164282760835,-0.05764164282760835
-0.05864406772182641,-0.05864406772182641
-0.05162709346229996,-0.05162709346229996
-0.037091932496138035,-0.037091932496138035
-0.022055559082867073,-0.022055559082867073
-0.011530097693577403,-0.011530097693577403
-0.002508273645614829,-0.002508273645614829
0.011525674873438066,0.011525674873438066
0.03207538520490838,0.03207538520490838
0.04986842707727901,0.04986842707727901
0.05538176399547836,0.05538176399547836
0.05112145819505159,0.05112145819505159
0.05212388308926965,0.05212388308926965
0.06716025650254062,0.06716025650254062
0.08846178550467447,0.08846178550467447
0.10099209668240028,0.10099209668240028
0.10224512780017285,0.10224512780017285
0.10374876514149996,0.10374876514149996
0.11703089498988929,0.11703089498988929
0.13808181776846865,0.13808181776846865
0.1528675849581851,0.1528675849581851
0.15361940362884863,0.15361940362884863
0.14635182314576767,0.14635182314576767
0.14108909245112283,0.14108909245112283
0.14159030489823188,0.14159030489823188
0.14585061069865862,0.14585061069865862
0.1528675849581851,0.1528675849581851
0.16063637788837506,0.16063637788837506
0.16665092725368347,0.16665092725368347
0.1736679015132099,0.1736679015132099
0.18870427492648087,0.18870427492648087
0.21226125994060538,0.21226125994060538
0.23606885117828438,0.23606885117828438
0.25260886193288246,0.25260886193288246
0.2656403855577173,0.2656403855577173
0.28092736519454276,0.28092736519454276
0.2959637386078137,0.2959637386078137
0.30623859377354884,0.30623859377354884
0.31526041782151143,0.31526041782151143
0.3272895165521282,0.3272895165521282
0.33881740283563594,0.33881740283563594
0.3415740712947356,0.3415740712947356
0.3335546721409911,0.3335546721409911
0.3187689049512747,0.3187689049512747
0.300975863078904,0.300975863078904
0.27792009051188854,0.27792009051188854
0.2503534059208918,0.2503534059208918
0.22203490265923148,0.22203490265923148
0.19948034253932506,0.19948034253932506
0.182940331784727,0.182940331784727
0.166901533477238,0.166901533477238
0.14309394223955896,0.14309394223955896
0.11176816429524446,0.11176816429524446
0.08144481124514803,0.08144481124514803
0.0639023755963319,0.0639023755963319
0.06139631336078674,0.06139631336078674
0.06640843783187707,0.06640843783187707
0.06891450006742222,0.06891450006742222
0.06615783160832256,0.06615783160832256
0.05863964490168707,0.05863964490168707
0.050620245747942556,0.050620245747942556
0.047362364841733846,0.047362364841733846
0.05588297644258739,0.05588297644258739
0.07242298719718546,0.07242298719718546
0.08695814816334738,0.08695814816334738
0.09222087885799221,0.09222087885799221
0.09472694109353738,0.09472694109353738
0.10324755269439093,0.10324755269439093
0.11728150121344381,0.11728150121344381
0.1247996879200793,0.1247996879200793
0.12104059456676156,0.12104059456676156
0.11352240786012607,0.11352240786012607
0.11427422653078963,0.11427422653078963
0.12454908169652477,0.12454908169652477
0.13682878665069606,0.13682878665069606
0.1453493982515496,0.1453493982515496
0.1548724347466212,0.1548724347466212
0.16890638326567411,0.16890638326567411
0.18043426954918185,0.18043426954918185
0.17767760109008215,0.17767760109008215
0.15988455921771152,0.15988455921771152
0.1408384862275683,0.1408384862275683
0.13306969329737833,0.13306969329737833
0.1328190870738238,0.1328190870738238
0.12404786924941574,0.12404786924941574
0.09597997221130995,0.09597997221130995
0.05488055154836933,0.05488055154836933
0.018542649132964516,0.018542649132964516
-0.002508273645614829,-0.002508273645614829
-0.010277066575804824,-0.010277066575804824
-0.015289191046895143,-0.015289191046895143
-0.022055559082867073,-0.022055559082867073
-0.030074958236611587,-0.030074958236611587
-0.03734253871969255,-0.03734253871969255
-0.04511133164988255,-0.04511133164988255
-0.05313073080362706,-0.05313073080362706
-0.0583934614982719,-0.0583934614982719
-0.060147705063153506,-0.060147705063153506
-0.06365619219291672,-0.06365619219291672
-0.07668771581775155,-0.07668771581775155
-0.09823985104343994,-0.09823985104343994
-0.11728592403358315,-0.11728592403358315
-0.12430289829310959,-0.12430289829310959
-0.12480411074021862,-0.12480411074021862
-0.13006684143486347,-0.13006684143486347
-0.14134412149481668,-0.14134412149481668
-0.14735867086012505,-0.14735867086012505
-0.1415947277183712,-0.1415947277183712
-0.13482835968239926,-0.13482835968239926
-0.1433489712832528,-0.1433489712832528
-0.16339746916761408,-0.16339746916761408
-0.177932630133776,-0.177932630133776
-0.1749253554511218,-0.1749253554511218
-0.16465050028538666,-0.16465050028538666
-0.16339746916761408,-0.16339746916761408
-0.177932630133776,-0.177932630133776
-0.19597627822970115,-0.19597627822970115
-0.1997353715830189,-0.1997353715830189
-0.18770627285240213,-0.18770627285240213
-0.1744241430040128,-0.1744241430040128
-0.17392293055690375,-0.17392293055690375
-0.18144111726353923,-0.18144111726353923
-0.18444839194619342,-0.18444839194619342
-0.17843384258088504,-0.17843384258088504
-0.16765777496804085,-0.16765777496804085
-0.1355801783530628,-0.1355801783530628
-0.04235466319078287,-0.04235466319078287
0.13983606133335025,0.13983606133335025
0.3774107612630314,0.3774107612630314
0.5846621081426161,0.5846621081426161
0.692422784271058,0.692422784271058
0.708962795025656,0.708962795025656
0.6796418668697776,0.6796418668697776
0.6034575749092047,0.6034575749092047
0.4230210939499533,0.4230210939499533
0.12755635637917898,0.12755635637917898
-0.18294475460486634,-0.18294475460486634
-0.3681427538116536,-0.3681427538116536
-0.3801718525422704,-0.3801718525422704
-0.2914572494039718,-0.2914572494039718
-0.21001022674875405,-0.21001022674875405
-0.1806892985928757,-0.1806892985928757
-0.18194232971064828,-0.18194232971064828
-0.177932630133776,-0.177932630133776
-0.16013958826140537,-0.16013958826140537
-0.14059230282415314,-0.14059230282415314
-0.13056805388197248,-0.13056805388197248
-0.13031744765841796,-0.13031744765841796
-0.1370838156943899,-0.1370838156943899
-0.14560442729524345,-0.14560442729524345
-0.14585503351879797,-0.14585503351879797
-0.13357532856462667,-0.13357532856462667
-0.11578228669225604,-0.11578228669225604
-0.11102076844472024,-0.11102076844472024
-0.12355107962244605,-0.12355107962244605
-0.14059230282415314,-0.14059230282415314
-0.14410078995391634,-0.14410078995391634
-0.1320716912232996,-0.1320716912232996
-0.11853895515135572,-0.11853895515135572
-0.11452925557448347,-0.11452925557448347
-0.12054380493979185,-0.12054380493979185
-0.1290644165406454,-0.1290644165406454
-0.13733442191794443,-0.13733442191794443
-0.14685745841301603,-0.14685745841301603
-0.15663110113164216,-0.15663110113164216
-0.16114201315562343,-0.16114201315562343
-0.15938776959074183,-0.15938776959074183
-0.15638049490808764,-0.15638049490808764
-0.15813473847296924,-0.15813473847296924
-0.16114201315562343,-0.16114201315562343
-0.1573829198023057,-0.1573829198023057
-0.14284775883614378,-0.14284775883614378
-0.12455350451666411,-0.12455350451666411
-0.11077016222116573,-0.11077016222116573
-0.10600864397362993,-0.10600864397362993
-0.10976773732694767,-0.10976773732694767
-0.11828834892780121,-0.11828834892780121
-0.12405229206955508,-0.12405229206955508
-0.11778713648069218,-0.11778713648069218
-0.10024470083187606,-0.10024470083187606
-0.08320347763016897,-0.08320347763016897
-0.07368044113509736,-0.07368044113509736
-0.06616225442846188,-0.06616225442846188
-0.0553861868156177,-0.0553861868156177
-0.046364362767655126,-0.046364362767655126
-0.04486072542632803,-0.04486072542632803
-0.04335708808500094,-0.04335708808500094
-0.02731828977751191,-0.02731828977751191
0.005511125508129683,0.005511125508129683
0.04084660302931643,0.04084660302931643
0.06415298181988642,0.06415298181988642
0.07593147432694868,0.07593147432694868
0.08695814816334738,0.08695814816334738
0.10424997758860899,0.10424997758860899
0.1247996879200793,0.1247996879200793
0.14459757958088607,0.14459757958088607
0.16539789613591088,0.16539789613591088
0.18995730604425345,0.18995730604425345
0.21376489728193246,0.21376489728193246
0.230054301812976,0.230054301812976
0.23707127607250245,0.23707127607250245
0.2380737009667205,0.2380737009667205
0.23381339516629374,0.23381339516629374
0.22028065909434988,0.22028065909434988
0.19672367408022537,0.19672367408022537
0.16815456459501055,0.16815456459501055
0.14284333601600444,0.14284333601600444
0.12229362568453413,0.12229362568453413
0.10274634024728188,0.10274634024728188
0.08194602369225706,0.08194602369225706
0.06365176937277739,0.06365176937277739
0.05087085197149707,0.05087085197149707
0.04335266526486159,0.04335266526486159
0.039092359464434824,0.039092359464434824
0.0403453905822074,0.0403453905822074
0.04535751505329772,0.04535751505329772
0.050119033300833525,0.050119033300833525
0.050620245747942556,0.050620245747942556
0.05312630798348772,0.05312630798348772
0.06189752580789577,0.06189752580789577
0.07442783698562158,0.07442783698562158
0.08370026725713867,0.08370026725713867
0.09021602906955609,0.09021602906955609
0.10024027801173672,0.10024027801173672
0.11928635100187994,0.11928635100187994
0.14259272979244994,0.14259272979244994
0.1628918339003657,0.1628918339003657
0.17742699486652766,0.17742699486652766
0.19045851849136247,0.19045851849136247
0.20599610435174248,0.20599610435174248
0.2252927835654402,0.2252927835654402
0.2443388565555834,0.2443388565555834
0.2598764424159634,0.2598764424159634
0.2681464477932624,0.2681464477932624
0.26965008513458955,0.26965008513458955
0.27165493492302567,0.27165493492302567
0.2814285776416518,0.2814285776416518
0.29571313238425917,0.29571313238425917
0.300975863078904,0.300975863078904
0.2917034328073869,0.2917034328073869
0.2781706967354431,0.2781706967354431
0.269399478911035,0.269399478911035
0.25962583619240887,0.25962583619240887
0.23581824495472986,0.23581824495472986
0.19797670519799795,0.19797670519799795
0.1593833467706025,0.1593833467706025
0.13106484350894218,0.13106484350894218
0.11151755807168995,0.11151755807168995
0.0934739099757648,0.0934739099757648
0.07267359342073997,0.07267359342073997
0.05212388308926965,0.05212388308926965
0.03758872212310772,0.03758872212310772
0.03357902254623547,0.03357902254623547
0.0355838723346716,0.0355838723346716
0.036335691005335145,0.036335691005335145
0.0308223540871358,0.0308223540871358
0.02129931759206419,0.02129931759206419
0.011024462426329035,0.011024462426329035
0.003255669496139039,0.003255669496139039
-0.001505848751396765,-0.001505848751396765
-0.001004636304287733,-0.001004636304287733
0.0015014259312574269,0.0015014259312574269
0.0017520321548119427,0.0017520321548119427
-0.001255242527842249,-0.001255242527842249
-0.002257667422060313,-0.002257667422060313
-0.0005034238571787011,-0.0005034238571787011
0.0007496072605938788,0.0007496072605938788
-0.0030094860927238607,-0.0030094860927238607
-0.005515548328269021,-0.005515548328269021
-0.004763729657605473,-0.004763729657605473
-0.001004636304287733,-0.001004636304287733
0.0002483948134848469,0.0002483948134848469
0.003255669496139039,0.003255669496139039
0.00826779396722936,0.00826779396722936
0.014282343332537743,0.014282343332537743
0.016537799344528387,0.016537799344528387
0.01754022423874645,0.01754022423874645
0.022051136262727738,0.022051136262727738
0.029068110522254186,0.029068110522254186
0.03282720387557192,0.03282720387557192
0.031323566534244826,0.031323566534244826
0.030571747863581283,0.030571747863581283
0.03483205366400805,0.03483205366400805
0.04385387771197063,0.04385387771197063
0.07116995607941287,0.07116995607941287
0.15762910320572088,0.15762910320572088
0.3383161903885269,0.3383161903885269
0.5854139268132796,0.5854139268132796
0.8107089217887895,0.8107089217887895
0.9427784016020194,0.9427784016020194
0.9853814596062871,0.9853814596062871
0.9811211538058603,0.9811211538058603
0.9284938468594119,0.9284938468594119
0.7701107135729579,0.7701107135729579
0.4796581004732739,0.4796581004732739
0.13607696798003252,0.13607696798003252
-0.11853895515135572,-0.11853895515135572
-0.20123900892434599,-0.20123900892434599
-0.15312261400187893,-0.15312261400187893
-0.0774395344884151,-0.0774395344884151
-0.039096782284574166,-0.039096782284574166
-0.03734253871969255,-0.03734253871969255
-0.04761739388542771,-0.04761739388542771
-0.05663921793339028,-0.05663921793339028
-0.061400736180926084,-0.061400736180926084
-0.06390679841647125,-0.06390679841647125
-0.06691407309912543,-0.06691407309912543
-0.07092377267599768,-0.07092377267599768
-0.06841771044045253,-0.06841771044045253
-0.05889467394538093,-0.05889467394538093
-0.0506246685680819,-0.0506246685680819
-0.05438376192139964,-0.05438376192139964
-0.06265376729869866,-0.06265376729869866
-0.06967074155822511,-0.06967074155822511
-0.07217680379377027,-0.07217680379377027
-0.0741816535822064,-0.0741816535822064
-0.07067316645244318,-0.07067316645244318
-0.0583934614982719,-0.0583934614982719
-0.03934738850812868,-0.03934738850812868
-0.020802527965094495,-0.020802527965094495
-0.003510698539832893,-0.003510698539832893
0.015785980673864837,0.015785980673864837
0.04235024037064353,0.04235024037064353
0.07292419964429449,0.07292419964429449
0.10550300870638156,0.10550300870638156
0.1345733306387054,0.1345733306387054
0.15762910320572088,0.15762910320572088
0.17467032640742797,0.17467032640742797
0.1939670056211257,0.1939670056211257
0.22278672132989505,0.22278672132989505
0.26413674821639016,0.26413674821639016
0.3115013244681937,0.3115013244681937
0.3563598384844521,0.3563598384844521
0.3901916786643117,0.3901916786643117
0.4137486636784362,0.4137486636784362
0.4330453428921339,0.4330453428921339
0.45860717769469456,0.45860717769469456
0.49093538053322716,0.49093538053322716
0.5260202518308593,0.5260202518308593
0.5606039106813825,0.5606039106813825
0.5971924193203418,0.5971924193203418
0.6332797155121922,0.6332797155121922
0.662350037444516,0.662350037444516
0.6796418668697776,0.6796418668697776
0.6919215718239489,0.6919215718239489
0.7037000643310112,0.7037000643310112
0.7117194634847557,0.7117194634847557
0.7064567327901108,0.7064567327901108
0.6919215718239489,0.6919215718239489
0.6831503539995408,0.6831503539995408
0.6904179344826218,0.6904179344826218
0.7044518830016747,0.7044518830016747
0.7082109763549924,0.7082109763549924
0.6981867274128118,0.6981867274128118
0.6894155095884037,0.6894155095884037
0.6914203593768399,0.6914203593768399
0.6949288465066031,0.6949288465066031
0.6821479291053227,0.6821479291053227
0.6528270009494445,0.6528270009494445
0.6192457669931393,0.6192457669931393
0.5926815072963606,0.5926815072963606
0.567620884940909,0.567620884940909
0.5330372260903857,0.5330372260903857
0.48015931292038294,0.48015931292038294
0.4127462387842182,0.4127462387842182
0.34207528374184465,0.34207528374184465
0.28243100253586984,0.28243100253586984
0.2363194574018389,0.2363194574018389
0.19822731142155248,0.19822731142155248
0.1578797094292754,0.1578797094292754
0.11602847009567123,0.11602847009567123
0.07743511166827577,0.07743511166827577
0.04610933372396127,0.04610933372396127
0.01628719312097387,0.01628719312097387
-0.01052767279935934,-0.01052767279935934
-0.02105313418864901,-0.02105313418864901
0.004258094390357102,0.004258094390357102
0.0543793391012603,0.0543793391012603
0.09071724151666512,0.09071724151666512
0.07668329299761223,0.07668329299761223
0.01628719312097387,0.01628719312097387
-0.05989709883959899,-0.05989709883959899
-0.12004259249268281,-0.12004259249268281
-0.15061655176633376,-0.15061655176633376
-0.146356245965907,-0.146356245965907
-0.11452925557448347,-0.11452925557448347
-0.06992134778177962,-0.06992134778177962
-0.03107738313082965,-0.03107738313082965
-0.006517973222487085,-0.006517973222487085
0.0020026383783664586,0.0020026383783664586
0.0004990010370393629,0.0004990010370393629
-0.0002528176336241851,-0.0002528176336241851
0.01127506864988355,0.01127506864988355
0.03282720387557192,0.03282720387557192
0.051873276865715134,0.051873276865715134
0.06039388846656868,0.06039388846656868
0.06615783160832256,0.06615783160832256
0.07943996145671191,0.07943996145671191
0.09898724689396415,0.09898724689396415
0.11728150121344381,0.11728150121344381
0.13657818042714154,0.13657818042714154
0.16589910858301993,0.16589910858301993
0.2017357985513157,0.2017357985513157
0.21576974707036858,0.21576974707036858
0.18469457534960862,0.18469457534960862
0.12304544435519768,0.12304544435519768
0.07242298719718546,0.07242298719718546
0.05462994532481481,0.05462994532481481
0.0528757017599332,0.0528757017599332
0.04585872750040675,0.04585872750040675
0.04410448393552514,0.04410448393552514
0.06741086272609513,0.06741086272609513
0.1045005838121635,0.1045005838121635
0.11226937674235349,0.11226937674235349
0.073174805867849,0.073174805867849
0.02079810514495516,0.02079810514495516
0.0040074881668025865,0.0040074881668025865
0.028065685628036123,0.028065685628036123
0.05788782623102352,0.05788782623102352
0.06841328762031319,0.06841328762031319
0.07568086810339417,0.07568086810339417
0.10475119003571802,0.10475119003571802
0.14785546048709478,0.14785546048709478
0.17015941438344667,0.17015941438344667
0.16439547124169282,0.16439547124169282
0.16765335214790153,0.16765335214790153
0.20699852924596054,0.20699852924596054
0.24308582543781085,0.24308582543781085
0.22128308398856794,0.22128308398856794
0.16364365257102928,0.16364365257102928
0.15838092187638445,0.15838092187638445
0.22905187691875795,0.22905187691875795
0.2952119199371502,0.2952119199371502
0.2801755465238792,0.2801755465238792
0.21802520308235923,0.21802520308235923
0.17767760109008215,0.17767760109008215
0.15186516006396703,0.15186516006396703
0.07568086810339417,0.07568086810339417
-0.05012345612097287,-0.05012345612097287
-0.13131987255263602,-0.13131987255263602
-0.09072166433680445,-0.09072166433680445
0.035834478558226114,0.035834478558226114
0.13833242399202317,0.13833242399202317
0.14409636713377702,0.14409636713377702
0.07693389922116674,0.07693389922116674
0.014783555779646775,0.014783555779646775
0.02631144206315451,0.02631144206315451
0.1516145538404125,0.1516145538404125
0.4007171400536014,0.4007171400536014
0.7247509871095905,0.7247509871095905
1.006682988608421,1.006682988608421
1.1274751883616976,1.1274751883616976
1.0603127204490874,1.0603127204490874
0.8766183585836271,0.8766183585836271
0.6658585245742792,0.6658585245742792
0.46161445237734877,0.46161445237734877
0.253360680603546,0.253360680603546
0.04360327148841611,0.04360327148841611
-0.11477986179803798,-0.11477986179803798
-0.1528720077783244,-0.1528720077783244
-0.06340558596936222,-0.06340558596936222
0.06189752580789577,0.06189752580789577
0.10825967716548124,0.10825967716548124
0.04986842707727901,0.04986842707727901
-0.03283162669571126,-0.03283162669571126
-0.0583934614982719,-0.0583934614982719
-0.028320714671729974,-0.028320714671729974
0.0037568819432480705,0.0037568819432480705
0.01503416200320129,0.01503416200320129
0.025309017168936444,0.025309017168936444
0.05036963952438804,0.05036963952438804
0.07041813740874933,0.07041813740874933
0.06465419426699545,0.06465419426699545
0.035834478558226114,0.035834478558226114
0.014532949556092259,0.014532949556092259
0.021048711368509675,0.021048711368509675
0.05788782623102352,0.05788782623102352
0.10475119003571802,0.10475119003571802
0.13657818042714154,0.13657818042714154
0.13106484350894218,0.13106484350894218
0.08846178550467447,0.08846178550467447
0.04209963414708901,0.04209963414708901
0.03708750967599869,0.03708750967599869
0.08395087348069319,0.08395087348069319
0.1438457609102225,0.1438457609102225
0.16890638326567411,0.16890638326567411
0.15236637251107604,0.15236637251107604
0.1217924132374251,0.1217924132374251
0.10174391535306382,0.10174391535306382
0.10074149045884576,0.10074149045884576
0.11577786387211672,0.11577786387211672
0.1325684808502693,0.1325684808502693
0.1343227244151509,0.1343227244151509
0.12254423190808865,0.12254423190808865
0.1217924132374251,0.1217924132374251
0.1408384862275683,0.1408384862275683
0.15662667831150281,0.15662667831150281
0.14635182314576767,0.14635182314576767
0.12254423190808865,0.12254423190808865
0.11302119541301704,0.11302119541301704
0.13231787462671477,0.13231787462671477
0.17592335752520055,0.17592335752520055
0.23080612048363955,0.23080612048363955
0.2628837170986176,0.2628837170986176
0.23832430719027503,0.23832430719027503
0.16940759571278313,0.16940759571278313
0.1155272576485622,0.1155272576485622
0.10650543360059962,0.10650543360059962
0.11427422653078963,0.11427422653078963
0.11001392073036285,0.11001392073036285
0.11828392610766188,0.11828392610766188
0.1686557770421196,0.1686557770421196
0.23982794453160214,0.23982794453160214
0.284937064771415,0.284937064771415
0.30147707552601305,0.30147707552601305
0.32929436634056436,0.32929436634056436
0.3889386475465391,0.3889386475465391
0.4533444470000497,0.4533444470000497
0.4856726498385823,0.4856726498385823
0.47865567557905586,0.47865567557905586
0.45284323455294073,0.45284323455294073
0.42377291262061684,0.42377291262061684
0.4014689587242649,0.4014689587242649
0.40171956494781946,0.40171956494781946
0.43479958645701555,0.43479958645701555
0.4653735457306665,0.4653735457306665
0.43254413044502493,0.43254413044502493
0.3240316356459195,0.3240316356459195
0.21301307861126892,0.21301307861126892
0.1799330571020728,0.1799330571020728
0.221784296435677,0.221784296435677
0.2656403855577173,0.2656403855577173
0.2633849295457266,0.2633849295457266
0.23356278894273924,0.23356278894273924
0.22028065909434988,0.22028065909434988
0.2315579391543031,0.2315579391543031
0.24534128144980147,0.24534128144980147
0.24308582543781085,0.24308582543781085
0.2348158200605118,0.2348158200605118
0.23105672670719407,0.23105672670719407
0.23055551426008503,0.23055551426008503
0.22278672132989505,0.22278672132989505
0.21526853462325957,0.21526853462325957
0.21927823420013182,0.21927823420013182
0.2348158200605118,0.2348158200605118
0.24809794990890116,0.24809794990890116
0.25386189305065504,0.25386189305065504
0.25436310549776403,0.25436310549776403
0.25411249927420954,0.25411249927420954
0.25386189305065504,0.25386189305065504
0.2591246237452999,0.2591246237452999
0.27340917848790725,0.27340917848790725
0.29320707014871406,0.29320707014871406
0.30724101866776693,0.30724101866776693
0.3097470809033121,0.3097470809033121
0.3054867751028853,0.3054867751028853
0.3064891999971034,0.3064891999971034
0.3192701173983837,0.3192701173983837
0.33981982772985403,0.33981982772985403
0.35310195757824336,0.35310195757824336
0.3505958953426982,0.3505958953426982
0.3358101281529817,0.3358101281529817
0.324282241869474,0.324282241869474
0.32027254229260177,0.32027254229260177
0.31701466138639306,0.31701466138639306
0.2974673759491408,0.2974673759491408
0.2598764424159634,0.2598764424159634
0.21501792839970504,0.21501792839970504
0.1844439691260541,0.1844439691260541
0.16790395837145605,0.16790395837145605
0.15913274054704798,0.15913274054704798
0.1453493982515496,0.1453493982515496
0.13156605595605123,0.13156605595605123
0.11577786387211672,0.11577786387211672
0.10775846471837221,0.10775846471837221
0.11828392610766188,0.11828392610766188
0.1736679015132099,0.1736679015132099
0.27340917848790725,0.27340917848790725
0.3924471346763024,0.3924471346763024
0.49594750500431745,0.49594750500431745
0.5844115019190615,0.5844115019190615
0.6836515664466499,0.6836515664466499
0.810458315565235,0.810458315565235
0.9500459820851004,0.9500459820851004
1.076602124980131,1.076602124980131
1.186367650897009,1.186367650897009
1.3061574257560675,1.3061574257560675
1.462285103030531,1.462285103030531
1.6474831022373184,1.6474831022373184
1.8219050338312615,1.8219050338312615
1.9517190576325008,1.9517190576325008
2.041185479441463,2.041185479441463
2.110603403366064,2.110603403366064
2.1466906995579143,2.1466906995579143
2.08930187436393,2.08930187436393
1.886310833284772,1.886310833284772
1.5437321256857488,1.5437321256857488
1.12371609500838,1.12371609500838
0.7026976394367931,0.7026976394367931
0.3473380144364895,0.3473380144364895
0.10074149045884576,0.10074149045884576
-0.032581020472156746,-0.032581020472156746
-0.08971923944258639,-0.08971923944258639
-0.12079441116334637,-0.12079441116334637
-0.1526214015547699,-0.1526214015547699
-0.18595202928752053,-0.18595202928752053
-0.21201507653719018,-0.21201507653719018
-0.23181296819799693,-0.23181296819799693
-0.2438420669286137,-0.2438420669286137
-0.2518614660823582,-0.2518614660823582
-0.2563723781063395,-0.2563723781063395
-0.26338935236586597,-0.26338935236586597
-0.27040632662539243,-0.27040632662539243
-0.27742330088491884,-0.27742330088491884
-0.28068118179112755,-0.28068118179112755
-0.2889511871684266,-0.2889511871684266
-0.3047393792523611,-0.3047393792523611
-0.3282963642664856,-0.3282963642664856
-0.3443351625739746,-0.3443351625739746
-0.34508698124463816,-0.34508698124463816
-0.3358145509731211,-0.3358145509731211
-0.3300506078313672,-0.3300506078313672
-0.33506273230245753,-0.33506273230245753
-0.34157849411487495,-0.34157849411487495
-0.3400748567735479,-0.3400748567735479
-0.3298000016078127,-0.3298000016078127
-0.3232842397953953,-0.3232842397953953
-0.3277951518193766,-0.3277951518193766
-0.342580919009093,-0.342580919009093
-0.3578678986459185,-0.3578678986459185
-0.37089942227075334,-0.37089942227075334
-0.3804224587658249,-0.3804224587658249
-0.38919367659023296,-0.38919367659023296
-0.3972130757439775,-0.3972130757439775
-0.4099939931452578,-0.4099939931452578
-0.4287894599118465,-0.4287894599118465
-0.45234644492597104,-0.45234644492597104
-0.4733973677045504,-0.4733973677045504
-0.49068919712981196,-0.49068919712981196
-0.5049737518724193,-0.5049737518724193
-0.5192583066150268,-0.5192583066150268
-0.5325404364634162,-0.5325404364634162
-0.5463237787589146,-0.5463237787589146
-0.5626131832899581,-0.5626131832899581
-0.5839147122920919,-0.5839147122920919
-0.6032113915057897,-0.6032113915057897
-0.6132356404479703,-0.6132356404479703
-0.6139874591186338,-0.6139874591186338
-0.6167441275777336,-0.6167441275777336
-0.6280214076376868,-0.6280214076376868
-0.63929868769764,-0.63929868769764
-0.6332841383323317,-0.6332841383323317
-0.6054668475177803,-0.6054668475177803
-0.5656204579726123,-0.5656204579726123
-0.5257740684274442,-0.5257740684274442
-0.48417343531739454,-0.48417343531739454
-0.43129552214739164,-0.43129552214739164
-0.3628800231170088,-0.3628800231170088
-0.2902042182861992,-0.2902042182861992
-0.22604902505624308,-0.22604902505624308
-0.1744241430040128,-0.1744241430040128
-0.12505471696377313,-0.12505471696377313
-0.06866831666400704,-0.06866831666400704
-0.0062673669989325685,-0.0062673669989325685
0.05112145819505159,0.05112145819505159
0.0967317908819735,0.0967317908819735
0.1313154497324967,0.1313154497324967
0.16264122767681122,0.16264122767681122
0.1924633682797986,0.1924633682797986
0.2177745968588047,0.2177745968588047
0.23230975782496666,0.23230975782496666
0.23581824495472986,0.23581824495472986
0.23381339516629374,0.23381339516629374
0.23431460761340278,0.23431460761340278
0.23682066984894792,0.23682066984894792
0.2363194574018389,0.2363194574018389
0.22729763335387632,0.22729763335387632
0.2115094412699418,0.2115094412699418
0.1957212491860073,0.1957212491860073
0.18820306247937182,0.18820306247937182
0.18820306247937182,0.18820306247937182
0.1894560935971444,0.1894560935971444
0.18569700024382668,0.18569700024382668
0.17842941976074572,0.17842941976074572
0.17441972018387344,0.17441972018387344
0.17692578241941861,0.17692578241941861
0.18218851311406345,0.18218851311406345
0.1826897255611725,0.1826897255611725
0.17742699486652766,0.17742699486652766
0.1691569894892286,0.1691569894892286
0.16188940900614765,0.16188940900614765
0.15437122229951217,0.15437122229951217
0.1468530355928767,0.1468530355928767
0.14108909245112283,0.14108909245112283
0.14108909245112283,0.14108909245112283
0.14234212356889542,0.14234212356889542
0.13883363643913219,0.13883363643913219
0.12830817504984252,0.12830817504984252
0.120288775896098,0.120288775896098
0.12254423190808865,0.12254423190808865
0.13532514930936895,0.13532514930936895
0.15036152272263992,0.15036152272263992
0.16389425879458377,0.16389425879458377
0.17767760109008215,0.17767760109008215
0.19496943051534377,0.19496943051534377
0.21176004749349633,0.21176004749349633
0.221784296435677,0.221784296435677
0.22253611510634053,0.22253611510634053
0.21977944664724086,0.21977944664724086
0.22253611510634053,0.22253611510634053
0.23556763873117537,0.23556763873117537
0.2556161366155366,0.2556161366155366
0.2736597847114618,0.2736597847114618
0.2829322149829789,0.2829322149829789
0.2846864585478605,0.2846864585478605
0.2879443394540692,0.2879443394540692
0.29821919461980434,0.29821919461980434
0.3052361688793308,0.3052361688793308
0.29496131371359563,0.29496131371359563
0.26864766024037146,0.26864766024037146
0.2458424938969105,0.2458424938969105
0.23431460761340278,0.23431460761340278
0.2187770217530228,0.2187770217530228
0.18344154423183603,0.18344154423183603
0.13858303021557766,0.13858303021557766
0.10650543360059962,0.10650543360059962
0.0919702726344377,0.0919702726344377
0.07918935523315739,0.07918935523315739
0.05663479511325094,0.05663479511325094
0.029068110522254186,0.029068110522254186
0.009771431308556455,0.009771431308556455
0.0040074881668025865,0.0040074881668025865
0.006764156625902263,0.006764156625902263
0.00826779396722936,0.00826779396722936
0.004759306837466134,0.004759306837466134
-0.001004636304287733,-0.001004636304287733
-0.0032600923162783768,-0.0032600923162783768
-0.005014335881159989,-0.005014335881159989
-0.012532522587795468,-0.012532522587795468
-0.028320714671729974,-0.028320714671729974
-0.043607694308555454,-0.043607694308555454
-0.04887042500320029,-0.04887042500320029
-0.043607694308555454,-0.043607694308555454
-0.038094357390356104,-0.038094357390356104
-0.04135223829656481,-0.04135223829656481
-0.0506246685680819,-0.0506246685680819
-0.05313073080362706,-0.05313073080362706
-0.045361937873437064,-0.045361937873437064
-0.03107738313082965,-0.03107738313082965
-0.01980010307087643,-0.01980010307087643
-0.010277066575804824,-0.010277066575804824
0.0012508197077029108,0.0012508197077029108
0.019294467803628063,0.019294467803628063
0.03783932834666224,0.03783932834666224
0.05212388308926965,0.05212388308926965
0.06415298181988642,0.06415298181988642
0.07818693033893932,0.07818693033893932
0.09071724151666512,0.09071724151666512
0.09773421577619157,0.09773421577619157
0.10525240248282705,0.10525240248282705
0.12354665680230671,0.12354665680230671
0.14509879202799508,0.14509879202799508
0.15913274054704798,0.15913274054704798
0.18695003136159927,0.18695003136159927
0.28117797141809725,0.28117797141809725
0.4633686959422304,0.4633686959422304
0.6761333797400144,0.6761333797400144
0.8242416578607333,0.8242416578607333
0.8648398660765649,0.8648398660765649
0.8385262126033407,0.8385262126033407
0.8004340666230543,0.8004340666230543
0.7435464538761792,0.7435464538761792
0.6142336425220489,0.6142336425220489
0.4014689587242649,0.4014689587242649
0.17742699486652766,0.17742699486652766
0.03433084121689902,0.03433084121689902
0.0004990010370393629,0.0004990010370393629
0.03282720387557192,0.03282720387557192
0.07668329299761223,0.07668329299761223
0.10600422115349059,0.10600422115349059
0.11803331988410737,0.11803331988410737
0.11602847009567123,0.11602847009567123
0.10700664604770865,0.10700664604770865
0.09798482199974608,0.09798482199974608
0.09297269752865576,0.09297269752865576
0.09021602906955609,0.09021602906955609
0.0872087543869019,0.0872087543869019
0.08069299257448448,0.08069299257448448
0.06941571251453126,0.06941571251453126
0.05362752043059675,0.05362752043059675
0.03834054079377127,0.03834054079377127
0.02380537982760935,0.02380537982760935
0.009270218861447422,0.009270218861447422
-0.006016760775378053,-0.006016760775378053
-0.016542222164667723,-0.016542222164667723
-0.02055192174153998,-0.02055192174153998
-0.02105313418864901,-0.02105313418864901
-0.025313439989075783,-0.025313439989075783
-0.036590720049029,-0.036590720049029
-0.0506246685680819,-0.0506246685680819
-0.06215255485158964,-0.06215255485158964
-0.07092377267599768,-0.07092377267599768
-0.07944438427685123,-0.07944438427685123
-0.0884662083248138,-0.0884662083248138
-0.09372893901945864,-0.09372893901945864
-0.0944807576901222,-0.0944807576901222
-0.09372893901945864,-0.09372893901945864
-0.09648560747855832,-0.09648560747855832
-0.10124712572609412,-0.10124712572609412
-0.10475561285585734,-0.10475561285585734
-0.10600864397362993,-0.10600864397362993
-0.10776288753851154,-0.10776288753851154
-0.10976773732694767,-0.10976773732694767
-0.10951713110339314,-0.10951713110339314
-0.10500621907941186,-0.10500621907941186
-0.09823985104343994,-0.09823985104343994
-0.09172408923102252,-0.09172408923102252
-0.08696257098348671,-0.08696257098348671
-0.08019620294751478,-0.08019620294751478
-0.07017195400533414,-0.07017195400533414
-0.056889824156944796,-0.056889824156944796
-0.04335708808500094,-0.04335708808500094
-0.030826776907275134,-0.030826776907275134
-0.019549496847321914,-0.019549496847321914
-0.00802161056381418,-0.00802161056381418
0.007014762849456778,0.007014762849456778
0.02756447318092709,0.02756447318092709
0.05162267064216062,0.05162267064216062
0.07417723076206706,0.07417723076206706
0.09572936598775544,0.09572936598775544
0.1217924132374251,0.1217924132374251
0.15036152272263992,0.15036152272263992
0.1719136579483283,0.1719136579483283
0.1861982126909357,0.1861982126909357
0.20449246701041537,0.20449246701041537
0.2345652138369573,0.2345652138369573
0.2643873544399447,0.2643873544399447
0.27541402827634337,0.27541402827634337
0.26639220422838084,0.26639220422838084
0.253360680603546,0.253360680603546
0.24834855613245568,0.24834855613245568
0.2458424938969105,0.2458424938969105
0.23230975782496666,0.23230975782496666
0.20273822344553377,0.20273822344553377
0.16464607746524734,0.16464607746524734
0.12855878127339704,0.12855878127339704
0.09773421577619157,0.09773421577619157
0.07041813740874933,0.07041813740874933
0.044605696382634175,0.044605696382634175
0.019545074027182578,0.019545074027182578
-0.005766154551823536,-0.005766154551823536
-0.028821927118839005,-0.028821927118839005
-0.04461011920277352,-0.04461011920277352
-0.05212830590940899,-0.05212830590940899
-0.05563679303917222,-0.05563679303917222
-0.06039831128670802,-0.06039831128670802
-0.0631549797458077,-0.0631549797458077
-0.0583934614982719,-0.0583934614982719
-0.04511133164988255,-0.04511133164988255
-0.030074958236611587,-0.030074958236611587
-0.019549496847321914,-0.019549496847321914
-0.015790403494004176,-0.015790403494004176
-0.017043434611776754,-0.017043434611776754
-0.020301315517985464,-0.020301315517985464
-0.01980010307087643,-0.01980010307087643
-0.00852282301092321,-0.00852282301092321
0.015535374450310323,0.015535374450310323
0.0403453905822074,0.0403453905822074
0.04936721463016998,0.04936721463016998
0.04059599680576192,0.04059599680576192
0.0308223540871358,0.0308223540871358
0.03758872212310772,0.03758872212310772
0.05638418888969642,0.05638418888969642
0.06766146894964965,0.06766146894964965
0.0591408573487961,0.0591408573487961
0.041347815476425465,0.041347815476425465
0.0293187167458087,0.0293187167458087
0.024306592274718382,0.024306592274718382
0.010272643755665486,0.010272643755665486
-0.020802527965094495,-0.020802527965094495
-0.05864406772182641,-0.05864406772182641
-0.08646135853637768,-0.08646135853637768
-0.10074591327898509,-0.10074591327898509
-0.10826409998562057,-0.10826409998562057
-0.11477986179803798,-0.11477986179803798
-0.12004259249268281,-0.12004259249268281
-0.12555592941088217,-0.12555592941088217
-0.13457775345884473,-0.13457775345884473
-0.1478598833072341,-0.1478598833072341
-0.15963837581429635,-0.15963837581429635
-0.1651517127324957,-0.1651517127324957
-0.16565292517960473,-0.16565292517960473
-0.1684095936387044,-0.1684095936387044
-0.17567717412178538,-0.17567717412178538
-0.18294475460486634,-0.18294475460486634
-0.18319536082842083,-0.18319536082842083
-0.17567717412178538,-0.17567717412178538
-0.1654023189560502,-0.1654023189560502
-0.16239504427339602,-0.16239504427339602
-0.17116626209780408,-0.17116626209780408
-0.18845809152306567,-0.18845809152306567
-0.2027426462656731,-0.2027426462656731
-0.20324385871278214,-0.20324385871278214
-0.19321960977060149,-0.19321960977060149
-0.185701423063966,-0.185701423063966
-0.19422203466481955,-0.19422203466481955
-0.21301750143140824,-0.21301750143140824
-0.2262996312797976,-0.2262996312797976
-0.22228993170292535,-0.22228993170292535
-0.21151386409008116,-0.21151386409008116
-0.20975962052519953,-0.20975962052519953
-0.21577416989050793,-0.21577416989050793
-0.217277807231835,-0.217277807231835
-0.2092584080780905,-0.2092584080780905
-0.20474749605410922,-0.20474749605410922
-0.2137693201020718,-0.2137693201020718
-0.22905629973889727,-0.22905629973889727
-0.23406842420998758,-0.23406842420998758
-0.22529720638557954,-0.22529720638557954
-0.2014896151479005,-0.2014896151479005
-0.14234654638903474,-0.14234654638903474
-0.00852282301092321,-0.00852282301092321
0.2034900421161973,0.2034900421161973
0.42552715618549847,0.42552715618549847
0.5633605791404822,0.5633605791404822
0.5911778699550335,0.5911778699550335
0.5570954235516193,0.5570954235516193
0.49268962409810874,0.49268962409810874
0.35585862603734303,0.35585862603734303
0.10700664604770865,0.10700664604770865
-0.1969787031239192,-0.1969787031239192
-0.42528097278208327,-0.42528097278208327
-0.4977061713893384,-0.4977061713893384
-0.444076439548672,-0.444076439548672
-0.3578678986459185,-0.3578678986459185
-0.30549119792302465,-0.30549119792302465
-0.295466948980844,-0.295466948980844
-0.29972725478127077,-0.29972725478127077
-0.29772240499283464,-0.29772240499283464
-0.2869463373799905,-0.2869463373799905
-0.27591966354359176,-0.27591966354359176
-0.2673990519427382,-0.2673990519427382
-0.26038207768321175,-0.26038207768321175
-0.25562055943567596,-0.25562055943567596
-0.25562055943567596,-0.25562055943567596
-0.2593796527889937,-0.2593796527889937
-0.2611338963538753,-0.2611338963538753
-0.25837722789477563,-0.25837722789477563
-0.25110964741169467,-0.25110964741169467
-0.2438420669286137,-0.2438420669286137
-0.24108539846951405,-0.24108539846951405
-0.2438420669286137,-0.2438420669286137
-0.24935540384681307,-0.24935540384681307
-0.25236267852946725,-0.25236267852946725
-0.2506084349645856,-0.2506084349645856
-0.2433408544815047,-0.2433408544815047
-0.2358226677748692,-0.2358226677748692
-0.2343190304335421,-0.2343190304335421
-0.24083479224595952,-0.24083479224595952
-0.24860358517614953,-0.24860358517614953
-0.2506084349645856,-0.2506084349645856
-0.24434327937572276,-0.24434327937572276
-0.23857933623396888,-0.23857933623396888
-0.24033357979885048,-0.24033357979885048
-0.24760116028193146,-0.24760116028193146
-0.24935540384681307,-0.24935540384681307
-0.23983236735174146,-0.23983236735174146
-0.22579841883268856,-0.22579841883268856
-0.21903205079671664,-0.21903205079671664
-0.21953326324382566,-0.21953326324382566
-0.21602477611406243,-0.21602477611406243
-0.19998597780657343,-0.19998597780657343
-0.17918566125154858,-0.17918566125154858
-0.1681589874151499,-0.1681589874151499
-0.17091565587424956,-0.17091565587424956
-0.17517596167467633,-0.17517596167467633
-0.16640474385026827,-0.16640474385026827
-0.14259715261258926,-0.14259715261258926
-0.11452925557448347,-0.11452925557448347
-0.09272651412524058,-0.09272651412524058
-0.07844195938263317,-0.07844195938263317
-0.06490922331068931,-0.06490922331068931
-0.04836921255609126,-0.04836921255609126
-0.02857132089528449,-0.02857132089528449
-0.00927464168158676,-0.00927464168158676
0.01127506864988355,0.01127506864988355
0.03382962876978998,0.03382962876978998
0.06039388846656868,0.06039388846656868
0.08695814816334738,0.08695814816334738
0.11026452695391736,0.11026452695391736
0.1278069626027335,0.1278069626027335
0.14159030489823188,0.14159030489823188
0.15387000985240315,0.15387000985240315
0.16640032103012894,0.16640032103012894
0.17717638864297314,0.17717638864297314
0.18243911933761797,0.18243911933761797
0.17792820731363668,0.17792820731363668
0.16439547124169282,0.16439547124169282
0.14184091112178637,0.14184091112178637
0.11101634562458092,0.11101634562458092
0.07217238097363093,0.07217238097363093
0.029569322969363217,0.029569322969363217
-0.009525247905141275,-0.009525247905141275
-0.03784375116680158,-0.03784375116680158
-0.0553861868156177,-0.0553861868156177
-0.0679164979933435,-0.0679164979933435
-0.08119862784173285,-0.08119862784173285
-0.09548318258434026,-0.09548318258434026
-0.10676046264429347,-0.10676046264429347
-0.11427864935092895,-0.11427864935092895
-0.12004259249268281,-0.12004259249268281
-0.12355107962244605,-0.12355107962244605
-0.12154622983400991,-0.12154622983400991
-0.1167847115864741,-0.1167847115864741
-0.11703531781002863,-0.11703531781002863
-0.12254865472822798,-0.12254865472822798
-0.12104501738690088,-0.12104501738690088
-0.10525682530296637,-0.10525682530296637
-0.08195044651239639,-0.08195044651239639
-0.06415740464002576,-0.06415740464002576
-0.0553861868156177,-0.0553861868156177
-0.054634368144954155,-0.054634368144954155
-0.06064891751026254,-0.06064891751026254
-0.0664128606520164,-0.0664128606520164
-0.05764164282760835,-0.05764164282760835
-0.027819502224620943,-0.027819502224620943
0.006764156625902263,0.006764156625902263
0.02380537982760935,0.02380537982760935
0.018292042909409997,0.018292042909409997
0.008769006414338391,0.008769006414338391
0.013530524661874195,0.013530524661874195
0.029569322969363217,0.029569322969363217
0.03758872212310772,0.03758872212310772
0.030571747863581283,0.030571747863581283
0.01754022423874645,0.01754022423874645
0.009019612637892907,0.009019612637892907
-0.001255242527842249,-0.001255242527842249
-0.02230616530642159,-0.02230616530642159
-0.05338133702718158,-0.05338133702718158
-0.08470711497149606,-0.08470711497149606
-0.11227379956249282,-0.11227379956249282
-0.13407654101173572,-0.13407654101173572
-0.1461056397423525,-0.1461056397423525
-0.14710806463657056,-0.14710806463657056
-0.1478598833072341,-0.1478598833072341
-0.15813473847296924,-0.15813473847296924
-0.17718081146311246,-0.17718081146311246
-0.19221718487638342,-0.19221718487638342
-0.19672809690036472,-0.19672809690036472
-0.19296900354704696,-0.19296900354704696
-0.1889593039701747,-0.1889593039701747
-0.18996172886439278,-0.18996172886439278
-0.19672809690036472,-0.19672809690036472
-0.2044968898305547,-0.2044968898305547
-0.20700295206609987,-0.20700295206609987
-0.20249204004211857,-0.20249204004211857
-0.1969787031239192,-0.1969787031239192
-0.1982317342416918,-0.1982317342416918
-0.20750416451320888,-0.20750416451320888
-0.21627538233761695,-0.21627538233761695
-0.2140199263256263,-0.2140199263256263
-0.20199082759500955,-0.20199082759500955
-0.19096415375861084,-0.19096415375861084
-0.193470215994156,-0.193470215994156
-0.20800537696031793,-0.20800537696031793
-0.22103690058515277,-0.22103690058515277
-0.2200344756909347,-0.2200344756909347
-0.20825598318387245,-0.20825598318387245
-0.19773052179458278,-0.19773052179458278
-0.19572567200614666,-0.19572567200614666
-0.20023658403012792,-0.20023658403012792
-0.20199082759500955,-0.20199082759500955
-0.19672809690036472,-0.19672809690036472
-0.18595202928752053,-0.18595202928752053
-0.17667959901600344,-0.17667959901600344
-0.1729205056626857,-0.1729205056626857
-0.17642899279244892,-0.17642899279244892
-0.17667959901600344,-0.17667959901600344
-0.14184533394192572,-0.14184533394192572
-0.027819502224620943,-0.027819502224620943
0.175171538854537,0.175171538854537
0.40648108319535525,0.40648108319535525
0.5716305845177813,0.5716305845177813
0.6285181972646564,0.6285181972646564
0.6129806114042764,0.6129806114042764
0.5688739160586815,0.5688739160586815
0.4746459760021836,0.4746459760021836
0.277168271841225,0.277168271841225
-0.012532522587795468,-0.012532522587795468
-0.2859439124857724,-0.2859439124857724
-0.42628339767630136,-0.42628339767630136
-0.41174823671013944,-0.41174823671013944
-0.3230336335718408,-0.3230336335718408
-0.2516108598588037,-0.2516108598588037
-0.22604902505624308,-0.22604902505624308
-0.21878144457316212,-0.21878144457316212
-0.2072535582896544,-0.2072535582896544
-0.1949738533354831,-0.1949738533354831
-0.1919665786528289,-0.1919665786528289
-0.19597627822970115,-0.19597627822970115
-0.20123900892434599,-0.20123900892434599
-0.20524870850121826,-0.20524870850121826
-0.20875719563098147,-0.20875719563098147
-0.21001022674875405,-0.21001022674875405
-0.20700295206609987,-0.20700295206609987
-0.20199082759500955,-0.20199082759500955
-0.1969787031239192,-0.1969787031239192
-0.1969787031239192,-0.1969787031239192
-0.20224143381856405,-0.20224143381856405
-0.2107620454194176,-0.2107620454194176
-0.21802962590249858,-0.21802962590249858
-0.2200344756909347,-0.2200344756909347
-0.21953326324382566,-0.21953326324382566
-0.21802962590249858,-0.21802962590249858
-0.2185308383496076,-0.2185308383496076
-0.21878144457316212,-0.21878144457316212
-0.21627538233761695,-0.21627538233761695
-0.21001022674875405,-0.21001022674875405
-0.20374507115989116,-0.20374507115989116
-0.19923415913590986,-0.19923415913590986
-0.19547506578259213,-0.19547506578259213
-0.19071354753505632,-0.19071354753505632
-0.1869544541817386,-0.1869544541817386
-0.18545081684041148,-0.18545081684041148
-0.18419778572263892,-0.18419778572263892
-0.17868444880443957,-0.17868444880443957
-0.1681589874151499,-0.1681589874151499
-0.1556286762374241,-0.1556286762374241
-0.146356245965907,-0.146356245965907
-0.14284775883614378,-0.14284775883614378
-0.14385018373036185,-0.14385018373036185
-0.14385018373036185,-0.14385018373036185
-0.13683320947083538,-0.13683320947083538
-0.12380168584600056,-0.12380168584600056
-0.11051955599761121,-0.11051955599761121
-0.09974348838476703,-0.09974348838476703
-0.08545893364215962,-0.08545893364215962
-0.06089952373381705,-0.06089952373381705
-0.026817077330402877,-0.026817077330402877
0.00751597529656581,0.00751597529656581
0.031072960310690314,0.031072960310690314
0.038591147017325786,0.038591147017325786
0.03357902254623547,0.03357902254623547
0.030070535416472248,0.030070535416472248
0.0403453905822074,0.0403453905822074
0.06164691958434126,0.06164691958434126
0.08219662991581157,0.08219662991581157
0.10575361492993608,0.10575361492993608
0.14860727915775832,0.14860727915775832
0.21000580392861473,0.21000580392861473
0.25411249927420954,0.25411249927420954
0.25160643703866437,0.25160643703866437
0.21476732217615052,0.21476732217615052
0.1861982126909357,0.1861982126909357
0.19095973093847152,0.19095973093847152
0.21827580930591375,0.21827580930591375
0.23080612048363955,0.23080612048363955
0.1939670056211257,0.1939670056211257
0.10550300870638156,0.10550300870638156
0.013530524661874195,0.013530524661874195
-0.019298890623767398,-0.019298890623767398
0.02129931759206419,0.02129931759206419
0.08695814816334738,0.08695814816334738
0.12379726302586123,0.12379726302586123
0.1250502941436338,0.1250502941436338
0.11101634562458092,0.11101634562458092
0.07718450544472126,0.07718450544472126
-0.003510698539832893,-0.003510698539832893
-0.12655835430510023,-0.12655835430510023
-0.23181296819799693,-0.23181296819799693
-0.2531144972001308,-0.2531144972001308
-0.18795687907595665,-0.18795687907595665
-0.10275076306742122,-0.10275076306742122
-0.06365619219291672,-0.06365619219291672
-0.07668771581775155,-0.07668771581775155
-0.0994928821612125,-0.0994928821612125
-0.09673621370211283,-0.09673621370211283
-0.0726780162408793,-0.0726780162408793
-0.05012345612097287,-0.05012345612097287
-0.04385830053210997,-0.04385830053210997
-0.04937163745030932,-0.04937163745030932
-0.05112588101519093,-0.05112588101519093
-0.04060041962590126,-0.04060041962590126
-0.021303740412203526,-0.021303740412203526
-0.007019185669596116,-0.007019185669596116
-0.0040119109869419245,-0.0040119109869419245
-0.005014335881159989,-0.005014335881159989
-0.001004636304287733,-0.001004636304287733
0.0040074881668025865,0.0040074881668025865
-0.005014335881159989,-0.005014335881159989
-0.033583445366374816,-0.033583445366374816
-0.06089952373381705,-0.06089952373381705
-0.0616513424044806,-0.0616513424044806
-0.036590720049029,-0.036590720049029
-0.016291615941113207,-0.016291615941113207
-0.020050709294430948,-0.020050709294430948
-0.036590720049029,-0.036590720049029
-0.04711618143831867,-0.04711618143831867
-0.054634368144954155,-0.054634368144954155
-0.07017195400533414,-0.07017195400533414
-0.09197469545457702,-0.09197469545457702
-0.1102689497740567,-0.1102689497740567
-0.12455350451666411,-0.12455350451666411
-0.1370838156943899,-0.1370838156943899
-0.14284775883614378,-0.14284775883614378
-0.13758502814149895,-0.13758502814149895
-0.13232229744685411,-0.13232229744685411
-0.13808624058860797,-0.13808624058860797
-0.14811048953078862,-0.14811048953078862
-0.14059230282415314,-0.14059230282415314
-0.10976773732694767,-0.10976773732694767
-0.07693832204130607,-0.07693832204130607
-0.06841771044045253,-0.06841771044045253
-0.08144923406528735,-0.08144923406528735
-0.08821560210125928,-0.08821560210125928
-0.07067316645244318,-0.07067316645244318
-0.04185345074367384,-0.04185345074367384
-0.023308590200639655,-0.023308590200639655
-0.021303740412203526,-0.021303740412203526
-0.032581020472156746,-0.032581020472156746
-0.05889467394538093,-0.05889467394538093
-0.09598439503144929,-0.09598439503144929
-0.12380168584600056,-0.12380168584600056
-0.12831259786998184,-0.12831259786998184
-0.1167847115864741,-0.1167847115864741
-0.10751228131495702,-0.10751228131495702
-0.10199894439675766,-0.10199894439675766
-0.09347833279590413,-0.09347833279590413
-0.08094802161817832,-0.08094802161817832
-0.07317922868798833,-0.07317922868798833
-0.07668771581775155,-0.07668771581775155
-0.0884662083248138,-0.0884662083248138
-0.10300136929097574,-0.10300136929097574
-0.11127137466827476,-0.11127137466827476
-0.10676046264429347,-0.10676046264429347
-0.09072166433680445,-0.09072166433680445
-0.07794074693552414,-0.07794074693552414
-0.07869256560618769,-0.07869256560618769
-0.06967074155822511,-0.06967074155822511
0.00826779396722936,0.00826779396722936
0.18970669982069893,0.18970669982069893
0.42327170017350785,0.42327170017350785
0.5989466628852235,0.5989466628852235
0.6560848818556532,0.6560848818556532
0.6347833528535193,0.6347833528535193
0.6037081811327593,0.6037081811327593
0.559852092010719,0.559852092010719
0.43931049848099685,0.43931049848099685
0.21376489728193246,0.21376489728193246
-0.052880124580072546,-0.052880124580072546
-0.2541169220943489,-0.2541169220943489
-0.3277951518193766,-0.3277951518193766
-0.2952163427572895,-0.2952163427572895
-0.22680084372690662,-0.22680084372690662
-0.18194232971064828,-0.18194232971064828
-0.17266989943913116,-0.17266989943913116
-0.1806892985928757,-0.1806892985928757
-0.18920991019372924,-0.18920991019372924
-0.1982317342416918,-0.1982317342416918
-0.20700295206609987,-0.20700295206609987
-0.21001022674875405,-0.21001022674875405
-0.2060005271718818,-0.2060005271718818
-0.20349446493633663,-0.20349446493633663
-0.20675234584254534,-0.20675234584254534
-0.20975962052519953,-0.20975962052519953
-0.21001022674875405,-0.21001022674875405
-0.21251628898429922,-0.21251628898429922
-0.22254053792647985,-0.22254053792647985
-0.23005872463311533,-0.23005872463311533
-0.22078629436159825,-0.22078629436159825
-0.19397142844126503,-0.19397142844126503
-0.16465050028538666,-0.16465050028538666
-0.15036594554277924,-0.15036594554277924
-0.15362382644898795,-0.15362382644898795
-0.17191808076846762,-0.17191808076846762
-0.20048719025368245,-0.20048719025368245
-0.2293069059624518,-0.2293069059624518
-0.23206357442155146,-0.23206357442155146
-0.19572567200614666,-0.19572567200614666
-0.15362382644898795,-0.15362382644898795
-0.16615413762671377,-0.16615413762671377
-0.24609752294060436,-0.24609752294060436
-0.33255667006691236,-0.33255667006691236
-0.3566148675281459,-0.3566148675281459
-0.3205275713362956,-0.3205275713362956
-0.28293663780311823,-0.28293663780311823
-0.28519209381510885,-0.28519209381510885
-0.310503322394115,-0.310503322394115
-0.32428666468961337,-0.32428666468961337
-0.31827211532430494,-0.31827211532430494
-0.30874907882923336,-0.30874907882923336
-0.3002284672283798,-0.3002284672283798
-0.2826860315795637,-0.2826860315795637
-0.2578760154476666,-0.2578760154476666
-0.24609752294060436,-0.24609752294060436
-0.2531144972001308,-0.2531144972001308
-0.25236267852946725,-0.25236267852946725
-0.22153811303226179,-0.22153811303226179
-0.17818323635733052,-0.17818323635733052
-0.1523707953312154,-0.1523707953312154
-0.14084290904770763,-0.14084290904770763
-0.11001834355050218,-0.11001834355050218
-0.049121031226754805,-0.049121031226754805
0.007014762849456778,0.007014762849456778
0.015284768226755806,0.015284768226755806
-0.022055559082867073,-0.022055559082867073
-0.059646492616044475,-0.059646492616044475
-0.05488497436850867,-0.05488497436850867
-0.008773429234477728,-0.008773429234477728
0.050119033300833525,0.050119033300833525
0.0982354282233006,0.0982354282233006
0.1328190870738238,0.1328190870738238
0.15412061607595767,0.15412061607595767
0.16063637788837506,0.16063637788837506
0.15261697873463057,0.15261697873463057
0.1403372737804593,0.1403372737804593
0.13081423728538769,0.13081423728538769
0.12129120079031606,0.12129120079031606
0.10274634024728188,0.10274634024728188
0.07543026187983964,0.07543026187983964
0.048364789735951916,0.048364789735951916
0.02756447318092709,0.02756447318092709
0.008017187743674842,0.008017187743674842
-0.015539797270449658,-0.015539797270449658
-0.03834496361391062,-0.03834496361391062
-0.05338133702718158,-0.05338133702718158
-0.06115012995737157,-0.06115012995737157
-0.06591164820490737,-0.06591164820490737
-0.06766589176978897,-0.06766589176978897
-0.06666346687557091,-0.06666346687557091
-0.06666346687557091,-0.06666346687557091
-0.07067316645244318,-0.07067316645244318
-0.07393104735865189,-0.07393104735865189
-0.07317922868798833,-0.07317922868798833
-0.068167104216898,-0.068167104216898
-0.057892249051162865,-0.057892249051162865
-0.04009920717879223,-0.04009920717879223
-0.022055559082867073,-0.022055559082867073
-0.01980010307087643,-0.01980010307087643
-0.03684132627258352,-0.03684132627258352
-0.049121031226754805,-0.049121031226754805
-0.028320714671729974,-0.028320714671729974
0.021048711368509675,0.021048711368509675
0.056885401336805454,0.056885401336805454
0.04159842169997998,0.04159842169997998
-0.012783128811349983,-0.012783128811349983
-0.05563679303917222,-0.05563679303917222
-0.048619818779645774,-0.048619818779645774
-0.004513123434050957,-0.004513123434050957
0.03508265988756257,0.03508265988756257
0.0466105461710703,0.0466105461710703
0.04360327148841611,0.04360327148841611
0.04385387771197063,0.04385387771197063
0.04385387771197063,0.04385387771197063
0.02380537982760935,0.02380537982760935
-0.02055192174153998,-0.02055192174153998
-0.06866831666400704,-0.06866831666400704
-0.0947313639136767,-0.0947313639136767
-0.09723742614922186,-0.09723742614922186
-0.09523257636078573,-0.09523257636078573
-0.10751228131495702,-0.10751228131495702
-0.13282350989396313,-0.13282350989396313
-0.15537807001386958,-0.15537807001386958
-0.16089140693206894,-0.16089140693206894
-0.14886230820145216,-0.14886230820145216
-0.13131987255263602,-0.13131987255263602
-0.12705956675220928,-0.12705956675220928
-0.14836109575434311,-0.14836109575434311
-0.19221718487638342,-0.19221718487638342
-0.23958176112818694,-0.23958176112818694
-0.27040632662539243,-0.27040632662539243
-0.2764208759907008,-0.2764208759907008
-0.2666472332720747,-0.2666472332720747
-0.2531144972001308,-0.2531144972001308
-0.24158661091662306,-0.24158661091662306
-0.23231418064510598,-0.23231418064510598
-0.22780326862112468,-0.22780326862112468
-0.23055993708022438,-0.23055993708022438
-0.23782751756330534,-0.23782751756330534
-0.24033357979885048,-0.24033357979885048
-0.23231418064510598,-0.23231418064510598
-0.2155235636669534,-0.2155235636669534
-0.19672809690036472,-0.19672809690036472
-0.18369657327552988,-0.18369657327552988
-0.17718081146311246,-0.17718081146311246
-0.17567717412178538,-0.17567717412178538
-0.17517596167467633,-0.17517596167467633
-0.17467474922756732,-0.17467474922756732
-0.1731711118862402,-0.1731711118862402
-0.17091565587424956,-0.17091565587424956
-0.16615413762671377,-0.16615413762671377
-0.15312261400187893,-0.15312261400187893
-0.130818660105527,-0.130818660105527
-0.1040037941851938,-0.1040037941851938
-0.08545893364215962,-0.08545893364215962
-0.08220105273595091,-0.08220105273595091
