ECG,PPG
0.3565740631697489,0.3565740631697489
0.5433552500530006,0.5433552500530006
0.6187861139866214,0.6187861139866214
0.6547055730026314,0.6547055730026314
0.6920618103792817,0.6920618103792817
0.7049928156250453,0.7049928156250453
0.6733836916909566,0.6733836916909566
0.6259700057898234,0.6259700057898234
0.6022631628392568,0.6022631628392568
0.610165443822779,0.610165443822779
0.6259700057898234,0.6259700057898234
0.617349335625981,0.617349335625981
0.5713724280854884,0.5713724280854884
0.5052806234960301,0.5052806234960301
0.4593037159555373,0.4593037159555373
0.4549933808736161,0.4549933808736161
0.4801370021848231,0.4801370021848231
0.4909128398896261,0.4909128398896261
0.4636140510374585,0.4636140510374585
0.41548197595600517,0.41548197595600517
0.39105674382511846,0.39105674382511846
0.39967741398896084,0.39967741398896084
0.4162003651363254,0.4162003651363254
0.4082980841528032,0.4082980841528032
0.3903383546447982,0.3903383546447982
0.3867464087431972,0.3867464087431972
0.4054245274315224,0.4054245274315224
0.4205107002182466,0.4205107002182466
0.42338425693952736,0.42338425693952736
0.425539424480488,0.425539424480488
0.44565432152945356,0.44565432152945356
0.4758266671029019,0.4758266671029019
0.5045622343157099,0.5045622343157099
0.5275506880859562,0.5275506880859562
0.5649069254626066,0.5649069254626066
0.6223780598882225,0.6223780598882225
0.6855963077564,0.6855963077564
0.7308548261165725,0.7308548261165725
0.7660558959522622,0.7660558959522622
0.8070040792305135,0.8070040792305135
0.8637568244758093,0.8637568244758093
0.9255382939833464,0.9255382939833464
0.9736703690647996,0.9736703690647996
0.9851645959499229,0.9851645959499229
0.9564290287371149,0.9564290287371149
0.906141786114701,0.906141786114701
0.8745326621806122,0.8745326621806122
0.8644752136561294,0.8644752136561294
0.8436419274268437,0.8436419274268437
0.7789869011980258,0.7789869011980258
0.6834411402154393,0.6834411402154393
0.5843034333312519,0.5843034333312519
0.5067174018566705,0.5067174018566705
0.45068304579169494,0.45068304579169494
0.43056814874272936,0.43056814874272936
0.42625781366080817,0.42625781366080817
0.414763586775685,0.414763586775685
0.36591312251391145,0.36591312251391145
0.3055684313670148,0.3055684313670148
0.28401675595740883,0.28401675595740883
0.32568332841598036,0.32568332841598036
0.37381540349743364,0.37381540349743364
0.36878667923519226,0.36878667923519226
0.3249649392356601,0.3249649392356601
0.31131554480957635,0.31131554480957635
0.32927527431758136,0.32927527431758136
0.32712010677662073,0.32712010677662073
0.34579822546494593,0.34579822546494593
0.5577230336594046,0.5577230336594046
1.061313849063864,1.061313849063864
1.7588697431547768,1.7588697431547768
2.475103755934015,2.475103755934015
3.128119520845076,3.128119520845076
3.6532620116591414,3.6532620116591414
3.8817097710009643,3.8817097710009643
3.6202161093644123,3.6202161093644123
2.8774016969133265,2.8774016969133265
1.9082946926613782,1.9082946926613782
1.0404805628345781,1.0404805628345781
0.4672059969390595,0.4672059969390595
0.20140200022058594,0.20140200022058594
0.14464925497529021,0.14464925497529021
0.17266643300777795,0.17266643300777795
0.18918938415514255,0.18918938415514255
0.1525515359588124,0.1525515359588124
0.0828677854677531,0.0828677854677531
0.032580542845339185,0.032580542845339185
0.022523094320856404,0.022523094320856404
0.021804705140536205,0.021804705140536205
-0.0026205269903505565,-0.0026205269903505565
-0.028482537481877714,-0.028482537481877714
-0.021298645678675728,-0.021298645678675728
0.01749437005861501,0.01749437005861501
0.04263799136982197,0.04263799136982197
0.04191960218950177,0.04191960218950177
0.019649537599575606,0.019649537599575606
-0.0033389161706707557,-0.0033389161706707557
-0.034948040104759506,-0.034948040104759506
-0.06440199649788765,-0.06440199649788765
-0.08379850436653302,-0.08379850436653302
-0.07374105584205025,-0.07374105584205025
-0.040695153547321096,-0.040695153547321096
-0.010522807973872743,-0.010522807973872743
-0.016988310596754534,-0.016988310596754534
-0.06583877485852806,-0.06583877485852806
-0.11971796338254297,-0.11971796338254297
-0.12690185518574496,-0.12690185518574496
-0.09026400698941482,-0.09026400698941482
-0.06224682895692706,-0.06224682895692706
-0.08092494764525224,-0.08092494764525224
-0.11971796338254297,-0.11971796338254297
-0.13767769289054793,-0.13767769289054793
-0.13049380108734596,-0.13049380108734596
-0.12187313092350356,-0.12187313092350356
-0.11899957420222276,-0.11899957420222276
-0.11397084993998138,-0.11397084993998138
-0.10247662305485819,-0.10247662305485819
-0.098166287972937,-0.098166287972937
-0.10894212567773999,-0.10894212567773999
-0.14270641715278934,-0.14270641715278934
-0.18724654633264165,-0.18724654633264165
-0.2044878866603264,-0.2044878866603264
-0.14773514141503072,-0.14773514141503072
-0.0385399860063605,-0.0385399860063605
0.03760926710758058,0.03760926710758058
0.019649537599575606,0.019649537599575606
-0.047879045350523085,-0.047879045350523085
-0.07517783420269064,-0.07517783420269064
-0.021298645678675728,-0.021298645678675728
0.0871781205496743,0.0871781205496743
0.21361461628602932,0.21361461628602932
0.3400511120223843,0.3400511120223843
0.45858532677521713,0.45858532677521713
0.5584414228397248,0.5584414228397248
0.6374642326749467,0.6374642326749467
0.6942169779202424,0.6942169779202424
0.7315732152968927,0.7315732152968927
0.7452226097229765,0.7452226097229765
0.7401938854607351,0.7401938854607351
0.7186422100511292,0.7186422100511292
0.6877514752973606,0.6877514752973606
0.664044632346794,0.664044632346794
0.6633262431664738,0.6633262431664738
0.6690733566090354,0.6690733566090354
0.6503952379207102,0.6503952379207102
0.6001079952982963,0.6001079952982963
0.5512575310365228,0.5512575310365228
0.5297058556269169,0.5297058556269169
0.5261139097253158,0.5261139097253158
0.5131829044795523,0.5131829044795523
0.4916312290699463,0.4916312290699463
0.4722347212013009,0.4722347212013009
0.45858532677521713,0.45858532677521713
0.4370336513656112,0.4370336513656112
0.4133268084150446,0.4133268084150446
0.393211911366079,0.393211911366079
0.38315446284159627,0.38315446284159627
0.3716602359564731,0.3716602359564731
0.36447634415327107,0.36447634415327107
0.36160278743199026,0.36160278743199026
0.3623211766123105,0.3623211766123105
0.3551372848091085,0.3551372848091085
0.3436430579239853,0.3436430579239853
0.34220627956334493,0.34220627956334493
0.3673499008745519,0.3673499008745519
0.4126084192347244,0.4126084192347244
0.46217727267681813,0.46217727267681813
0.5002518992337887,0.5002518992337887
0.5368897474301187,0.5368897474301187
0.5778379307083701,0.5778379307083701
0.6252516166095032,0.6252516166095032
0.671228524149996,0.671228524149996
0.7157686533298483,0.7157686533298483
0.7488145556245774,0.7488145556245774
0.7682110634932229,0.7682110634932229
0.7911995172634692,0.7911995172634692
0.8414867598858831,0.8414867598858831
0.9003946726721395,0.9003946726721395
0.9090153428359818,0.9090153428359818
0.8465154841481245,0.8465154841481245
0.7674926743129026,0.7674926743129026
0.7366019395591341,0.7366019395591341
0.7488145556245774,0.7488145556245774
0.7351651611984937,0.7351651611984937
0.6611710756255132,0.6611710756255132
0.5526943093971631,0.5526943093971631
0.46576921857841913,0.46576921857841913
0.4068613057921628,0.4068613057921628
0.3637579549729509,0.3637579549729509
0.31921782579309854,0.31921782579309854
0.2969477612031724,0.2969477612031724
0.2976661503834926,0.2976661503834926
0.3019764854654138,0.3019764854654138
0.2818615884164482,0.2818615884164482
0.25025246448235944,0.25025246448235944
0.2315743457940343,0.2315743457940343
0.23085595661371408,0.23085595661371408
0.23301112415467468,0.23301112415467468
0.2279823998924333,0.2279823998924333
0.20786750284346772,0.20786750284346772
0.19062616251578296,0.19062616251578296
0.24809729694139887,0.24809729694139887
0.4765450562832221,0.4765450562832221
0.9011130618524597,0.9011130618524597
1.4643301792234955,1.4643301792234955
2.1072884956100735,2.1072884956100735
2.800534054619065,2.800534054619065
3.435590090022121,3.435590090022121
3.771796226411974,3.771796226411974
3.584296650348402,3.584296650348402
2.875964918552686,2.875964918552686
1.8939269090549742,1.8939269090549742
0.9715152015238391,0.9715152015238391
0.3393327228420641,0.3393327228420641
0.054850607435265354,0.054850607435265354
0.0239598726814968,0.0239598726814968
0.07496550448423092,0.07496550448423092
0.06562644514006834,0.06562644514006834
-0.036384818465399905,-0.036384818465399905
-0.15060869813631153,-0.15060869813631153
-0.18580976797200124,-0.18580976797200124
-0.13911447125118834,-0.13911447125118834
-0.0952927312516562,-0.0952927312516562
-0.11397084993998138,-0.11397084993998138
-0.1656948709230357,-0.1656948709230357
-0.19155688141456284,-0.19155688141456284
-0.17934426534911949,-0.17934426534911949
-0.17072359518527708,-0.17072359518527708
-0.17575231944751848,-0.17575231944751848
-0.18437298961136084,-0.18437298961136084
-0.17934426534911949,-0.17934426534911949
-0.18006265452943968,-0.18006265452943968
-0.18580976797200124,-0.18580976797200124
-0.19012010305392243,-0.19012010305392243
-0.18221782207040027,-0.18221782207040027
-0.17431554108687808,-0.17431554108687808
-0.18940171387360225,-0.18940171387360225
-0.23106828633217377,-0.23106828633217377
-0.2763268046923463,-0.2763268046923463
-0.2942865342003513,-0.2942865342003513
-0.2756084155120261,-0.2756084155120261
-0.24543606993857775,-0.24543606993857775
-0.23250506469281418,-0.23250506469281418
-0.23609701059441515,-0.23609701059441515
-0.23394184305345456,-0.23394184305345456
-0.22316600534865158,-0.22316600534865158
-0.22388439452897177,-0.22388439452897177
-0.25190157256145956,-0.25190157256145956
-0.2871026423971493,-0.2871026423971493
-0.30721753944611485,-0.30721753944611485
-0.31224626370835623,-0.31224626370835623
-0.3165565987902774,-0.3165565987902774
-0.31943015551155823,-0.31943015551155823
-0.31511982042963704,-0.31511982042963704
-0.30434398272483404,-0.30434398272483404
-0.29572331256099166,-0.29572331256099166
-0.2892578099381099,-0.2892578099381099
-0.2770451938726665,-0.2770451938726665
-0.2583670751843413,-0.2583670751843413
-0.23394184305345456,-0.23394184305345456
-0.19874077321776482,-0.19874077321776482
-0.1542006440379125,-0.1542006440379125
-0.10750534731709958,-0.10750534731709958
-0.06296521813724726,-0.06296521813724726
-0.006212472891951551,-0.006212472891951551
0.07281033694327033,0.07281033694327033
0.16691931956521638,0.16691931956521638
0.2509708536626797,0.2509708536626797
0.30987876644893597,0.30987876644893597
0.3486717821862267,0.3486717821862267
0.38315446284159627,0.38315446284159627
0.42625781366080817,0.42625781366080817
0.4758266671029019,0.4758266671029019
0.5153380720205128,0.5153380720205128
0.526832298905636,0.526832298905636
0.5110277369385916,0.5110277369385916
0.48444733726674427,0.48444733726674427
0.4607404943161777,0.4607404943161777
0.43416009464433036,0.43416009464433036
0.3939303005463992,0.3939303005463992
0.34148789038302474,0.34148789038302474
0.2969477612031724,0.2969477612031724
0.2782696425148472,0.2782696425148472
0.2789880316951674,0.2789880316951674
0.2789880316951674,0.2789880316951674
0.26462024808876344,0.26462024808876344
0.24235018349883727,0.24235018349883727
0.21720656218763032,0.21720656218763032
0.19062616251578296,0.19062616251578296
0.16332737366361538,0.16332737366361538
0.1489595900572114,0.1489595900572114
0.1468044225162508,0.1468044225162508
0.14393086579497,0.14393086579497
0.12094241202472364,0.12094241202472364
0.0914884556315955,0.0914884556315955
0.07927583956615211,0.07927583956615211
0.09867234743479748,0.09867234743479748
0.13171824972952662,0.13171824972952662
0.1611722061226548,0.1611722061226548
0.18200549235194055,0.18200549235194055
0.20930428120410813,0.20930428120410813
0.25240763202332006,0.25240763202332006
0.3055684313670148,0.3055684313670148
0.35370050644846807,0.35370050644846807
0.39177513300543865,0.39177513300543865
0.4248210353001678,0.4248210353001678
0.4636140510374585,0.4636140510374585
0.5038438451353896,0.5038438451353896
0.5397633041513996,0.5397633041513996
0.5670620930035671,0.5670620930035671
0.5900505467738135,0.5900505467738135
0.6051367195605377,0.6051367195605377
0.6015447736589367,0.6015447736589367
0.5771195415280499,0.5771195415280499
0.5426368608726804,0.5426368608726804
0.508872569397631,0.508872569397631
0.46936116448002013,0.46936116448002013
0.4097348625134436,0.4097348625134436
0.33358560939950255,0.33358560939950255
0.25384441038396044,0.25384441038396044
0.18703421661418196,0.18703421661418196
0.12525274710664483,0.12525274710664483
0.06778161268102893,0.06778161268102893
0.009592089075092824,0.009592089075092824
-0.02632736994091712,-0.02632736994091712
-0.0399767643670009,-0.0399767643670009
-0.045005488629242286,-0.045005488629242286
-0.05721810469468567,-0.05721810469468567
-0.06512038567820785,-0.06512038567820785
-0.05721810469468567,-0.05721810469468567
-0.0399767643670009,-0.0399767643670009
-0.03207448338347871,-0.03207448338347871
-0.050752602071803876,-0.050752602071803876
-0.11397084993998138,-0.11397084993998138
-0.18868332469328203,-0.18868332469328203
-0.1462983630543903,-0.1462983630543903
0.1568618710407336,0.1568618710407336
0.7136134857888877,0.7136134857888877
1.3781234775850717,1.3781234775850717
2.0641851447908612,2.0641851447908612
2.794068551996183,2.794068551996183
3.4887508893658157,3.4887508893658157
3.8414799769030332,3.8414799769030332
3.5562794723159143,3.5562794723159143
2.678407893964631,2.678407893964631
1.5821460047960079,1.5821460047960079
0.6554239621829516,0.6554239621829516
0.07568389366455112,0.07568389366455112
-0.19227527059488303,-0.19227527059488303
-0.2799187505939473,-0.2799187505939473
-0.32302210141315923,-0.32302210141315923
-0.3869587384616569,-0.3869587384616569
-0.4566424889527162,-0.4566424889527162
-0.48968839124744534,-0.48968839124744534
-0.47819416436232215,-0.47819416436232215
-0.4516137646904748,-0.4516137646904748
-0.44155631616599206,-0.44155631616599206
-0.4566424889527162,-0.4566424889527162
-0.48825161288680496,-0.48825161288680496
-0.5191423476405735,-0.5191423476405735
-0.5414124122304996,-0.5414124122304996
-0.5593721417385047,-0.5593721417385047
-0.5737399253449086,-0.5737399253449086
-0.5881077089513126,-0.5881077089513126
-0.5881077089513126,-0.5881077089513126
-0.5766134820661895,-0.5766134820661895
-0.5543434174762633,-0.5543434174762633
-0.5442859689517805,-0.5442859689517805
-0.5608089200991451,-0.5608089200991451
-0.5981651574757954,-0.5981651574757954
-0.6319294489508447,-0.6319294489508447
-0.6376765623934063,-0.6376765623934063
-0.6197168328854014,-0.6197168328854014
-0.5981651574757954,-0.5981651574757954
-0.593136433213554,-0.593136433213554
-0.6089409951805984,-0.6089409951805984
-0.6376765623934063,-0.6376765623934063
-0.6613834053439729,-0.6613834053439729
-0.6700040755078153,-0.6700040755078153
-0.6642569620652536,-0.6642569620652536
-0.6599466269833325,-0.6599466269833325
-0.6635385728849335,-0.6635385728849335
-0.6700040755078153,-0.6700040755078153
-0.6714408538684556,-0.6714408538684556
-0.6707224646881355,-0.6707224646881355
-0.6714408538684556,-0.6714408538684556
-0.6700040755078153,-0.6700040755078153
-0.6599466269833325,-0.6599466269833325
-0.6477340109178891,-0.6477340109178891
-0.6448604541966083,-0.6448604541966083
-0.6527627351801305,-0.6527627351801305
-0.6541995135407709,-0.6541995135407709
-0.6326478381311649,-0.6326478381311649
-0.5881077089513126,-0.5881077089513126
-0.5363836879682583,-0.5363836879682583
-0.4839412778048838,-0.4839412778048838
-0.4250333650186275,-0.4250333650186275
-0.3524760578062874,-0.3524760578062874
-0.2748900263317059,-0.2748900263317059
-0.2008959407587254,-0.2008959407587254
-0.12905702272670555,-0.12905702272670555
-0.053626158793084674,-0.053626158793084674
0.01893114841925541,0.01893114841925541
0.0835861746480733,0.0835861746480733
0.13890214153272862,0.13890214153272862
0.18631582743386177,0.18631582743386177
0.21361461628602932,0.21361461628602932
0.21361461628602932,0.21361461628602932
0.19349971923706374,0.19349971923706374
0.17122965464713757,0.17122965464713757
0.154706703499773,0.154706703499773
0.1453676441556104,0.1453676441556104
0.1338734172704872,0.1338734172704872
0.10944818513960046,0.10944818513960046
0.06490805595974813,0.06490805595974813
0.01605759169797461,0.01605759169797461
-0.011959586334513142,-0.011959586334513142
-0.010522807973872743,-0.010522807973872743
0.0002530297309302387,0.0002530297309302387
-0.008367640432912148,-0.008367640432912148
-0.036384818465399905,-0.036384818465399905
-0.06583877485852806,-0.06583877485852806
-0.08164333682557243,-0.08164333682557243
-0.098166287972937,-0.098166287972937
-0.12690185518574496,-0.12690185518574496
-0.15491903321823272,-0.15491903321823272
-0.1498903089559913,-0.1498903089559913
-0.11540762830062178,-0.11540762830062178
-0.09098239616973501,-0.09098239616973501
-0.11109729321870059,-0.11109729321870059
-0.14917191977567112,-0.14917191977567112
-0.15348225485759232,-0.15348225485759232
-0.1010398446942178,-0.1010398446942178
-0.024890591580276723,-0.024890591580276723
0.032580542845339185,0.032580542845339185
0.060597720877826944,0.060597720877826944
0.0807126179267925,0.0807126179267925
0.11447690940184185,0.11447690940184185
0.16332737366361538,0.16332737366361538
0.21145944874506872,0.21145944874506872
0.25025246448235944,0.25025246448235944
0.28832709103933,0.28832709103933
0.33430399857982274,0.33430399857982274
0.382436073661276,0.382436073661276
0.4176371434969658,0.4176371434969658
0.43128653792304955,0.43128653792304955
0.4284129812017688,0.4284129812017688
0.4197923110379264,0.4197923110379264
0.4011141923496012,0.4011141923496012
0.36088439825167007,0.36088439825167007
0.2876087018590098,0.2876087018590098
0.19278133005674356,0.19278133005674356
0.10370107169703888,0.10370107169703888
0.03186215366501899,0.03186215366501899
-0.01914347813771513,-0.01914347813771513
-0.06655716403884826,-0.06655716403884826
-0.10606856895645919,-0.10606856895645919
-0.14701675223471053,-0.14701675223471053
-0.17790748698847908,-0.17790748698847908
-0.19155688141456284,-0.19155688141456284
-0.17862587616879927,-0.17862587616879927
-0.1498903089559913,-0.1498903089559913
-0.13624091452990755,-0.13624091452990755
-0.1635397033820751,-0.1635397033820751
-0.22172922698801117,-0.22172922698801117
-0.2619590210859423,-0.2619590210859423
-0.2554935184630605,-0.2554935184630605
-0.22891311879121318,-0.22891311879121318
-0.2073614433816072,-0.2073614433816072
-0.12187313092350356,-0.12187313092350356
0.1575802602210538,0.1575802602210538
0.6762572484122373,0.6762572484122373
1.357290191355786,1.357290191355786
2.1166275549542357,2.1166275549542357
2.9032637074048537,2.9032637074048537
3.5598714182175155,3.5598714182175155
3.7832904532970972,3.7832904532970972
3.363032782809781,3.363032782809781
2.4190693998690396,2.4190693998690396
1.3199339539791355,1.3199339539791355
0.4032693598905618,0.4032693598905618
-0.17072359518527708,-0.17072359518527708
-0.4013265220680609,-0.4013265220680609
-0.3984529653467801,-0.3984529653467801
-0.336671495839243,-0.336671495839243
-0.35032089026532676,-0.35032089026532676
-0.44155631616599206,-0.44155631616599206
-0.5306365745256967,-0.5306365745256967
-0.5658376443613864,-0.5658376443613864
-0.5615273092794653,-0.5615273092794653
-0.557216974197544,-0.557216974197544
-0.5708663686236278,-0.5708663686236278
-0.5945732115741944,-0.5945732115741944
-0.6125329410821994,-0.6125329410821994
-0.6168432761641206,-0.6168432761641206
-0.6211536112460417,-0.6211536112460417
-0.6297742814098841,-0.6297742814098841
-0.6412685082950074,-0.6412685082950074
-0.6340846164918054,-0.6340846164918054
-0.6233087787870023,-0.6233087787870023
-0.6261823355082832,-0.6261823355082832
-0.6455788433769285,-0.6455788433769285
-0.6541995135407709,-0.6541995135407709
-0.6355213948524457,-0.6355213948524457
-0.6154064978034801,-0.6154064978034801
-0.6218720004263619,-0.6218720004263619
-0.6484524000982093,-0.6484524000982093
-0.6649753512455738,-0.6649753512455738
-0.6599466269833325,-0.6599466269833325
-0.6520443459998103,-0.6520443459998103
-0.6628201837046133,-0.6628201837046133
-0.6829350807535789,-0.6829350807535789
-0.694429307638702,-0.694429307638702
-0.6915557509174213,-0.6915557509174213
-0.6894005833764606,-0.6894005833764606
-0.6958660859993424,-0.6958660859993424
-0.701613199441904,-0.701613199441904
-0.6987396427206232,-0.6987396427206232
-0.6987396427206232,-0.6987396427206232
-0.7080787020647858,-0.7080787020647858
-0.7188545397695888,-0.7188545397695888
-0.7188545397695888,-0.7188545397695888
-0.712389037146707,-0.712389037146707
-0.7109522587860666,-0.7109522587860666
-0.7102338696057464,-0.7102338696057464
-0.6958660859993424,-0.6958660859993424
-0.6635385728849335,-0.6635385728849335
-0.6233087787870023,-0.6233087787870023
-0.5830789846890712,-0.5830789846890712
-0.5385388555092189,-0.5385388555092189
-0.48537805616552415,-0.48537805616552415
-0.4221598082973467,-0.4221598082973467
-0.35678639288820857,-0.35678639288820857
-0.29141297747907047,-0.29141297747907047
-0.22172922698801117,-0.22172922698801117
-0.14126963879214893,-0.14126963879214893
-0.05649971551436547,-0.05649971551436547
0.01893114841925541,0.01893114841925541
0.06850000186134914,0.06850000186134914
0.0914884556315955,0.0914884556315955
0.09508040153319648,0.09508040153319648
0.09364362317255609,0.09364362317255609
0.09436201235287629,0.09436201235287629
0.09723556907415708,0.09723556907415708
0.09005167727095509,0.09005167727095509
0.06634483432038853,0.06634483432038853
0.027551818583097794,0.027551818583097794
-0.011241197154192943,-0.011241197154192943
-0.0392583751866807,-0.0392583751866807
-0.049315823711163484,-0.049315823711163484
-0.04859743453084328,-0.04859743453084328
-0.05578132633404527,-0.05578132633404527
-0.08595367190749362,-0.08595367190749362
-0.12905702272670555,-0.12905702272670555
-0.1563558115788731,-0.1563558115788731
-0.15491903321823272,-0.15491903321823272
-0.1462983630543903,-0.1462983630543903
-0.1577925899395135,-0.1577925899395135
-0.18796493551296184,-0.18796493551296184
-0.210235000102888,-0.210235000102888
-0.2073614433816072,-0.2073614433816072
-0.19371204895552344,-0.19371204895552344
-0.19012010305392243,-0.19012010305392243
-0.203051108299686,-0.203051108299686
-0.213826946004489,-0.213826946004489
-0.210235000102888,-0.210235000102888
-0.18796493551296184,-0.18796493551296184
-0.15491903321823272,-0.15491903321823272
-0.11325246075966118,-0.11325246075966118
-0.06440199649788765,-0.06440199649788765
-0.014833143055793937,-0.014833143055793937
0.02970698612405839,0.02970698612405839
0.06921839104166932,0.06921839104166932
0.10801140677896007,0.10801140677896007
0.14393086579497,0.14393086579497
0.17697676808969914,0.17697676808969914
0.21145944874506872,0.21145944874506872
0.25384441038396044,0.25384441038396044
0.3005397071047734,0.3005397071047734
0.33358560939950255,0.33358560939950255
0.3321488310388621,0.3321488310388621
0.3012580962850936,0.3012580962850936
0.26102830218716244,0.26102830218716244
0.2229536756301919,0.2229536756301919
0.17410321136841836,0.17410321136841836
0.10082751497575808,0.10082751497575808
0.013184034976693819,0.013184034976693819
-0.07014910994044925,-0.07014910994044925
-0.13408574698894696,-0.13408574698894696
-0.18652815715232143,-0.18652815715232143
-0.2224476161683314,-0.2224476161683314
-0.24902801584017875,-0.24902801584017875
-0.26124063190562213,-0.26124063190562213
-0.2712980804301049,-0.2712980804301049
-0.2799187505939473,-0.2799187505939473
-0.2856658640365089,-0.2856658640365089
-0.2799187505939473,-0.2799187505939473
-0.2698613020694645,-0.2698613020694645
-0.2677061345285039,-0.2677061345285039
-0.2820739181349079,-0.2820739181349079
-0.30649915026579466,-0.30649915026579466
-0.33020599321636124,-0.33020599321636124
-0.3237404905934794,-0.3237404905934794
-0.20376949748000622,-0.20376949748000622
0.12022402284440345,0.12022402284440345
0.6554239621829516,0.6554239621829516
1.324962678241377,1.324962678241377
2.066340312331822,2.066340312331822
2.8271144542909123,2.8271144542909123
3.4334349224811604,3.4334349224811604
3.5886069854303235,3.5886069854303235
3.1302746883860366,3.1302746883860366
2.2200755969203447,2.2200755969203447
1.2143307444720663,1.2143307444720663
0.386028019562877,0.386028019562877
-0.15348225485759232,-0.15348225485759232
-0.4013265220680609,-0.4013265220680609
-0.4408379269856718,-0.4408379269856718
-0.42790692173990824,-0.42790692173990824
-0.4746022184607212,-0.4746022184607212
-0.5651192551810662,-0.5651192551810662
-0.6197168328854014,-0.6197168328854014
-0.6189984437050812,-0.6189984437050812
-0.6075042168199579,-0.6075042168199579
-0.6154064978034801,-0.6154064978034801
-0.6348030056721256,-0.6348030056721256
-0.6556362919014113,-0.6556362919014113
-0.6771879673110173,-0.6771879673110173
-0.6908373617371011,-0.6908373617371011
-0.6915557509174213,-0.6915557509174213
-0.6771879673110173,-0.6771879673110173
-0.6692856863274951,-0.6692856863274951
-0.6685672971471749,-0.6685672971471749
-0.6757511889503769,-0.6757511889503769
-0.6743144105897365,-0.6743144105897365
-0.6664121296062143,-0.6664121296062143
-0.6635385728849335,-0.6635385728849335
-0.6692856863274951,-0.6692856863274951
-0.6779063564913375,-0.6779063564913375
-0.6786247456716576,-0.6786247456716576
-0.6750327997700567,-0.6750327997700567
-0.672877632229096,-0.672877632229096
-0.6757511889503769,-0.6757511889503769
-0.6807799132126182,-0.6807799132126182
-0.6929925292780617,-0.6929925292780617
-0.7102338696057464,-0.7102338696057464
-0.7260384315727908,-0.7260384315727908
-0.7281935991137514,-0.7281935991137514
-0.7202913181302292,-0.7202913181302292
-0.7138258155073474,-0.7138258155073474
-0.7152625938679877,-0.7152625938679877
-0.7152625938679877,-0.7152625938679877
-0.7073603128844657,-0.7073603128844657
-0.7008948102615838,-0.7008948102615838
-0.712389037146707,-0.712389037146707
-0.7346591017366332,-0.7346591017366332
-0.7404062151791948,-0.7404062151791948
-0.7174177614089484,-0.7174177614089484
-0.6879638050158202,-0.6879638050158202
-0.6714408538684556,-0.6714408538684556
-0.6549179027210911,-0.6549179027210911
-0.6139697194428397,-0.6139697194428397
-0.5493146932140218,-0.5493146932140218
-0.4803493319032828,-0.4803493319032828
-0.4171310840351053,-0.4171310840351053
-0.35391283616692776,-0.35391283616692776
-0.28853942075778966,-0.28853942075778966
-0.2181372810864102,-0.2181372810864102
-0.14270641715278934,-0.14270641715278934
-0.06583877485852806,-0.06583877485852806
-0.0019021378100303578,-0.0019021378100303578
0.04479315891078257,0.04479315891078257
0.0828677854677531,0.0828677854677531
0.11806885530344285,0.11806885530344285
0.13890214153272862,0.13890214153272862
0.1410573090736892,0.1410573090736892
0.1338734172704872,0.1338734172704872
0.12309757956568425,0.12309757956568425
0.09795395825447728,0.09795395825447728
0.05844255333686635,0.05844255333686635
0.026833429402777595,0.026833429402777595
0.020367926779895806,0.020367926779895806
0.022523094320856404,0.022523094320856404
0.0045633648128514314,0.0045633648128514314
-0.0378215968260403,-0.0378215968260403
-0.07589622338301084,-0.07589622338301084
-0.08954561780909462,-0.08954561780909462
-0.08451689354685323,-0.08451689354685323
-0.08308011518621283,-0.08308011518621283
-0.09098239616973501,-0.09098239616973501
-0.0996030663335774,-0.0996030663335774
-0.1067869581367794,-0.1067869581367794
-0.12043635256286317,-0.12043635256286317
-0.14342480633310953,-0.14342480633310953
-0.1606661466607943,-0.1606661466607943
-0.1628213142017549,-0.1628213142017549
-0.1613845358411145,-0.1613845358411145
-0.17287876272623767,-0.17287876272623767
-0.18437298961136084,-0.18437298961136084
-0.1692868168246367,-0.1692868168246367
-0.11684440666126217,-0.11684440666126217
-0.05003421289148368,-0.05003421289148368
0.0024081972718908353,0.0024081972718908353
0.03114376448469879,0.03114376448469879
0.054850607435265354,0.054850607435265354
0.09867234743479748,0.09867234743479748
0.16548254120457598,0.16548254120457598
0.2301375674333939,0.2301375674333939
0.26533863726908363,0.26533863726908363
0.27970642087548764,0.27970642087548764
0.30269487464573397,0.30269487464573397
0.3465166146452661,0.3465166146452661
0.38315446284159627,0.38315446284159627
0.3867464087431972,0.3867464087431972
0.3666315116942317,0.3666315116942317
0.3529821172681479,0.3529821172681479
0.3472350038255863,0.3472350038255863
0.31921782579309854,0.31921782579309854
0.24450535103979787,0.24450535103979787
0.1396205307130488,0.1396205307130488
0.04910349399270376,0.04910349399270376
-0.01339636469515354,-0.01339636469515354
-0.06296521813724726,-0.06296521813724726
-0.12474668764478436,-0.12474668764478436
-0.17862587616879927,-0.17862587616879927
-0.2145453351848092,-0.2145453351848092
-0.228194729610893,-0.228194729610893
-0.23394184305345456,-0.23394184305345456
-0.22963150797153337,-0.22963150797153337
-0.2145453351848092,-0.2145453351848092
-0.19945916239808503,-0.19945916239808503
-0.19227527059488303,-0.19227527059488303
-0.19371204895552344,-0.19371204895552344
-0.20592466502096682,-0.20592466502096682
-0.24040734567633634,-0.24040734567633634
-0.28063713977426746,-0.28063713977426746
-0.25190157256145956,-0.25190157256145956
-0.05578132633404527,-0.05578132633404527
0.3515453389075075,0.3515453389075075
0.9212279589014252,0.9212279589014252
1.579272448074727,1.579272448074727
2.2962248500342857,2.2962248500342857
3.016050808715125,3.016050808715125
3.526107126742466,3.526107126742466
3.526107126742466,3.526107126742466
2.909729210027735,2.909729210027735
1.9176337520055409,1.9176337520055409
0.9413428559503908,0.9413428559503908
0.23085595661371408,0.23085595661371408
-0.17072359518527708,-0.17072359518527708
-0.32661404731476024,-0.32661404731476024
-0.3395450525605238,-0.3395450525605238
-0.3431369984621248,-0.3431369984621248
-0.41497591649414467,-0.41497591649414467
-0.5184239584602534,-0.5184239584602534
-0.5679928119023471,-0.5679928119023471
-0.5514698607549825,-0.5514698607549825
-0.5241710719028149,-0.5241710719028149
-0.5299181853453765,-0.5299181853453765
-0.557216974197544,-0.557216974197544
-0.5794870387874702,-0.5794870387874702
-0.5866709305906722,-0.5866709305906722
-0.5852341522300318,-0.5852341522300318
-0.5909812656725933,-0.5909812656725933
-0.5988835466561155,-0.5988835466561155
-0.6010387141970762,-0.6010387141970762
-0.5773318712465096,-0.5773318712465096
-0.5485963040337016,-0.5485963040337016
-0.5399756338698593,-0.5399756338698593
-0.5615273092794653,-0.5615273092794653
-0.589544487311953,-0.589544487311953
-0.5924180440332338,-0.5924180440332338
-0.5744583145252288,-0.5744583145252288
-0.5615273092794653,-0.5615273092794653
-0.5694295902629875,-0.5694295902629875
-0.5881077089513126,-0.5881077089513126
-0.6031938817380368,-0.6031938817380368
-0.6082226060002781,-0.6082226060002781
-0.6125329410821994,-0.6125329410821994
-0.6154064978034801,-0.6154064978034801
-0.6146881086231599,-0.6146881086231599
-0.6096593843609186,-0.6096593843609186
-0.6125329410821994,-0.6125329410821994
-0.625463946327963,-0.625463946327963
-0.6348030056721256,-0.6348030056721256
-0.618280054524761,-0.618280054524761
-0.5802054279677904,-0.5802054279677904
-0.5579353633778642,-0.5579353633778642
-0.5852341522300318,-0.5852341522300318
-0.6405501191146871,-0.6405501191146871
-0.665693740425894,-0.665693740425894
-0.6340846164918054,-0.6340846164918054
-0.5773318712465096,-0.5773318712465096
-0.5335101312469774,-0.5335101312469774
-0.4983090614112877,-0.4983090614112877
-0.448740207969194,-0.448740207969194
-0.3891139060026175,-0.3891139060026175
-0.3431369984621248,-0.3431369984621248
-0.31080948534771585,-0.31080948534771585
-0.2669877453481837,-0.2669877453481837
-0.19658560567680422,-0.19658560567680422
-0.10894212567773999,-0.10894212567773999
-0.01842508895739493,-0.01842508895739493
0.06203449923846734,0.06203449923846734
0.12812630382792564,0.12812630382792564
0.18416065989290117,0.18416065989290117
0.23444790251531508,0.23444790251531508
0.2660570264494038,0.2660570264494038
0.25815474546588163,0.25815474546588163
0.21720656218763032,0.21720656218763032
0.17482160054873855,0.17482160054873855
0.15973542776201438,0.15973542776201438
0.16476415202425576,0.16476415202425576
0.16763770874553657,0.16763770874553657
0.16332737366361538,0.16332737366361538
0.1575802602210538,0.1575802602210538
0.147522811696571,0.147522811696571
0.11950563366408325,0.11950563366408325
0.07424711530391072,0.07424711530391072
0.03976443464854117,0.03976443464854117
0.03976443464854117,0.03976443464854117
0.056287385795905746,0.056287385795905746
0.04910349399270376,0.04910349399270376
0.009592089075092824,0.009592089075092824
-0.02560898076059692,-0.02560898076059692
-0.030637705022838312,-0.030637705022838312
-0.02058025649835553,-0.02058025649835553
-0.02632736994091712,-0.02632736994091712
-0.04428709944892209,-0.04428709944892209
-0.05290776961276448,-0.05290776961276448
-0.045005488629242286,-0.045005488629242286
-0.0385399860063605,-0.0385399860063605
-0.0342296509244393,-0.0342296509244393
-0.01986186731803533,-0.01986186731803533
0.012465645796373619,0.012465645796373619
0.04910349399270376,0.04910349399270376
0.07783906120551172,0.07783906120551172
0.11232174186088126,0.11232174186088126
0.17625837890937895,0.17625837890937895
0.2660570264494038,0.2660570264494038
0.34220627956334493,0.34220627956334493
0.3637579549729509,0.3637579549729509
0.3436430579239853,0.3436430579239853
0.33430399857982274,0.33430399857982274
0.37740734939903464,0.37740734939903464
0.4593037159555373,0.4593037159555373
0.5239587421843552,0.5239587421843552
0.5325794123481976,0.5325794123481976
0.4901944507093059,0.4901944507093059
0.43128653792304955,0.43128653792304955
0.37812573857935483,0.37812573857935483
0.3321488310388621,0.3321488310388621
0.281143199236128,0.281143199236128
0.21936172972859092,0.21936172972859092
0.1575802602210538,0.1575802602210538
0.09939073661511769,0.09939073661511769
0.051977050713984556,0.051977050713984556
0.008155310714452427,0.008155310714452427
-0.02560898076059692,-0.02560898076059692
-0.06296521813724726,-0.06296521813724726
-0.0988846771532572,-0.0988846771532572
-0.12546507682510455,-0.12546507682510455
-0.13049380108734596,-0.13049380108734596
-0.13695930371022774,-0.13695930371022774
-0.1628213142017549,-0.1628213142017549
-0.18078104370975986,-0.18078104370975986
-0.14342480633310953,-0.14342480633310953
-0.06583877485852806,-0.06583877485852806
-0.029919315842518113,-0.029919315842518113
-0.06512038567820785,-0.06512038567820785
-0.06081005059628666,-0.06081005059628666
0.1482412008768912,0.1482412008768912
0.6151941680850205,0.6151941680850205
1.235164030701352,1.235164030701352
1.8845878497108117,1.8845878497108117
2.5440691172447543,2.5440691172447543
3.1891826011722926,3.1891826011722926
3.6094402716596092,3.6094402716596092
3.4952163919886976,3.4952163919886976
2.78185593593074,2.78185593593074
1.7782662510234222,1.7782662510234222
0.8752510513609325,0.8752510513609325
0.2301375674333939,0.2301375674333939
-0.17575231944751848,-0.17575231944751848
-0.35750478206852876,-0.35750478206852876
-0.34241860928180456,-0.34241860928180456
-0.2691429128891443,-0.2691429128891443
-0.2705796912497847,-0.2705796912497847
-0.33451632829828243,-0.33451632829828243
-0.37402773321589333,-0.37402773321589333
-0.3790564574781347,-0.3790564574781347
-0.39198746272389834,-0.39198746272389834
-0.4063552463303023,-0.4063552463303023
-0.3905506843632579,-0.3905506843632579
-0.36828061977333176,-0.36828061977333176
-0.38049323583877515,-0.38049323583877515
-0.4070736355106225,-0.4070736355106225
-0.4106655814122235,-0.4106655814122235
-0.3898322951829377,-0.3898322951829377
-0.3855219601010165,-0.3855219601010165
-0.4006081328877407,-0.4006081328877407
-0.42072302993670624,-0.42072302993670624
-0.43365403518246987,-0.43365403518246987
-0.4494585971495142,-0.4494585971495142
-0.4674183266575192,-0.4674183266575192
-0.47388382928040096,-0.47388382928040096
-0.4681367158378394,-0.4681367158378394
-0.4652631591165586,-0.4652631591165586
-0.48250449944424334,-0.48250449944424334
-0.5148320125586523,-0.5148320125586523
-0.5356652987879381,-0.5356652987879381
-0.5248894610831351,-0.5248894610831351
-0.49040678042776553,-0.49040678042776553
-0.4566424889527162,-0.4566424889527162
-0.44155631616599206,-0.44155631616599206
-0.4408379269856718,-0.4408379269856718
-0.44155631616599206,-0.44155631616599206
-0.43868275944471125,-0.43868275944471125
-0.4401195378053516,-0.4401195378053516
-0.4494585971495142,-0.4494585971495142
-0.4609528240346374,-0.4609528240346374
-0.4645447699362384,-0.4645447699362384
-0.4602344348543172,-0.4602344348543172
-0.45807926731335663,-0.45807926731335663
-0.4652631591165586,-0.4652631591165586
-0.4789125535426424,-0.4789125535426424
-0.48106772108360296,-0.48106772108360296
-0.44586665124791325,-0.44586665124791325
-0.3711541764946125,-0.3711541764946125
-0.29284975583971085,-0.29284975583971085
-0.25621190764338075,-0.25621190764338075
-0.2590854643646615,-0.2590854643646615
-0.24759123747953835,-0.24759123747953835
-0.17503393026719827,-0.17503393026719827
-0.057936493875005865,-0.057936493875005865
0.054850607435265354,0.054850607435265354
0.13602858481144783,0.13602858481144783
0.19278133005674356,0.19278133005674356
0.23947662677755646,0.23947662677755646
0.2854535343180492,0.2854535343180492
0.3357407769404631,0.3357407769404631
0.38530963038255683,0.38530963038255683
0.41548197595600517,0.41548197595600517
0.4126084192347244,0.4126084192347244
0.38315446284159627,0.38315446284159627
0.34579822546494593,0.34579822546494593
0.313470712350537,0.313470712350537
0.284735145137729,0.284735145137729
0.2588731346462018,0.2588731346462018
0.24019501595787668,0.24019501595787668
0.22870078907275349,0.22870078907275349
0.2121778379253889,0.2121778379253889
0.18128710317162036,0.18128710317162036
0.1460860333359306,0.1460860333359306
0.13674697399176802,0.13674697399176802
0.1611722061226548,0.1611722061226548
0.19637327595834456,0.19637327595834456
0.20355716776154653,0.20355716776154653
0.17338482218809817,0.17338482218809817
0.12381596874600444,0.12381596874600444
0.0835861746480733,0.0835861746480733
0.054850607435265354,0.054850607435265354
0.03617248874694018,0.03617248874694018
0.038327656287900774,0.038327656287900774
0.07568389366455112,0.07568389366455112
0.11375852022152165,0.11375852022152165
0.10872979595928027,0.10872979595928027
0.07496550448423092,0.07496550448423092
0.0835861746480733,0.0835861746480733
0.15614348186041338,0.15614348186041338
0.22870078907275349,0.22870078907275349
0.24091340513819687,0.24091340513819687
0.23732145923659587,0.23732145923659587
0.29551098284253197,0.29551098284253197
0.4140451975953648,0.4140451975953648
0.5074357910369907,0.5074357910369907
0.5218035746433947,0.5218035746433947
0.4980967316928281,0.4980967316928281
0.5067174018566705,0.5067174018566705
0.5620333687413258,0.5620333687413258
0.6202228923472619,0.6202228923472619
0.6489584595600698,0.6489584595600698
0.6561423513632718,0.6561423513632718
0.6446481244781487,0.6446481244781487
0.587895379232853,0.587895379232853
0.4607404943161777,0.4607404943161777
0.30341326382605416,0.30341326382605416
0.18847099497482236,0.18847099497482236
0.1575802602210538,0.1575802602210538
0.17122965464713757,0.17122965464713757
0.17482160054873855,0.17482160054873855
0.12956308218856602,0.12956308218856602
0.057724164156546146,0.057724164156546146
-0.016269921416434335,-0.016269921416434335
-0.06224682895692706,-0.06224682895692706
-0.06871233157980886,-0.06871233157980886
-0.042131931907961495,-0.042131931907961495
-0.01986186731803533,-0.01986186731803533
-0.034948040104759506,-0.034948040104759506
-0.07948816928461183,-0.07948816928461183
-0.10894212567773999,-0.10894212567773999
-0.101758233874538,-0.101758233874538
-0.08020655846493203,-0.08020655846493203
-0.057936493875005865,-0.057936493875005865
0.027551818583097794,0.027551818583097794
0.2825799775967684,0.2825799775967684
0.7588720041490602,0.7588720041490602
1.3989567638143574,1.3989567638143574
2.0929207120036692,2.0929207120036692
2.7595858713408137,2.7595858713408137
3.3084352051054458,3.3084352051054458
3.5577162506765547,3.5577162506765547
3.305561648384165,3.305561648384165
2.5476610631463554,2.5476610631463554
1.5584391618454414,1.5584391618454414
0.6899066428383211,0.6899066428383211
0.12668952546728524,0.12668952546728524
-0.13193057944798636,-0.13193057944798636
-0.17287876272623767,-0.17287876272623767
-0.12187313092350356,-0.12187313092350356
-0.11756279584158237,-0.11756279584158237
-0.2073614433816072,-0.2073614433816072
-0.31080948534771585,-0.31080948534771585
-0.3395450525605238,-0.3395450525605238
-0.31871176633123804,-0.31871176633123804
-0.3201485446918784,-0.3201485446918784
-0.347447333544046,-0.347447333544046
-0.351039279445647,-0.351039279445647
-0.3273324364950804,-0.3273324364950804
-0.32661404731476024,-0.32661404731476024
-0.36684384141269133,-0.36684384141269133
-0.4142575273138245,-0.4142575273138245
-0.4221598082973467,-0.4221598082973467
-0.3998897437074205,-0.3998897437074205
-0.37402773321589333,-0.37402773321589333
-0.37187256567493276,-0.37187256567493276
-0.3783380682978145,-0.3783380682978145
-0.37402773321589333,-0.37402773321589333
-0.35894156042916914,-0.35894156042916914
-0.3553496145275682,-0.3553496145275682
-0.37546451157653377,-0.37546451157653377
-0.4063552463303023,-0.4063552463303023
-0.43149886764150924,-0.43149886764150924
-0.4480218187888738,-0.4480218187888738
-0.46957349419847977,-0.46957349419847977
-0.4947171155096867,-0.4947171155096867
-0.5069297315751301,-0.5069297315751301
-0.4875332237064848,-0.4875332237064848
-0.4494585971495142,-0.4494585971495142
-0.42647014337926786,-0.42647014337926786
-0.4365275919037506,-0.4365275919037506
-0.4530505430511152,-0.4530505430511152
-0.43580920272343043,-0.43580920272343043
-0.3977345761664599,-0.3977345761664599
-0.39270585190421853,-0.39270585190421853
-0.44155631616599206,-0.44155631616599206
-0.49184355878840597,-0.49184355878840597
-0.48897000206712515,-0.48897000206712515
-0.44227470534631225,-0.44227470534631225
-0.4063552463303023,-0.4063552463303023
-0.4034816896090215,-0.4034816896090215
-0.4070736355106225,-0.4070736355106225
-0.3833667925600559,-0.3833667925600559
-0.32661404731476024,-0.32661404731476024
-0.2547751292827403,-0.2547751292827403
-0.18580976797200124,-0.18580976797200124
-0.12977541190702574,-0.12977541190702574
-0.07661461256333103,-0.07661461256333103
-0.007649251252591948,-0.007649251252591948
0.07999422874647232,0.07999422874647232
0.16835609792585676,0.16835609792585676
0.24378696185947768,0.24378696185947768
0.30772359890797535,0.30772359890797535
0.3630395657926307,0.3630395657926307
0.39967741398896084,0.39967741398896084
0.4068613057921628,0.4068613057921628
0.39249352218575884,0.39249352218575884
0.37309701431711345,0.37309701431711345
0.3551372848091085,0.3551372848091085
0.33430399857982274,0.33430399857982274
0.3048500421866946,0.3048500421866946
0.27180413989196545,0.27180413989196545
0.24378696185947768,0.24378696185947768
0.2222352864498717,0.2222352864498717
0.20499394612218694,0.20499394612218694
0.19062616251578296,0.19062616251578296
0.18128710317162036,0.18128710317162036
0.16835609792585676,0.16835609792585676
0.1410573090736892,0.1410573090736892
0.10226429333639847,0.10226429333639847
0.07281033694327033,0.07281033694327033
0.05987933169750674,0.05987933169750674
0.05413221825494515,0.05413221825494515
0.04191960218950177,0.04191960218950177
0.032580542845339185,0.032580542845339185
0.032580542845339185,0.032580542845339185
0.02970698612405839,0.02970698612405839
-0.0011837486297101591,-0.0011837486297101591
-0.05578132633404527,-0.05578132633404527
-0.10535017977613899,-0.10535017977613899
-0.11109729321870059,-0.11109729321870059
-0.057936493875005865,-0.057936493875005865
0.04407476973046237,0.04407476973046237
0.15614348186041338,0.15614348186041338
0.23660307005627568,0.23660307005627568
0.26893058317068463,0.26893058317068463
0.2732409182526058,0.2732409182526058
0.284735145137729,0.284735145137729
0.3242465500553399,0.3242465500553399
0.38818318710383765,0.38818318710383765
0.4636140510374585,0.4636140510374585
0.5332978015285178,0.5332978015285178
0.5821482657902913,0.5821482657902913
0.5972344385770155,0.5972344385770155
0.5835850441509317,0.5835850441509317
0.5656253146429268,0.5656253146429268
0.5605965903806853,0.5605965903806853
0.5577230336594046,0.5577230336594046
0.5182116287417936,0.5182116287417936
0.4248210353001678,0.4248210353001678
0.30628682054733497,0.30628682054733497
0.20499394612218694,0.20499394612218694
0.14249408743432962,0.14249408743432962
0.09364362317255609,0.09364362317255609
0.04191960218950177,0.04191960218950177
-0.016269921416434335,-0.016269921416434335
-0.050752602071803876,-0.050752602071803876
-0.05434454797340487,-0.05434454797340487
-0.0371032076457201,-0.0371032076457201
-0.02632736994091712,-0.02632736994091712
-0.03279287256379891,-0.03279287256379891
-0.05290776961276448,-0.05290776961276448
-0.07230427748140984,-0.07230427748140984
-0.07589622338301084,-0.07589622338301084
-0.06512038567820785,-0.06512038567820785
-0.07589622338301084,-0.07589622338301084
-0.12474668764478436,-0.12474668764478436
-0.14270641715278934,-0.14270641715278934
-0.0019021378100303578,-0.0019021378100303578
0.3601660090713499,0.3601660090713499
0.8910556133279768,0.8910556133279768
1.5074335300427073,1.5074335300427073
2.175535467740492,2.175535467740492
2.8457925729792377,2.8457925729792377
3.341481107400175,3.341481107400175
3.403980966088032,3.403980966088032
2.8989533723229326,2.8989533723229326
1.9736681080705163,1.9736681080705163
0.9751071474254401,0.9751071474254401
0.21720656218763032,0.21720656218763032
-0.18724654633264165,-0.18724654633264165
-0.30003364764291285,-0.30003364764291285
-0.2583670751843413,-0.2583670751843413
-0.2095166109225678,-0.2095166109225678
-0.2590854643646615,-0.2590854643646615
-0.3941426302648589,-0.3941426302648589
-0.5011826181325686,-0.5011826181325686
-0.5083665099357705,-0.5083665099357705
-0.47388382928040096,-0.47388382928040096
-0.47675738600168177,-0.47675738600168177
-0.5112400666570514,-0.5112400666570514
-0.5291997961650563,-0.5291997961650563
-0.5406940230501794,-0.5406940230501794
-0.5758950928858693,-0.5758950928858693
-0.6089409951805984,-0.6089409951805984
-0.6075042168199579,-0.6075042168199579
-0.5816422063284308,-0.5816422063284308
-0.582360595508751,-0.582360595508751
-0.6017571033773964,-0.6017571033773964
-0.6096593843609186,-0.6096593843609186
-0.5974467682954752,-0.5974467682954752
-0.5881077089513126,-0.5881077089513126
-0.5938548223938742,-0.5938548223938742
-0.6010387141970762,-0.6010387141970762
-0.6046306600986772,-0.6046306600986772
-0.6103777735412388,-0.6103777735412388
-0.6276191138689236,-0.6276191138689236
-0.6527627351801305,-0.6527627351801305
-0.6793431348519778,-0.6793431348519778
-0.6958660859993424,-0.6958660859993424
-0.7023315886222242,-0.7023315886222242
-0.7037683669828646,-0.7037683669828646
-0.7059235345238252,-0.7059235345238252
-0.7037683669828646,-0.7037683669828646
-0.6951476968190222,-0.6951476968190222
-0.6879638050158202,-0.6879638050158202
-0.698021253540303,-0.698021253540303
-0.7210097073105494,-0.7210097073105494
-0.7346591017366332,-0.7346591017366332
-0.7289119882940716,-0.7289119882940716
-0.7202913181302292,-0.7202913181302292
-0.7210097073105494,-0.7210097073105494
-0.7181361505892686,-0.7181361505892686
-0.7030499778025444,-0.7030499778025444
-0.6894005833764606,-0.6894005833764606
-0.6858086374748597,-0.6858086374748597
-0.672877632229096,-0.672877632229096
-0.625463946327963,-0.625463946327963
-0.5493146932140218,-0.5493146932140218
-0.4710102725591202,-0.4710102725591202
-0.4049184679696619,-0.4049184679696619
-0.3452921660030854,-0.3452921660030854
-0.2863842532168291,-0.2863842532168291
-0.22101083780769099,-0.22101083780769099
-0.14342480633310953,-0.14342480633310953
-0.05865488305532607,-0.05865488305532607
0.010310478255413022,0.010310478255413022
0.04694832645174316,0.04694832645174316
0.05700577497622595,0.05700577497622595
0.05987933169750674,0.05987933169750674
0.05844255333686635,0.05844255333686635
0.04407476973046237,0.04407476973046237
0.011028867435733222,0.011028867435733222
-0.01842508895739493,-0.01842508895739493
-0.027045759121237318,-0.027045759121237318
-0.02632736994091712,-0.02632736994091712
-0.049315823711163484,-0.049315823711163484
-0.101758233874538,-0.101758233874538
-0.15276386567727213,-0.15276386567727213
-0.17575231944751848,-0.17575231944751848
-0.18868332469328203,-0.18868332469328203
-0.2224476161683314,-0.2224476161683314
-0.2720164696104251,-0.2720164696104251
-0.29859686928227247,-0.29859686928227247
-0.2820739181349079,-0.2820739181349079
-0.24830962665985853,-0.24830962665985853
-0.24112573485665656,-0.24112573485665656
-0.2748900263317059,-0.2748900263317059
-0.3215853230525188,-0.3215853230525188
-0.343855387642445,-0.343855387642445
-0.3323611607573218,-0.3323611607573218
-0.31368304206899666,-0.31368304206899666
-0.31440143124931685,-0.31440143124931685
-0.33020599321636124,-0.33020599321636124
-0.3323611607573218,-0.3323611607573218
-0.30865431780675523,-0.30865431780675523
-0.2712980804301049,-0.2712980804301049
-0.22963150797153337,-0.22963150797153337
-0.18078104370975986,-0.18078104370975986
-0.12690185518574496,-0.12690185518574496
-0.08236172600589263,-0.08236172600589263
-0.04859743453084328,-0.04859743453084328
-0.00693086207227175,-0.00693086207227175
0.05269543989430475,0.05269543989430475
0.10082751497575808,0.10082751497575808
0.10657462841831966,0.10657462841831966
0.08143100710711271,0.08143100710711271
0.07712067202519152,0.07712067202519152
0.11806885530344285,0.11806885530344285
0.16835609792585676,0.16835609792585676
0.16548254120457598,0.16548254120457598
0.09364362317255609,0.09364362317255609
-0.01267797551483334,-0.01267797551483334
-0.11109729321870059,-0.11109729321870059
-0.19083849223424262,-0.19083849223424262
-0.25764868600402113,-0.25764868600402113
-0.30362559354451385,-0.30362559354451385
-0.3287692148557208,-0.3287692148557208
-0.3467289443637258,-0.3467289443637258
-0.3955794086254993,-0.3955794086254993
-0.47316544010008077,-0.47316544010008077
-0.550033082394342,-0.550033082394342
-0.5873893197709924,-0.5873893197709924
-0.5780502604268298,-0.5780502604268298
-0.5428491905911401,-0.5428491905911401
-0.5090848991160907,-0.5090848991160907
-0.49040678042776553,-0.49040678042776553
-0.48106772108360296,-0.48106772108360296
-0.47819416436232215,-0.47819416436232215
-0.49687228305064735,-0.49687228305064735
-0.5270446286240957,-0.5270446286240957
-0.4911251696080858,-0.4911251696080858
-0.2741716371513857,-0.2741716371513857
0.17194804382745776,0.17194804382745776
0.7998201874273115,0.7998201874273115
1.5325771513539141,1.5325771513539141
2.2962248500342857,2.2962248500342857
2.96217162019111,2.96217162019111
3.290475475597441,3.290475475597441
3.0641828837965783,3.0641828837965783
2.2818570664278814,2.2818570664278814
1.2186410795539875,1.2186410795539875
0.2509708536626797,0.2509708536626797
-0.3790564574781347,-0.3790564574781347
-0.6664121296062143,-0.6664121296062143
-0.7533372204249583,-0.7533372204249583
-0.7827911768180865,-0.7827911768180865
-0.8158370791128157,-0.8158370791128157
-0.856785262391067,-0.856785262391067
-0.8876759971448355,-0.8876759971448355
-0.9034805591118799,-0.9034805591118799
-0.9041989482922,-0.9041989482922
-0.9070725050134809,-0.9070725050134809
-0.9271874020624464,-0.9271874020624464
-0.9674171961603776,-0.9674171961603776
-1.004773433537028,-1.004773433537028
-1.0169860496024714,-1.0169860496024714
-1.0040550443567078,-1.0040550443567078
-0.9825033689471018,-0.9825033689471018
-0.9717275312422988,-0.9717275312422988
-0.9695723637013381,-0.9695723637013381
-0.9753194771438998,-0.9753194771438998
-0.9868137040290229,-0.9868137040290229
-1.0040550443567078,-1.0040550443567078
-1.0198596063237522,-1.0198596063237522
-1.0241699414056733,-1.0241699414056733
-1.0277618873072742,-1.0277618873072742
-1.0399745033727177,-1.0399745033727177
-1.0672732922248853,-1.0672732922248853
-1.1003191945196145,-1.1003191945196145
-1.1312099292733828,-1.1312099292733828
-1.1419857669781859,-1.1419857669781859
-1.1254628158308213,-1.1254628158308213
-1.0873881892738508,-1.0873881892738508
-1.059371011241363,-1.059371011241363
-1.0615261787823236,-1.0615261787823236
-1.0888249676344912,-1.0888249676344912
-1.109658253863777,-1.109658253863777
-1.1125318105850577,-1.1125318105850577
-1.1039111404212154,-1.1039111404212154
-1.1031927512408952,-1.1031927512408952
-1.1075030863228164,-1.1075030863228164
-1.106066307962176,-1.106066307962176
-1.0981640269786537,-1.0981640269786537
-1.098882416158974,-1.098882416158974
-1.106066307962176,-1.106066307962176
-1.102474362060575,-1.102474362060575
-1.0780491299296882,-1.0780491299296882
-1.04859517353656,-1.04859517353656
-1.0241699414056733,-1.0241699414056733
-0.9918424282912643,-0.9918424282912643
-0.925750623701806,-0.925750623701806
-0.8373887545224216,-0.8373887545224216
-0.7526188312446381,-0.7526188312446381
-0.6922741400977415,-0.6922741400977415
-0.6405501191146871,-0.6405501191146871
-0.5780502604268298,-0.5780502604268298
-0.5011826181325686,-0.5011826181325686
-0.4257517541989477,-0.4257517541989477
-0.3596599496094894,-0.3596599496094894
-0.3057807610854745,-0.3057807610854745
-0.26052224272530194,-0.26052224272530194
-0.228194729610893,-0.228194729610893
-0.2044878866603264,-0.2044878866603264
-0.18580976797200124,-0.18580976797200124
-0.17790748698847908,-0.17790748698847908
-0.2044878866603264,-0.2044878866603264
-0.26842452370882414,-0.26842452370882414
-0.3467289443637258,-0.3467289443637258
-0.3970161869861397,-0.3970161869861397
-0.4099471922319033,-0.4099471922319033
-0.3991713545271003,-0.3991713545271003
-0.3905506843632579,-0.3905506843632579
-0.39270585190421853,-0.39270585190421853
-0.40779202469094267,-0.40779202469094267
-0.43006208928086886,-0.43006208928086886
-0.45089537551015463,-0.45089537551015463
-0.46598154829687877,-0.46598154829687877
-0.4796309427229626,-0.4796309427229626
-0.5047745640341695,-0.5047745640341695
-0.5435675797714603,-0.5435675797714603
-0.5816422063284308,-0.5816422063284308
-0.5974467682954752,-0.5974467682954752
-0.582360595508751,-0.582360595508751
-0.5514698607549825,-0.5514698607549825
-0.5320733528863371,-0.5320733528863371
-0.5313549637060169,-0.5313549637060169
-0.5241710719028149,-0.5241710719028149
-0.48537805616552415,-0.48537805616552415
-0.42647014337926786,-0.42647014337926786
-0.3876771276419771,-0.3876771276419771
-0.37546451157653377,-0.37546451157653377
-0.35319444698660757,-0.35319444698660757
-0.29572331256099166,-0.29572331256099166
-0.22603956206993236,-0.22603956206993236
-0.1735971519065579,-0.1735971519065579
-0.13408574698894696,-0.13408574698894696
-0.08739045026813402,-0.08739045026813402
-0.043568710268601894,-0.043568710268601894
-0.016269921416434335,-0.016269921416434335
0.0016898080915706364,0.0016898080915706364
0.032580542845339185,0.032580542845339185
0.06706322350070873,0.06706322350070873
0.07712067202519152,0.07712067202519152
0.04407476973046237,0.04407476973046237
-0.028482537481877714,-0.028482537481877714
-0.12833863354638536,-0.12833863354638536
-0.23753378895505556,-0.23753378895505556
-0.3273324364950804,-0.3273324364950804
-0.3905506843632579,-0.3905506843632579
-0.4401195378053516,-0.4401195378053516
-0.49184355878840597,-0.49184355878840597
-0.5263262394437755,-0.5263262394437755
-0.5414124122304996,-0.5414124122304996
-0.5421308014108198,-0.5421308014108198
-0.5363836879682583,-0.5363836879682583
-0.5205791260012139,-0.5205791260012139
-0.5090848991160907,-0.5090848991160907
-0.5270446286240957,-0.5270446286240957
-0.5579353633778642,-0.5579353633778642
-0.557216974197544,-0.557216974197544
-0.5205791260012139,-0.5205791260012139
-0.5119584558373715,-0.5119584558373715
-0.5679928119023471,-0.5679928119023471
-0.6067858276396377,-0.6067858276396377
-0.46598154829687877,-0.46598154829687877
-0.06655716403884826,-0.06655716403884826
0.5225219638237149,0.5225219638237149
1.188468733980539,1.188468733980539
1.91404180610394,1.91404180610394
2.691338899210395,2.691338899210395
3.3242397670724904,3.3242397670724904
3.4549865978907666,3.4549865978907666
2.9025453182245333,2.9025453182245333
1.8730936228256885,1.8730936228256885
0.7883259605421884,0.7883259605421884
-0.053626158793084674,-0.053626158793084674
-0.5529066391156229,-0.5529066391156229
-0.7325039341956726,-0.7325039341956726
-0.7023315886222242,-0.7023315886222242
-0.6506075676391699,-0.6506075676391699
-0.7023315886222242,-0.7023315886222242
-0.8194290250144166,-0.8194290250144166
-0.8898311646857961,-0.8898311646857961
-0.8919863322267567,-0.8919863322267567
-0.8826472728825941,-0.8826472728825941
-0.8984518348496385,-0.8984518348496385
-0.9171299535379637,-0.9171299535379637
-0.9221586778002051,-0.9221586778002051
-0.9221586778002051,-0.9221586778002051
-0.9228770669805253,-0.9228770669805253
-0.9243138453411657,-0.9243138453411657
-0.9221586778002051,-0.9221586778002051
-0.9207218994395646,-0.9207218994395646
-0.9121012292757222,-0.9121012292757222
-0.9041989482922,-0.9041989482922
-0.9034805591118799,-0.9034805591118799
-0.9156931751773233,-0.9156931751773233
-0.9307793479640475,-0.9307793479640475
-0.9372448505869292,-0.9372448505869292
-0.9401184073082101,-0.9401184073082101
-0.9458655207507716,-0.9458655207507716
-0.9552045800949343,-0.9552045800949343
-0.958078136816215,-0.958078136816215
-0.9573597476358948,-0.9573597476358948
-0.9573597476358948,-0.9573597476358948
-0.9666988069800574,-0.9666988069800574
-0.97603786632422,-0.97603786632422
-0.9753194771438998,-0.9753194771438998
-0.9631068610784564,-0.9631068610784564
-0.9552045800949343,-0.9552045800949343
-0.958078136816215,-0.958078136816215
-0.9645436394390968,-0.9645436394390968
-0.9573597476358948,-0.9573597476358948
-0.9372448505869292,-0.9372448505869292
-0.918566731898604,-0.918566731898604
-0.9200035102592444,-0.9200035102592444
-0.9394000181278899,-0.9394000181278899
-0.9638252502587766,-0.9638252502587766
-0.9817849797667816,-0.9817849797667816
-0.9868137040290229,-0.9868137040290229
-0.972445920422619,-0.972445920422619
-0.936526461406609,-0.936526461406609
-0.881928883702274,-0.881928883702274
-0.8237393600963379,-0.8237393600963379
-0.7684233932116825,-0.7684233932116825
-0.7109522587860666,-0.7109522587860666
-0.6434236758359679,-0.6434236758359679
-0.5672744227220269,-0.5672744227220269
-0.4911251696080858,-0.4911251696080858
-0.4178494732154255,-0.4178494732154255
-0.3409818309211642,-0.3409818309211642
-0.2633957994465827,-0.2633957994465827
-0.19299365977520322,-0.19299365977520322
-0.14557997387407012,-0.14557997387407012
-0.11971796338254297,-0.11971796338254297
-0.1046317905958188,-0.1046317905958188
-0.09098239616973501,-0.09098239616973501
-0.08954561780909462,-0.08954561780909462
-0.101758233874538,-0.101758233874538
-0.12330990928414397,-0.12330990928414397
-0.14557997387407012,-0.14557997387407012
-0.17287876272623767,-0.17287876272623767
-0.2052062758406466,-0.2052062758406466
-0.23537862141409496,-0.23537862141409496
-0.2554935184630605,-0.2554935184630605
-0.2741716371513857,-0.2741716371513857
-0.29716009092163204,-0.29716009092163204
-0.31871176633123804,-0.31871176633123804
-0.33451632829828243,-0.33451632829828243
-0.3524760578062874,-0.3524760578062874
-0.37330934403557314,-0.37330934403557314
-0.38408518174037615,-0.38408518174037615
-0.37977484665845496,-0.37977484665845496
-0.37618290075685396,-0.37618290075685396
-0.3898322951829377,-0.3898322951829377
-0.4085104138712629,-0.4085104138712629
-0.41210235977286386,-0.41210235977286386
-0.4049184679696619,-0.4049184679696619
-0.40420007878934167,-0.40420007878934167
-0.4092288030515831,-0.4092288030515831
-0.4006081328877407,-0.4006081328877407
-0.3639702846914106,-0.3639702846914106
-0.31009109616739566,-0.31009109616739566
-0.2583670751843413,-0.2583670751843413
-0.2202924486273708,-0.2202924486273708
-0.19012010305392243,-0.19012010305392243
-0.15491903321823272,-0.15491903321823272
-0.11037890403838038,-0.11037890403838038
-0.06368360731756746,-0.06368360731756746
-0.022735424039316124,-0.022735424039316124
0.019649537599575606,0.019649537599575606
0.06993678022198953,0.06993678022198953
0.11806885530344285,0.11806885530344285
0.1374653631720882,0.1374653631720882
0.12094241202472364,0.12094241202472364
0.0922068448119157,0.0922068448119157
0.07855745038583191,0.07855745038583191
0.07209194776295012,0.07209194776295012
0.03617248874694018,0.03617248874694018
-0.046442266989882686,-0.046442266989882686
-0.1520454764969519,-0.1520454764969519
-0.23466023223377477,-0.23466023223377477
-0.28422908567586846,-0.28422908567586846
-0.3215853230525188,-0.3215853230525188
-0.37690128993717414,-0.37690128993717414
-0.43078047846118905,-0.43078047846118905
-0.4602344348543172,-0.4602344348543172
-0.4566424889527162,-0.4566424889527162
-0.4437114837069526,-0.4437114837069526
-0.4408379269856718,-0.4408379269856718
-0.45089537551015463,-0.45089537551015463
-0.4602344348543172,-0.4602344348543172
-0.4552057105920758,-0.4552057105920758
-0.44299309452663244,-0.44299309452663244
-0.4494585971495142,-0.4494585971495142
-0.48968839124744534,-0.48968839124744534
-0.5227342935421745,-0.5227342935421745
-0.4587976564936768,-0.4587976564936768
-0.2159821135454496,-0.2159821135454496
0.2272640107121131,0.2272640107121131
0.8364580356236417,0.8364580356236417
1.5598759402060818,1.5598759402060818
2.3342994765912564,2.3342994765912564
3.0253898680592872,3.0253898680592872
3.4111648578912344,3.4111648578912344
3.280418027072958,3.280418027072958
2.6080057542932518,2.6080057542932518
1.6094447936481755,1.6094447936481755
0.6159125572653407,0.6159125572653407
-0.11899957420222276,-0.11899957420222276
-0.5112400666570514,-0.5112400666570514
-0.6247455571476428,-0.6247455571476428
-0.6024754925577166,-0.6024754925577166
-0.5909812656725933,-0.5909812656725933
-0.6484524000982093,-0.6484524000982093
-0.7353774909169534,-0.7353774909169534
-0.7835095659984067,-0.7835095659984067
-0.788538290260648,-0.788538290260648
-0.7878199010803278,-0.7878199010803278
-0.8064980197686531,-0.8064980197686531
-0.8302048627192196,-0.8302048627192196
-0.8416990896043428,-0.8416990896043428
-0.842417478784663,-0.842417478784663
-0.8402623112437024,-0.8402623112437024
-0.8452910355059438,-0.8452910355059438
-0.8546300948501063,-0.8546300948501063
-0.8661243217352296,-0.8661243217352296
-0.8668427109155498,-0.8668427109155498
-0.8610955974729881,-0.8610955974729881
-0.856785262391067,-0.856785262391067
-0.8625323758336285,-0.8625323758336285
-0.874744991899072,-0.874744991899072
-0.8797737161613133,-0.8797737161613133
-0.8776185486203527,-0.8776185486203527
-0.8776185486203527,-0.8776185486203527
-0.8927047214070769,-0.8927047214070769
-0.9135380076363627,-0.9135380076363627
-0.9228770669805253,-0.9228770669805253
-0.9106644509150819,-0.9106644509150819
-0.8955782781283577,-0.8955782781283577
-0.8919863322267567,-0.8919863322267567
-0.8991702240299587,-0.8991702240299587
-0.9013253915709193,-0.9013253915709193
-0.8970150564889982,-0.8970150564889982
-0.8962966673086779,-0.8962966673086779
-0.9085092833741213,-0.9085092833741213
-0.9243138453411657,-0.9243138453411657
-0.9336529046853282,-0.9336529046853282
-0.9300609587837273,-0.9300609587837273
-0.9214402886198849,-0.9214402886198849
-0.9106644509150819,-0.9106644509150819
-0.8991702240299587,-0.8991702240299587
-0.8840840512432345,-0.8840840512432345
-0.8697162676368305,-0.8697162676368305
-0.8575036515713872,-0.8575036515713872
-0.8409807004240226,-0.8409807004240226
-0.8043428522276924,-0.8043428522276924
-0.7454349394414361,-0.7454349394414361
-0.6786247456716576,-0.6786247456716576
-0.6225903896066821,-0.6225903896066821
-0.5723031469842682,-0.5723031469842682
-0.509803288296411,-0.509803288296411
-0.4214414191170265,-0.4214414191170265
-0.3208669338721986,-0.3208669338721986
-0.23394184305345456,-0.23394184305345456
-0.18006265452943968,-0.18006265452943968
-0.1542006440379125,-0.1542006440379125
-0.14342480633310953,-0.14342480633310953
-0.13695930371022774,-0.13695930371022774
-0.13264896862830655,-0.13264896862830655
-0.12402829846446416,-0.12402829846446416
-0.11253407157934098,-0.11253407157934098
-0.1003214555138976,-0.1003214555138976
-0.098166287972937,-0.098166287972937
-0.10966051485806018,-0.10966051485806018
-0.13193057944798636,-0.13193057944798636
-0.15348225485759232,-0.15348225485759232
-0.17718909780815886,-0.17718909780815886
-0.210235000102888,-0.210235000102888
-0.25693029682370094,-0.25693029682370094
-0.2899761991184301,-0.2899761991184301
-0.2813555289545877,-0.2813555289545877
-0.23322345387313437,-0.23322345387313437
-0.18365460043104068,-0.18365460043104068
-0.15276386567727213,-0.15276386567727213
-0.13193057944798636,-0.13193057944798636
-0.12187313092350356,-0.12187313092350356
-0.1520454764969519,-0.1520454764969519
-0.23034989715185358,-0.23034989715185358
-0.30290720436419366,-0.30290720436419366
-0.30793592862643504,-0.30793592862643504
-0.24902801584017875,-0.24902801584017875
-0.19299365977520322,-0.19299365977520322
-0.19227527059488303,-0.19227527059488303
-0.23609701059441515,-0.23609701059441515
-0.2849474748561887,-0.2849474748561887
-0.3201485446918784,-0.3201485446918784
-0.3467289443637258,-0.3467289443637258
-0.36971739813397214,-0.36971739813397214
-0.37187256567493276,-0.37187256567493276
-0.3517576686259672,-0.3517576686259672
-0.3244588797737996,-0.3244588797737996
-0.32302210141315923,-0.32302210141315923
-0.3452921660030854,-0.3452921660030854
-0.36109672797012976,-0.36109672797012976
-0.3481657227243662,-0.3481657227243662
-0.3309243823966814,-0.3309243823966814
-0.3388266633802036,-0.3388266633802036
-0.3517576686259672,-0.3517576686259672
-0.329487604036041,-0.329487604036041
-0.2835106964955483,-0.2835106964955483
-0.28063713977426746,-0.28063713977426746
-0.3273324364950804,-0.3273324364950804
-0.31799337715091786,-0.31799337715091786
-0.11181568239902079,-0.11181568239902079
0.3285568851372611,0.3285568851372611
0.9341589641471888,0.9341589641471888
1.6230941880742593,1.6230941880742593
2.3436385359354186,2.3436385359354186
2.9815681280597555,2.9815681280597555
3.303406480843204,3.303406480843204
3.078550667402982,3.078550667402982
2.3328626982306155,2.3328626982306155
1.3745315316834708,1.3745315316834708
0.5598782012003651,0.5598782012003651
0.04263799136982197,0.04263799136982197
-0.203051108299686,-0.203051108299686
-0.2662693561678635,-0.2662693561678635
-0.2598038535449817,-0.2598038535449817
-0.31009109616739566,-0.31009109616739566
-0.4516137646904748,-0.4516137646904748
-0.5873893197709924,-0.5873893197709924
-0.6225903896066821,-0.6225903896066821
-0.5960099899348348,-0.5960099899348348
-0.5952916007545146,-0.5952916007545146
-0.6326478381311649,-0.6326478381311649
-0.6549179027210911,-0.6549179027210911
-0.6570730702620516,-0.6570730702620516
-0.6671305187865345,-0.6671305187865345
-0.6807799132126182,-0.6807799132126182
-0.6807799132126182,-0.6807799132126182
-0.6714408538684556,-0.6714408538684556
-0.6814983023929384,-0.6814983023929384
-0.6994580319009435,-0.6994580319009435
-0.705205145343505,-0.705205145343505
-0.6987396427206232,-0.6987396427206232
-0.701613199441904,-0.701613199441904
-0.7217280964908696,-0.7217280964908696
-0.7418429935398352,-0.7418429935398352
-0.7468717178020765,-0.7468717178020765
-0.7346591017366332,-0.7346591017366332
-0.7166993722286282,-0.7166993722286282
-0.7102338696057464,-0.7102338696057464
-0.7281935991137514,-0.7281935991137514
-0.7569291663265594,-0.7569291663265594
-0.7720153391132835,-0.7720153391132835
-0.7619578905888007,-0.7619578905888007
-0.7468717178020765,-0.7468717178020765
-0.7526188312446381,-0.7526188312446381
-0.7820727876377663,-0.7820727876377663
-0.802906073867052,-0.802906073867052
-0.7928486253425693,-0.7928486253425693
-0.75908433386752,-0.75908433386752
-0.7346591017366332,-0.7346591017366332
-0.7382510476382341,-0.7382510476382341
-0.7569291663265594,-0.7569291663265594
-0.7677050040313623,-0.7677050040313623
-0.7669866148510421,-0.7669866148510421
-0.7619578905888007,-0.7619578905888007
-0.7504636637036776,-0.7504636637036776
-0.7174177614089484,-0.7174177614089484
-0.6592282378030123,-0.6592282378030123
-0.593136433213554,-0.593136433213554
-0.5414124122304996,-0.5414124122304996
-0.5040561748538493,-0.5040561748538493
-0.4587976564936768,-0.4587976564936768
-0.3833667925600559,-0.3833667925600559
-0.28063713977426746,-0.28063713977426746
-0.17790748698847908,-0.17790748698847908
-0.0988846771532572,-0.0988846771532572
-0.040695153547321096,-0.040695153547321096
0.01174725661605342,0.01174725661605342
0.05844255333686635,0.05844255333686635
0.0807126179267925,0.0807126179267925
0.06778161268102893,0.06778161268102893
0.03545409956661998,0.03545409956661998
0.015339202517654414,0.015339202517654414
0.0232414835011766,0.0232414835011766
0.046229937271422966,0.046229937271422966
0.057724164156546146,0.057724164156546146
0.03760926710758058,0.03760926710758058
-0.014833143055793937,-0.014833143055793937
-0.07517783420269064,-0.07517783420269064
-0.12043635256286317,-0.12043635256286317
-0.14198802797246912,-0.14198802797246912
-0.1542006440379125,-0.1542006440379125
-0.17072359518527708,-0.17072359518527708
-0.19083849223424262,-0.19083849223424262
-0.203051108299686,-0.203051108299686
-0.2052062758406466,-0.2052062758406466
-0.2073614433816072,-0.2073614433816072
-0.2152637243651294,-0.2152637243651294
-0.21957405944705058,-0.21957405944705058
-0.210235000102888,-0.210235000102888
-0.19514882731616381,-0.19514882731616381
-0.19514882731616381,-0.19514882731616381
-0.2109533892832082,-0.2109533892832082
-0.22388439452897177,-0.22388439452897177
-0.2202924486273708,-0.2202924486273708
-0.2116717784635284,-0.2116717784635284
-0.2145453351848092,-0.2145453351848092
-0.22316600534865158,-0.22316600534865158
-0.21957405944705058,-0.21957405944705058
-0.203051108299686,-0.203051108299686
-0.18940171387360225,-0.18940171387360225
-0.18652815715232143,-0.18652815715232143
-0.18293621125072046,-0.18293621125072046
-0.1678500384639963,-0.1678500384639963
-0.14773514141503072,-0.14773514141503072
-0.13911447125118834,-0.13911447125118834
-0.14342480633310953,-0.14342480633310953
-0.14198802797246912,-0.14198802797246912
-0.12402829846446416,-0.12402829846446416
-0.1067869581367794,-0.1067869581367794
-0.11899957420222276,-0.11899957420222276
-0.1577925899395135,-0.1577925899395135
-0.17934426534911949,-0.17934426534911949
-0.14342480633310953,-0.14342480633310953
-0.05434454797340487,-0.05434454797340487
0.04191960218950177,0.04191960218950177
0.10298268251671867,0.10298268251671867
0.13028147136888624,0.13028147136888624
0.1496779792375316,0.1496779792375316
0.18056871399130014,0.18056871399130014
0.21936172972859092,0.21936172972859092
0.25743635628556144,0.25743635628556144
0.2976661503834926,0.2976661503834926
0.34148789038302474,0.34148789038302474
0.38315446284159627,0.38315446284159627
0.4090164733331234,0.4090164733331234
0.4054245274315224,0.4054245274315224
0.37381540349743364,0.37381540349743364
0.3328672202191823,0.3328672202191823
0.2940742044818916,0.2940742044818916
0.24450535103979787,0.24450535103979787
0.16620093038489617,0.16620093038489617
0.06921839104166932,0.06921839104166932
0.0024081972718908353,0.0024081972718908353
-0.024890591580276723,-0.024890591580276723
-0.042131931907961495,-0.042131931907961495
-0.09385595289101581,-0.09385595289101581
-0.1563558115788731,-0.1563558115788731
-0.18796493551296184,-0.18796493551296184
-0.1714419843655973,-0.1714419843655973
-0.14557997387407012,-0.14557997387407012
-0.1462983630543903,-0.1462983630543903
-0.17431554108687808,-0.17431554108687808
-0.20161432993904563,-0.20161432993904563
-0.2044878866603264,-0.2044878866603264
-0.19155688141456284,-0.19155688141456284
-0.19012010305392243,-0.19012010305392243
-0.2044878866603264,-0.2044878866603264
-0.17503393026719827,-0.17503393026719827
-0.011241197154192943,-0.011241197154192943
0.33789594448142374,0.33789594448142374
0.8630384352954891,0.8630384352954891
1.528266816271993,1.528266816271993
2.2818570664278814,2.2818570664278814
2.9930623549448785,2.9930623549448785
3.4341533116614804,3.4341533116614804
3.3896131824816282,3.3896131824816282
2.81849378412707,2.81849378412707
1.9018291900384965,1.9018291900384965
0.9427796343110312,0.9427796343110312
0.21002267038442832,0.21002267038442832
-0.17934426534911949,-0.17934426534911949
-0.2820739181349079,-0.2820739181349079
-0.2633957994465827,-0.2633957994465827
-0.2705796912497847,-0.2705796912497847
-0.3488841119046864,-0.3488841119046864
-0.448740207969194,-0.448740207969194
-0.5054929532144897,-0.5054929532144897
-0.5076481207554503,-0.5076481207554503
-0.49543550469000697,-0.49543550469000697
-0.5040561748538493,-0.5040561748538493
-0.5306365745256967,-0.5306365745256967
-0.5406940230501794,-0.5406940230501794
-0.5177055692799332,-0.5177055692799332
-0.48825161288680496,-0.48825161288680496
-0.4832228886245636,-0.4832228886245636
-0.5133952341980119,-0.5133952341980119
-0.5406940230501794,-0.5406940230501794
-0.5378204663288987,-0.5378204663288987
-0.5033377856735292,-0.5033377856735292
-0.4839412778048838,-0.4839412778048838
-0.5112400666570514,-0.5112400666570514
-0.5658376443613864,-0.5658376443613864
-0.596728379115155,-0.596728379115155
-0.5794870387874702,-0.5794870387874702
-0.5471595256730613,-0.5471595256730613
-0.5335101312469774,-0.5335101312469774
-0.5363836879682583,-0.5363836879682583
-0.5349469096076179,-0.5349469096076179
-0.5284814069847361,-0.5284814069847361
-0.5306365745256967,-0.5306365745256967
-0.5450043581321007,-0.5450043581321007
-0.5600905309188249,-0.5600905309188249
-0.5737399253449086,-0.5737399253449086
-0.5909812656725933,-0.5909812656725933
-0.6075042168199579,-0.6075042168199579
-0.6067858276396377,-0.6067858276396377
-0.582360595508751,-0.582360595508751
-0.550033082394342,-0.550033082394342
-0.5356652987879381,-0.5356652987879381
-0.5450043581321007,-0.5450043581321007
-0.5622456984597854,-0.5622456984597854
-0.5708663686236278,-0.5708663686236278
-0.5679928119023471,-0.5679928119023471
-0.5622456984597854,-0.5622456984597854
-0.5529066391156229,-0.5529066391156229
-0.5291997961650563,-0.5291997961650563
-0.48609644534584434,-0.48609644534584434
-0.42790692173990824,-0.42790692173990824
-0.36109672797012976,-0.36109672797012976
-0.28782103157746947,-0.28782103157746947
-0.210235000102888,-0.210235000102888
-0.14055124961182874,-0.14055124961182874
-0.08595367190749362,-0.08595367190749362
-0.036384818465399905,-0.036384818465399905
0.03042537530437859,0.03042537530437859
0.11591368776248226,0.11591368776248226
0.19062616251578296,0.19062616251578296
0.2279823998924333,0.2279823998924333
0.23660307005627568,0.23660307005627568
0.24666051858075846,0.24666051858075846
0.27180413989196545,0.27180413989196545
0.3012580962850936,0.3012580962850936
0.31203393398989654,0.31203393398989654
0.2940742044818916,0.2940742044818916
0.25240763202332006,0.25240763202332006
0.21289622710570913,0.21289622710570913
0.19781005431898493,0.19781005431898493
0.20427555694186672,0.20427555694186672
0.20212038940090613,0.20212038940090613
0.17338482218809817,0.17338482218809817
0.1374653631720882,0.1374653631720882
0.12381596874600444,0.12381596874600444
0.1338734172704872,0.1338734172704872
0.1396205307130488,0.1396205307130488
0.12453435792632464,0.12453435792632464
0.09651717989383689,0.09651717989383689
0.07496550448423092,0.07496550448423092
0.05700577497622595,0.05700577497622595
0.03114376448469879,0.03114376448469879
0.0009714189112504376,0.0009714189112504376
-0.0047756945313111535,-0.0047756945313111535
0.027551818583097794,0.027551818583097794
0.07209194776295012,0.07209194776295012
0.07927583956615211,0.07927583956615211
0.040482823828861376,0.040482823828861376
-0.0019021378100303578,-0.0019021378100303578
0.010310478255413022,0.010310478255413022
0.0828677854677531,0.0828677854677531
0.16907448710617698,0.16907448710617698
0.2207985080892313,0.2207985080892313
0.23947662677755646,0.23947662677755646
0.26893058317068463,0.26893058317068463
0.34220627956334493,0.34220627956334493
0.43559687300497074,0.43559687300497074
0.5024070667747492,0.5024070667747492
0.5210851854630745,0.5210851854630745
0.5167748503811532,0.5167748503811532
0.5203667962827542,0.5203667962827542
0.5354529690694784,0.5354529690694784
0.5455104175939612,0.5455104175939612
0.5440736392333207,0.5440736392333207
0.5318610231678774,0.5318610231678774
0.5067174018566705,0.5067174018566705
0.4564301592342565,0.4564301592342565
0.37956251693999526,0.37956251693999526
0.2789880316951674,0.2789880316951674
0.17194804382745776,0.17194804382745776
0.07783906120551172,0.07783906120551172
0.03042537530437859,0.03042537530437859
0.026833429402777595,0.026833429402777595
0.05269543989430475,0.05269543989430475
0.06347127759910774,0.06347127759910774
0.04910349399270376,0.04910349399270376
0.021086315960216005,0.021086315960216005
0.0009714189112504376,0.0009714189112504376
-0.011241197154192943,-0.011241197154192943
-0.022735424039316124,-0.022735424039316124
-0.02560898076059692,-0.02560898076059692
-0.011241197154192943,-0.011241197154192943
-0.005494083711631352,-0.005494083711631352
-0.040695153547321096,-0.040695153547321096
-0.08020655846493203,-0.08020655846493203
-0.01339636469515354,-0.01339636469515354
0.24594212940043828,0.24594212940043828
0.6884698644776808,0.6884698644776808
1.249531814307756,1.249531814307756
1.8975188549565754,1.8975188549565754
2.6101609218342126,2.6101609218342126
3.263176686745273,3.263176686745273
3.5914805421516043,3.5914805421516043
3.3694982854326625,3.3694982854326625
2.633149375604459,2.633149375604459
1.6848756575817965,1.6848756575817965
0.8422051490662034,0.8422051490662034
0.25384441038396044,0.25384441038396044
-0.06440199649788765,-0.06440199649788765
-0.14270641715278934,-0.14270641715278934
-0.08810883944845423,-0.08810883944845423
-0.07589622338301084,-0.07589622338301084
-0.18940171387360225,-0.18940171387360225
-0.32230371223283905,-0.32230371223283905
-0.340263441740844,-0.340263441740844
-0.26842452370882414,-0.26842452370882414
-0.23537862141409496,-0.23537862141409496
-0.2892578099381099,-0.2892578099381099
-0.36181511715044995,-0.36181511715044995
-0.3869587384616569,-0.3869587384616569
-0.3711541764946125,-0.3711541764946125
-0.3431369984621248,-0.3431369984621248
-0.3352347174786026,-0.3352347174786026
-0.35678639288820857,-0.35678639288820857
-0.4070736355106225,-0.4070736355106225
-0.448740207969194,-0.448740207969194
-0.4587976564936768,-0.4587976564936768
-0.42718853255958805,-0.42718853255958805
-0.37761967911749433,-0.37761967911749433
-0.33451632829828243,-0.33451632829828243
-0.31583820960995723,-0.31583820960995723
-0.32589565813444,-0.32589565813444
-0.3517576686259672,-0.3517576686259672
-0.37259095485525295,-0.37259095485525295
-0.3783380682978145,-0.3783380682978145
-0.37330934403557314,-0.37330934403557314
-0.3711541764946125,-0.3711541764946125
-0.3790564574781347,-0.3790564574781347
-0.3855219601010165,-0.3855219601010165
-0.37977484665845496,-0.37977484665845496
-0.37259095485525295,-0.37259095485525295
-0.3790564574781347,-0.3790564574781347
-0.39198746272389834,-0.39198746272389834
-0.3826484033797357,-0.3826484033797357
-0.3481657227243662,-0.3481657227243662
-0.3273324364950804,-0.3273324364950804
-0.347447333544046,-0.347447333544046
-0.3826484033797357,-0.3826484033797357
-0.3869587384616569,-0.3869587384616569
-0.35319444698660757,-0.35319444698660757
-0.31368304206899666,-0.31368304206899666
-0.29572331256099166,-0.29572331256099166
-0.29716009092163204,-0.29716009092163204
-0.29931525846259266,-0.29931525846259266
-0.2892578099381099,-0.2892578099381099
-0.2598038535449817,-0.2598038535449817
-0.20017755157840522,-0.20017755157840522
-0.10535017977613899,-0.10535017977613899
0.0067185323538120284,0.0067185323538120284
0.10729301759863986,0.10729301759863986
0.18272388153226074,0.18272388153226074
0.24666051858075846,0.24666051858075846
0.3055684313670148,0.3055684313670148
0.3493901713665469,0.3493901713665469
0.36950506841551245,0.36950506841551245
0.386028019562877,0.386028019562877
0.42266586775920717,0.42266586775920717
0.4686427752996999,0.4686427752996999
0.49234961825026646,0.49234961825026646
0.4822921697257837,0.4822921697257837
0.46145888349649794,0.46145888349649794
0.45283821333265556,0.45283821333265556
0.4549933808736161,0.4549933808736161
0.44349915398849293,0.44349915398849293
0.40039580316928103,0.40039580316928103
0.3407695012027045,0.3407695012027045
0.29910292874413297,0.29910292874413297
0.2933558153015714,0.2933558153015714
0.30413165300637435,0.30413165300637435
0.29551098284253197,0.29551098284253197
0.26318346972812307,0.26318346972812307
0.23516629169563527,0.23516629169563527
0.2251088431711525,0.2251088431711525
0.21936172972859092,0.21936172972859092
0.19637327595834456,0.19637327595834456
0.17051126546681736,0.17051126546681736
0.16260898448329517,0.16260898448329517
0.17194804382745776,0.17194804382745776
0.17553998972905877,0.17553998972905877
0.17122965464713757,0.17122965464713757
0.17194804382745776,0.17194804382745776
0.19206294087642334,0.19206294087642334
0.2215168972695515,0.2215168972695515
0.25240763202332006,0.25240763202332006
0.2789880316951674,0.2789880316951674
0.31131554480957635,0.31131554480957635
0.35370050644846807,0.35370050644846807
0.4082980841528032,0.4082980841528032
0.4722347212013009,0.4722347212013009
0.54120008251204,0.54120008251204
0.6015447736589367,0.6015447736589367
0.6410561785765476,0.6410561785765476
0.6590159080845526,0.6590159080845526
0.6690733566090354,0.6690733566090354
0.678412415953198,0.678412415953198
0.6805675834941586,0.6805675834941586
0.6762572484122373,0.6762572484122373
0.6841595293957595,0.6841595293957595
0.7028376480840848,0.7028376480840848
0.6942169779202424,0.6942169779202424
0.6159125572653407,0.6159125572653407
0.4822921697257837,0.4822921697257837
0.3551372848091085,0.3551372848091085
0.2983845395638128,0.2983845395638128
0.30628682054733497,0.30628682054733497
0.3321488310388621,0.3321488310388621
0.31131554480957635,0.31131554480957635
0.24809729694139887,0.24809729694139887
0.17769515727001936,0.17769515727001936
0.151114757598172,0.151114757598172
0.16979287628649717,0.16979287628649717
0.19709166513866475,0.19709166513866475
0.19062616251578296,0.19062616251578296
0.1532699251391326,0.1532699251391326
0.11950563366408325,0.11950563366408325
0.11735046612312265,0.11735046612312265
0.12166080120504384,0.12166080120504384
0.10010912579543788,0.10010912579543788
0.07712067202519152,0.07712067202519152
0.14033891989336902,0.14033891989336902
0.36160278743199026,0.36160278743199026
0.7466593880836169,0.7466593880836169
1.2552789277503176,1.2552789277503176
1.8695016769240875,1.8695016769240875
2.5778334087198034,2.5778334087198034
3.2689238001878347,3.2689238001878347
3.681279189691629,3.681279189691629
3.558434639856875,3.558434639856875
2.885303977896849,2.885303977896849
1.9348750923332256,1.9348750923332256
1.0455092870968197,1.0455092870968197
0.4082980841528032,0.4082980841528032
0.060597720877826944,0.060597720877826944
-0.03207448338347871,-0.03207448338347871
0.01605759169797461,0.01605759169797461
0.03545409956661998,0.03545409956661998
-0.06224682895692706,-0.06224682895692706
-0.2008959407587254,-0.2008959407587254
-0.2641141886269029,-0.2641141886269029
-0.24687284829921816,-0.24687284829921816
-0.22675795125025258,-0.22675795125025258
-0.23394184305345456,-0.23394184305345456
-0.23825217813537575,-0.23825217813537575
-0.22172922698801117,-0.22172922698801117
-0.20017755157840522,-0.20017755157840522
-0.18652815715232143,-0.18652815715232143
-0.19945916239808503,-0.19945916239808503
-0.24974640502049894,-0.24974640502049894
-0.33020599321636124,-0.33020599321636124
-0.37546451157653377,-0.37546451157653377
-0.34601055518340557,-0.34601055518340557
-0.2662693561678635,-0.2662693561678635
-0.2123901676438486,-0.2123901676438486
-0.22172922698801117,-0.22172922698801117
-0.26124063190562213,-0.26124063190562213
-0.2777635830529867,-0.2777635830529867
-0.2677061345285039,-0.2677061345285039
-0.2720164696104251,-0.2720164696104251
-0.31080948534771585,-0.31080948534771585
-0.35391283616692776,-0.35391283616692776
-0.3553496145275682,-0.3553496145275682
-0.3165565987902774,-0.3165565987902774
-0.2799187505939473,-0.2799187505939473
-0.2813555289545877,-0.2813555289545877
-0.3215853230525188,-0.3215853230525188
-0.37330934403557314,-0.37330934403557314
-0.4063552463303023,-0.4063552463303023
-0.3941426302648589,-0.3941426302648589
-0.336671495839243,-0.336671495839243
-0.26842452370882414,-0.26842452370882414
-0.24830962665985853,-0.24830962665985853
-0.29572331256099166,-0.29572331256099166
-0.36037833878980957,-0.36037833878980957
-0.36971739813397214,-0.36971739813397214
-0.32230371223283905,-0.32230371223283905
-0.2892578099381099,-0.2892578099381099
-0.31152787452803604,-0.31152787452803604
-0.3337979391179622,-0.3337979391179622
-0.2820739181349079,-0.2820739181349079
-0.1606661466607943,-0.1606661466607943
-0.046442266989882686,-0.046442266989882686
0.01677598087829481,0.01677598087829481
0.056287385795905746,0.056287385795905746
0.12166080120504384,0.12166080120504384
0.21936172972859092,0.21936172972859092
0.31849943661277835,0.31849943661277835
0.39249352218575884,0.39249352218575884
0.44278076480817274,0.44278076480817274
0.48085539136514327,0.48085539136514327
0.5095909585779512,0.5095909585779512
0.5218035746433947,0.5218035746433947
0.5139012936598725,0.5139012936598725
0.49594156415186746,0.49594156415186746
0.4765450562832221,0.4765450562832221
0.4549933808736161,0.4549933808736161
0.43056814874272936,0.43056814874272936
0.4104532516937638,0.4104532516937638
0.3975222464480002,0.3975222464480002
0.38530963038255683,0.38530963038255683
0.3594476198910297,0.3594476198910297
0.31778104743245816,0.31778104743245816
0.27252252907228564,0.27252252907228564
0.23803984841691608,0.23803984841691608
0.2200801189089111,0.2200801189089111
0.21289622710570913,0.21289622710570913
0.20643072448282732,0.20643072448282732
0.17553998972905877,0.17553998972905877
0.10872979595928027,0.10872979595928027
0.03186215366501899,0.03186215366501899
0.0045633648128514314,0.0045633648128514314
0.04191960218950177,0.04191960218950177
0.09579879071351668,0.09579879071351668
0.09651717989383689,0.09651717989383689
0.04120121300918157,0.04120121300918157
-0.008367640432912148,-0.008367640432912148
0.011028867435733222,0.011028867435733222
0.0828677854677531,0.0828677854677531
0.151114757598172,0.151114757598172
0.18703421661418196,0.18703421661418196
0.21361461628602932,0.21361461628602932
0.2509708536626797,0.2509708536626797
0.2897638693999704,0.2897638693999704
0.31562587989149754,0.31562587989149754
0.3436430579239853,0.3436430579239853
0.3946486897267194,0.3946486897267194
0.4557117700539363,0.4557117700539363
0.49737834251250784,0.49737834251250784
0.5218035746433947,0.5218035746433947
0.5562862552987642,0.5562862552987642
0.6130390005440599,0.6130390005440599
0.6539871838223112,0.6539871838223112
0.6410561785765476,0.6410561785765476
0.5864586008722125,0.5864586008722125
0.5368897474301187,0.5368897474301187
0.5110277369385916,0.5110277369385916
0.4751082779225817,0.4751082779225817
0.38746479792351746,0.38746479792351746
0.2660570264494038,0.2660570264494038
0.16620093038489617,0.16620093038489617
0.12668952546728524,0.12668952546728524
0.11663207694280245,0.11663207694280245
0.09579879071351668,0.09579879071351668
0.04407476973046237,0.04407476973046237
-0.0019021378100303578,-0.0019021378100303578
-0.024172202399956523,-0.024172202399956523
-0.03135609420315851,-0.03135609420315851
-0.047879045350523085,-0.047879045350523085
-0.06799394239948865,-0.06799394239948865
-0.07589622338301084,-0.07589622338301084
-0.06799394239948865,-0.06799394239948865
-0.05865488305532607,-0.05865488305532607
-0.06296521813724726,-0.06296521813724726
-0.09026400698941482,-0.09026400698941482
-0.11109729321870059,-0.11109729321870059
-0.0378215968260403,-0.0378215968260403
0.23444790251531508,0.23444790251531508
0.7179238208708089,0.7179238208708089
1.3213707323397759,1.3213707323397759
1.9499612651199498,1.9499612651199498
2.5677759601953207,2.5677759601953207
3.1058494562551497,3.1058494562551497
3.3802741231374656,3.3802741231374656
3.1978032713361353,3.1978032713361353
2.5347300579005916,2.5347300579005916
1.6029792910252938,1.6029792910252938
0.7157686533298483,0.7157686533298483
0.11806885530344285,0.11806885530344285
-0.13049380108734596,-0.13049380108734596
-0.14845353059535094,-0.14845353059535094
-0.12259152010382376,-0.12259152010382376
-0.17072359518527708,-0.17072359518527708
-0.2770451938726665,-0.2770451938726665
-0.35391283616692776,-0.35391283616692776
-0.35319444698660757,-0.35319444698660757
-0.3172749879705976,-0.3172749879705976
-0.31583820960995723,-0.31583820960995723
-0.36612545223237114,-0.36612545223237114
-0.41928625157606586,-0.41928625157606586
-0.43078047846118905,-0.43078047846118905
-0.4128207489531841,-0.4128207489531841
-0.40420007878934167,-0.40420007878934167
-0.41210235977286386,-0.41210235977286386
-0.42790692173990824,-0.42790692173990824
-0.43868275944471125,-0.43868275944471125
-0.4587976564936768,-0.4587976564936768
-0.47819416436232215,-0.47819416436232215
-0.4875332237064848,-0.4875332237064848
-0.47747577518200196,-0.47747577518200196
-0.45376893223143544,-0.45376893223143544
-0.42862531092022843,-0.42862531092022843
-0.4085104138712629,-0.4085104138712629
-0.4049184679696619,-0.4049184679696619
-0.42718853255958805,-0.42718853255958805
-0.4710102725591202,-0.4710102725591202
-0.5126768450176917,-0.5126768450176917
-0.5256078502634552,-0.5256078502634552
-0.5033377856735292,-0.5033377856735292
-0.4681367158378394,-0.4681367158378394
-0.45017698632983444,-0.45017698632983444
-0.459516045673997,-0.459516045673997
-0.48106772108360296,-0.48106772108360296
-0.49328033714904634,-0.49328033714904634
-0.49040678042776553,-0.49040678042776553
-0.4803493319032828,-0.4803493319032828
-0.47747577518200196,-0.47747577518200196
-0.4839412778048838,-0.4839412778048838
-0.4911251696080858,-0.4911251696080858
-0.4868148345261646,-0.4868148345261646
-0.4789125535426424,-0.4789125535426424
-0.4803493319032828,-0.4803493319032828
-0.4796309427229626,-0.4796309427229626
-0.448740207969194,-0.448740207969194
-0.38480357092069634,-0.38480357092069634
-0.3215853230525188,-0.3215853230525188
-0.28853942075778966,-0.28853942075778966
-0.2662693561678635,-0.2662693561678635
-0.2181372810864102,-0.2181372810864102
-0.13695930371022774,-0.13695930371022774
-0.050752602071803876,-0.050752602071803876
0.01821275923893521,0.01821275923893521
0.07568389366455112,0.07568389366455112
0.13602858481144783,0.13602858481144783
0.19852844349930515,0.19852844349930515
0.25025246448235944,0.25025246448235944
0.2868903126786896,0.2868903126786896
0.31203393398989654,0.31203393398989654
0.3285568851372611,0.3285568851372611
0.3249649392356601,0.3249649392356601
0.3005397071047734,0.3005397071047734
0.26821219399036444,0.26821219399036444
0.23660307005627568,0.23660307005627568
0.20571233530250713,0.20571233530250713
0.17122965464713757,0.17122965464713757
0.1489595900572114,0.1489595900572114
0.13099986054920643,0.13099986054920643
0.10154590415607828,0.10154590415607828
0.04694832645174316,0.04694832645174316
0.007436921534132227,0.007436921534132227
0.0002530297309302387,0.0002530297309302387
0.03114376448469879,0.03114376448469879
0.059160942517186545,0.059160942517186545
0.09508040153319648,0.09508040153319648
0.13674697399176802,0.13674697399176802
0.19709166513866475,0.19709166513866475
0.2509708536626797,0.2509708536626797
0.31059715562925616,0.31059715562925616
0.38890157628415783,0.38890157628415783
0.508872569397631,0.508872569397631
0.6719469133303162,0.6719469133303162
0.873814273000292,0.873814273000292
1.111601091686278,1.111601091686278
1.3802786451260323,1.3802786451260323
1.6784101549589145,1.6784101549589145
2.0289840749551717,2.0289840749551717
2.5095864365893847,2.5095864365893847
3.225820449368623,3.225820449368623
4.211450404767936,4.211450404767936
5.320643299182323,5.320643299182323
6.2480837309757,6.2480837309757
6.699950525397105,6.699950525397105
6.599376040152277,6.599376040152277
6.114463343436143,6.114463343436143
5.505987707704934,5.505987707704934
4.898948850334366,4.898948850334366
4.233002080177542,4.233002080177542
3.3867396257603475,3.3867396257603475
2.362316654623744,2.362316654623744
1.3199339539791355,1.3199339539791355
0.4700795536603403,0.4700795536603403
-0.08236172600589263,-0.08236172600589263
-0.38121162501909533,-0.38121162501909533
-0.5493146932140218,-0.5493146932140218
-0.6793431348519778,-0.6793431348519778
-0.7942854037032097,-0.7942854037032097
-0.8883943863251557,-0.8883943863251557
-0.9587965259965352,-0.9587965259965352
-1.0148308820615106,-1.0148308820615106
-1.0564974545200823,-1.0564974545200823
-1.08451463255257,-1.08451463255257
-1.1010375836999347,-1.1010375836999347
-1.1297731509127424,-1.1297731509127424
-1.1692845558303535,-1.1692845558303535
-1.2289108577969299,-1.2289108577969299
-1.290692327304467,-1.290692327304467
-1.351755407631684,-1.351755407631684
-1.3891116450083343,-1.3891116450083343
-1.3970139259918566,-1.3970139259918566
-1.3855196991067333,-1.3855196991067333
-1.3912668125492949,-1.3912668125492949
-1.4379621092701078,-1.4379621092701078
-1.506927470580847,-1.506927470580847
-1.5615250482851821,-1.5615250482851821
-1.579484777793187,-1.579484777793187
-1.5924157830389507,-1.5924157830389507
-1.632645577136882,-1.632645577136882
-1.7066396627098623,-1.7066396627098623
-1.7712946889386803,-1.7712946889386803
-1.8057773695940498,-1.8057773695940498
-1.8223003207414143,-1.8223003207414143
-1.863966893199986,-1.863966893199986
-1.932932254510725,-1.932932254510725
-2.004052783362425,-2.004052783362425
-2.0500296909029174,-2.0500296909029174
-2.080202036476366,-2.080202036476366
-2.1039088794269323,-2.1039088794269323
-2.1211502197546173,-2.1211502197546173
-2.1218686089349372,-2.1218686089349372
-2.1161214954923757,-2.1161214954923757
-2.1146847171317353,-2.1146847171317353
-2.113247938771095,-2.113247938771095
-2.088822706640208,-2.088822706640208
-2.037817074837474,-2.037817074837474
-1.9717252702480157,-1.9717252702480157
-1.9027599089372766,-1.9027599089372766
-1.8143980397578923,-1.8143980397578923
-1.6965822141853797,-1.6965822141853797
-1.5579331023835812,-1.5579331023835812
-1.430778217466906,-1.430778217466906
-1.315835948615674,-1.315835948615674
-1.189399452879319,-1.189399452879319
-1.0342273899301562,-1.0342273899301562
-0.8790553269809931,-0.8790553269809931
-0.7526188312446381,-0.7526188312446381
-0.6585098486226921,-0.6585098486226921
-0.5665560335417066,-0.5665560335417066
-0.4724470509197606,-0.4724470509197606
-0.3876771276419771,-0.3876771276419771
-0.3323611607573218,-0.3323611607573218
-0.29572331256099166,-0.29572331256099166
-0.2677061345285039,-0.2677061345285039
-0.24040734567633634,-0.24040734567633634
-0.22532117288961218,-0.22532117288961218
-0.2167005027257698,-0.2167005027257698
-0.206643054201287,-0.206643054201287
-0.18078104370975986,-0.18078104370975986
-0.14701675223471053,-0.14701675223471053
-0.11828118502190257,-0.11828118502190257
-0.10822373649741979,-0.10822373649741979
-0.11468923912030157,-0.11468923912030157
-0.13121219026766615,-0.13121219026766615
-0.14557997387407012,-0.14557997387407012
-0.15348225485759232,-0.15348225485759232
-0.1520454764969519,-0.1520454764969519
-0.14773514141503072,-0.14773514141503072
-0.14773514141503072,-0.14773514141503072
-0.1520454764969519,-0.1520454764969519
-0.1462983630543903,-0.1462983630543903
-0.12474668764478436,-0.12474668764478436
-0.09672950961229661,-0.09672950961229661
-0.08236172600589263,-0.08236172600589263
-0.09098239616973501,-0.09098239616973501
-0.10894212567773999,-0.10894212567773999
-0.12043635256286317,-0.12043635256286317
-0.12690185518574496,-0.12690185518574496
-0.13624091452990755,-0.13624091452990755
-0.14342480633310953,-0.14342480633310953
-0.13552252534958734,-0.13552252534958734
-0.11037890403838038,-0.11037890403838038
-0.08236172600589263,-0.08236172600589263
-0.06943072076012904,-0.06943072076012904
-0.07158588830108964,-0.07158588830108964
-0.07445944502237044,-0.07445944502237044
-0.06655716403884826,-0.06655716403884826
-0.05290776961276448,-0.05290776961276448
-0.050752602071803876,-0.050752602071803876
-0.06871233157980886,-0.06871233157980886
-0.0952927312516562,-0.0952927312516562
-0.11181568239902079,-0.11181568239902079
-0.10966051485806018,-0.10966051485806018
-0.0988846771532572,-0.0988846771532572
-0.0931375637106956,-0.0931375637106956
-0.09744789879261681,-0.09744789879261681
-0.11397084993998138,-0.11397084993998138
-0.13552252534958734,-0.13552252534958734
-0.14557997387407012,-0.14557997387407012
-0.12259152010382376,-0.12259152010382376
-0.07374105584205025,-0.07374105584205025
-0.03279287256379891,-0.03279287256379891
-0.024890591580276723,-0.024890591580276723
-0.043568710268601894,-0.043568710268601894
-0.06727555321916845,-0.06727555321916845
-0.08882722862877442,-0.08882722862877442
-0.11181568239902079,-0.11181568239902079
-0.12618346600542477,-0.12618346600542477
-0.12187313092350356,-0.12187313092350356
-0.1067869581367794,-0.1067869581367794
-0.098166287972937,-0.098166287972937
-0.09385595289101581,-0.09385595289101581
-0.06943072076012904,-0.06943072076012904
-0.00693086207227175,-0.00693086207227175
0.07999422874647232,0.07999422874647232
0.15829864940137398,0.15829864940137398
0.20643072448282732,0.20643072448282732
0.2272640107121131,0.2272640107121131
0.23803984841691608,0.23803984841691608
0.25025246448235944,0.25025246448235944
0.266775415629724,0.266775415629724
0.2912006477606108,0.2912006477606108
0.3321488310388621,0.3321488310388621
0.38746479792351746,0.38746479792351746
0.4406255972672122,0.4406255972672122
0.4743898887422615,0.4743898887422615
0.4837289480864241,0.4837289480864241
0.4765450562832221,0.4765450562832221
0.4593037159555373,0.4593037159555373
0.42697620284112836,0.42697620284112836
0.36447634415327107,0.36447634415327107
0.27252252907228564,0.27252252907228564
0.16620093038489617,0.16620093038489617
0.07568389366455112,0.07568389366455112
0.009592089075092824,0.009592089075092824
-0.03207448338347871,-0.03207448338347871
-0.07589622338301084,-0.07589622338301084
-0.11971796338254297,-0.11971796338254297
-0.15348225485759232,-0.15348225485759232
-0.1599477574804741,-0.1599477574804741
-0.1520454764969519,-0.1520454764969519
-0.15707420075919332,-0.15707420075919332
-0.17862587616879927,-0.17862587616879927
-0.19012010305392243,-0.19012010305392243
-0.17647070862783867,-0.17647070862783867
-0.1577925899395135,-0.1577925899395135
-0.1606661466607943,-0.1606661466607943
-0.1577925899395135,-0.1577925899395135
-0.06583877485852806,-0.06583877485852806
0.18487904907322136,0.18487904907322136
0.5993896061179761,0.5993896061179761
1.1532676641448494,1.1532676641448494
1.8457948339735208,1.8457948339735208
2.6575746077353455,2.6575746077353455
3.416911971333796,3.416911971333796
3.804123739526383,3.804123739526383
3.566336920840397,3.566336920840397
2.743062920193449,2.743062920193449
1.6525481444673875,1.6525481444673875
0.6726653025106364,0.6726653025106364
0.03545409956661998,0.03545409956661998
-0.23897056731569596,-0.23897056731569596
-0.2820739181349079,-0.2820739181349079
-0.2669877453481837,-0.2669877453481837
-0.2978784801019523,-0.2978784801019523
-0.37546451157653377,-0.37546451157653377
-0.44658504042823344,-0.44658504042823344
-0.4803493319032828,-0.4803493319032828
-0.48537805616552415,-0.48537805616552415
-0.48537805616552415,-0.48537805616552415
-0.48968839124744534,-0.48968839124744534
-0.49687228305064735,-0.49687228305064735
-0.5062113423948099,-0.5062113423948099
-0.5169871800996129,-0.5169871800996129
-0.5263262394437755,-0.5263262394437755
-0.5241710719028149,-0.5241710719028149
-0.5234526827224947,-0.5234526827224947
-0.5335101312469774,-0.5335101312469774
-0.5600905309188249,-0.5600905309188249
-0.5730215361645884,-0.5730215361645884
-0.5629640876401056,-0.5629640876401056
-0.5485963040337016,-0.5485963040337016
-0.5543434174762633,-0.5543434174762633
-0.5780502604268298,-0.5780502604268298
-0.5938548223938742,-0.5938548223938742
-0.5952916007545146,-0.5952916007545146
-0.5945732115741944,-0.5945732115741944
-0.6024754925577166,-0.6024754925577166
-0.6197168328854014,-0.6197168328854014
-0.6419868974753276,-0.6419868974753276
-0.6577914594423719,-0.6577914594423719
-0.6606650161636527,-0.6606650161636527
-0.6513259568194901,-0.6513259568194901
-0.6427052866556477,-0.6427052866556477
-0.6376765623934063,-0.6376765623934063
-0.6283375030492437,-0.6283375030492437
-0.6154064978034801,-0.6154064978034801
-0.6146881086231599,-0.6146881086231599
-0.6283375030492437,-0.6283375030492437
-0.6362397840327659,-0.6362397840327659
-0.6225903896066821,-0.6225903896066821
-0.6053490492789974,-0.6053490492789974
-0.611096162721559,-0.611096162721559
-0.6369581732130861,-0.6369581732130861
-0.6541995135407709,-0.6541995135407709
-0.6427052866556477,-0.6427052866556477
-0.6125329410821994,-0.6125329410821994
-0.5845157630497116,-0.5845157630497116
-0.5615273092794653,-0.5615273092794653
-0.5284814069847361,-0.5284814069847361
-0.47747577518200196,-0.47747577518200196
-0.4214414191170265,-0.4214414191170265
-0.36684384141269133,-0.36684384141269133
-0.30649915026579466,-0.30649915026579466
-0.23034989715185358,-0.23034989715185358
-0.14557997387407012,-0.14557997387407012
-0.06224682895692706,-0.06224682895692706
0.021804705140536205,0.021804705140536205
0.10441946087735907,0.10441946087735907
0.17122965464713757,0.17122965464713757
0.21505139464666972,0.21505139464666972
0.24594212940043828,0.24594212940043828
0.27252252907228564,0.27252252907228564
0.2818615884164482,0.2818615884164482
0.2660570264494038,0.2660570264494038
0.24306857267915746,0.24306857267915746
0.2358846808759555,0.2358846808759555
0.23947662677755646,0.23947662677755646
0.2272640107121131,0.2272640107121131
0.18703421661418196,0.18703421661418196
0.1374653631720882,0.1374653631720882
0.10082751497575808,0.10082751497575808
0.08502295300871371,0.08502295300871371
0.07999422874647232,0.07999422874647232
0.06778161268102893,0.06778161268102893
0.04551154809110276,0.04551154809110276
0.0261150402224574,0.0261150402224574
0.026833429402777595,0.026833429402777595
0.04479315891078257,0.04479315891078257
0.056287385795905746,0.056287385795905746
0.046229937271422966,0.046229937271422966
0.0261150402224574,0.0261150402224574
0.012465645796373619,0.012465645796373619
0.01174725661605342,0.01174725661605342
0.009592089075092824,0.009592089075092824
0.0045633648128514314,0.0045633648128514314
0.0002530297309302387,0.0002530297309302387
0.0067185323538120284,0.0067185323538120284
0.03114376448469879,0.03114376448469879
0.07783906120551172,0.07783906120551172
0.1396205307130488,0.1396205307130488
0.20571233530250713,0.20571233530250713
0.266775415629724,0.266775415629724
0.32137299333405916,0.32137299333405916
0.36878667923519226,0.36878667923519226
0.4054245274315224,0.4054245274315224
0.43128653792304955,0.43128653792304955
0.4557117700539363,0.4557117700539363
0.4901944507093059,0.4901944507093059
0.5318610231678774,0.5318610231678774
0.5656253146429268,0.5656253146429268
0.5792747090690106,0.5792747090690106
0.5684988713642075,0.5684988713642075
0.5397633041513996,0.5397633041513996
0.501688677594429,0.501688677594429
0.45283821333265556,0.45283821333265556
0.37956251693999526,0.37956251693999526
0.2753960857935664,0.2753960857935664
0.1611722061226548,0.1611722061226548
0.08214939628743291,0.08214939628743291
0.04263799136982197,0.04263799136982197
0.022523094320856404,0.022523094320856404
-0.010522807973872743,-0.010522807973872743
-0.03135609420315851,-0.03135609420315851
-0.029200926662197913,-0.029200926662197913
-0.01914347813771513,-0.01914347813771513
-0.03135609420315851,-0.03135609420315851
-0.06009166141596647,-0.06009166141596647
-0.08451689354685323,-0.08451689354685323
-0.09385595289101581,-0.09385595289101581
-0.0931375637106956,-0.0931375637106956
-0.08882722862877442,-0.08882722862877442
-0.1003214555138976,-0.1003214555138976
-0.12618346600542477,-0.12618346600542477
-0.09026400698941482,-0.09026400698941482
0.12453435792632464,0.12453435792632464
0.555567866118444,0.555567866118444
1.1324343779155637,1.1324343779155637
1.784013364465984,1.784013364465984
2.4988105988845817,2.4988105988845817
3.2042687739590168,3.2042687739590168
3.659727514282023,3.659727514282023
3.5857334287090423,3.5857334287090423
2.914039545109657,2.914039545109657
1.8831510713501713,1.8831510713501713
0.873814273000292,0.873814273000292
0.16907448710617698,0.16907448710617698
-0.1671316492836761,-0.1671316492836761
-0.24184412403697675,-0.24184412403697675
-0.21741889190608998,-0.21741889190608998
-0.21741889190608998,-0.21741889190608998
-0.2813555289545877,-0.2813555289545877
-0.36899900895365195,-0.36899900895365195
-0.4128207489531841,-0.4128207489531841
-0.3941426302648589,-0.3941426302648589
-0.36037833878980957,-0.36037833878980957
-0.36253350633077014,-0.36253350633077014
-0.3970161869861397,-0.3970161869861397
-0.42718853255958805,-0.42718853255958805
-0.43796437026439106,-0.43796437026439106
-0.4444298728872728,-0.4444298728872728
-0.4473034296085536,-0.4473034296085536
-0.448740207969194,-0.448740207969194
-0.44299309452663244,-0.44299309452663244
-0.4401195378053516,-0.4401195378053516
-0.4293437001005487,-0.4293437001005487
-0.41569430567446486,-0.41569430567446486
-0.4128207489531841,-0.4128207489531841
-0.4257517541989477,-0.4257517541989477
-0.4408379269856718,-0.4408379269856718
-0.44155631616599206,-0.44155631616599206
-0.43796437026439106,-0.43796437026439106
-0.4473034296085536,-0.4473034296085536
-0.466699937477199,-0.466699937477199
-0.4796309427229626,-0.4796309427229626
-0.4796309427229626,-0.4796309427229626
-0.4710102725591202,-0.4710102725591202
-0.4587976564936768,-0.4587976564936768
-0.4473034296085536,-0.4473034296085536
-0.4437114837069526,-0.4437114837069526
-0.45089537551015463,-0.45089537551015463
-0.4645447699362384,-0.4645447699362384
-0.47747577518200196,-0.47747577518200196
-0.48897000206712515,-0.48897000206712515
-0.4911251696080858,-0.4911251696080858
-0.4753206076410414,-0.4753206076410414
-0.445148262067593,-0.445148262067593
-0.42359658665798705,-0.42359658665798705
-0.4250333650186275,-0.4250333650186275
-0.43437242436279005,-0.43437242436279005
-0.42647014337926786,-0.42647014337926786
-0.3955794086254993,-0.3955794086254993
-0.35822317124884895,-0.35822317124884895
-0.32661404731476024,-0.32661404731476024
-0.30218881518387347,-0.30218881518387347
-0.2756084155120261,-0.2756084155120261
-0.22891311879121318,-0.22891311879121318
-0.15132708731663172,-0.15132708731663172
-0.05147099125212408,-0.05147099125212408
0.04263799136982197,0.04263799136982197
0.11663207694280245,0.11663207694280245
0.17841354645033955,0.17841354645033955
0.24306857267915746,0.24306857267915746
0.3048500421866946,0.3048500421866946
0.3515453389075075,0.3515453389075075
0.37956251693999526,0.37956251693999526
0.39536707890703965,0.39536707890703965
0.4011141923496012,0.4011141923496012
0.39536707890703965,0.39536707890703965
0.38387285202191646,0.38387285202191646
0.36806829005487207,0.36806829005487207
0.3429246687436651,0.3429246687436651
0.3091603772686158,0.3091603772686158
0.277551253334527,0.277551253334527
0.25671796710524125,0.25671796710524125
0.23947662677755646,0.23947662677755646
0.2157697838269899,0.2157697838269899
0.19062616251578296,0.19062616251578296
0.17410321136841836,0.17410321136841836
0.16620093038489617,0.16620093038489617
0.1575802602210538,0.1575802602210538
0.1468044225162508,0.1468044225162508
0.13459180645080743,0.13459180645080743
0.12525274710664483,0.12525274710664483
0.11447690940184185,0.11447690940184185
0.10226429333639847,0.10226429333639847
0.0871781205496743,0.0871781205496743
0.07640228284487131,0.07640228284487131
0.07209194776295012,0.07209194776295012
0.0807126179267925,0.0807126179267925
0.0914884556315955,0.0914884556315955
0.09651717989383689,0.09651717989383689
0.10298268251671867,0.10298268251671867
0.1338734172704872,0.1338734172704872
0.19206294087642334,0.19206294087642334
0.25743635628556144,0.25743635628556144
0.30844198808829554,0.30844198808829554
0.3486717821862267,0.3486717821862267
0.3903383546447982,0.3903383546447982
0.43487848382465055,0.43487848382465055
0.4707979428406605,0.4707979428406605
0.5009702884141088,0.5009702884141088
0.5354529690694784,0.5354529690694784
0.5814298766099711,0.5814298766099711
0.6230964490685427,0.6230964490685427
0.6403377893962274,0.6403377893962274
0.6288435625111043,0.6288435625111043
0.6058551087408579,0.6058551087408579
0.5814298766099711,0.5814298766099711
0.5491023634955622,0.5491023634955622
0.4980967316928281,0.4980967316928281
0.43128653792304955,0.43128653792304955
0.3544188956287883,0.3544188956287883
0.27970642087548764,0.27970642087548764
0.20499394612218694,0.20499394612218694
0.14464925497529021,0.14464925497529021
0.09939073661511769,0.09939073661511769
0.0807126179267925,0.0807126179267925
0.06562644514006834,0.06562644514006834
0.04982188317302396,0.04982188317302396
0.03904604546822098,0.03904604546822098
0.051977050713984556,0.051977050713984556
0.06706322350070873,0.06706322350070873
0.05556899661558555,0.05556899661558555
0.034017321205979584,0.034017321205979584
0.04694832645174316,0.04694832645174316
0.07137355858262992,0.07137355858262992
0.03760926710758058,0.03760926710758058
-0.040695153547321096,-0.040695153547321096
-0.006212472891951551,-0.006212472891951551
0.2832983667770886,0.2832983667770886
0.8091592467714742,0.8091592467714742
1.4449336713548502,1.4449336713548502
2.119501111675517,2.119501111675517
2.829269621831873,2.829269621831873
3.4758198841200523,3.4758198841200523
3.7962214585428606,3.7962214585428606
3.5376013536275894,3.5376013536275894
2.720074466423203,2.720074466423203
1.6661975388934713,1.6661975388934713
0.7502513339852178,0.7502513339852178
0.16045381694233457,0.16045381694233457
-0.1039134014154986,-0.1039134014154986
-0.13480413616926715,-0.13480413616926715
-0.06799394239948865,-0.06799394239948865
-0.059373272235646264,-0.059373272235646264
-0.1671316492836761,-0.1671316492836761
-0.29572331256099166,-0.29572331256099166
-0.32302210141315923,-0.32302210141315923
-0.2598038535449817,-0.2598038535449817
-0.21957405944705058,-0.21957405944705058
-0.2619590210859423,-0.2619590210859423
-0.3388266633802036,-0.3388266633802036
-0.3711541764946125,-0.3711541764946125
-0.343855387642445,-0.343855387642445
-0.29284975583971085,-0.29284975583971085
-0.2741716371513857,-0.2741716371513857
-0.2935681450200311,-0.2935681450200311
-0.3273324364950804,-0.3273324364950804
-0.3309243823966814,-0.3309243823966814
-0.3129646528886764,-0.3129646528886764
-0.30721753944611485,-0.30721753944611485
-0.3381082741998834,-0.3381082741998834
-0.3833667925600559,-0.3833667925600559
-0.3977345761664599,-0.3977345761664599
-0.3675622305930116,-0.3675622305930116
-0.32302210141315923,-0.32302210141315923
-0.30362559354451385,-0.30362559354451385
-0.31799337715091786,-0.31799337715091786
-0.3395450525605238,-0.3395450525605238
-0.33451632829828243,-0.33451632829828243
-0.30362559354451385,-0.30362559354451385
-0.2835106964955483,-0.2835106964955483
-0.30434398272483404,-0.30434398272483404
-0.3445737768227652,-0.3445737768227652
-0.35463122534724795,-0.35463122534724795
-0.32302210141315923,-0.32302210141315923
-0.29500492338067147,-0.29500492338067147
-0.31080948534771585,-0.31080948534771585
-0.3481657227243662,-0.3481657227243662
-0.3596599496094894,-0.3596599496094894
-0.3316427715770016,-0.3316427715770016
-0.29859686928227247,-0.29859686928227247
-0.2863842532168291,-0.2863842532168291
-0.2871026423971493,-0.2871026423971493
-0.2756084155120261,-0.2756084155120261
-0.24687284829921816,-0.24687284829921816
-0.2145453351848092,-0.2145453351848092
-0.18796493551296184,-0.18796493551296184
-0.15491903321823272,-0.15491903321823272
-0.0996030663335774,-0.0996030663335774
-0.01914347813771513,-0.01914347813771513
0.06778161268102893,0.06778161268102893
0.1396205307130488,0.1396205307130488
0.19206294087642334,0.19206294087642334
0.24091340513819687,0.24091340513819687
0.30844198808829554,0.30844198808829554
0.39536707890703965,0.39536707890703965
0.46936116448002013,0.46936116448002013
0.49737834251250784,0.49737834251250784
0.4837289480864241,0.4837289480864241
0.4751082779225817,0.4751082779225817
0.5059990126763503,0.5059990126763503
0.5577230336594046,0.5577230336594046
0.580711487429651,0.580711487429651
0.5519759202168429,0.5519759202168429
0.4988151208731483,0.4988151208731483
0.45714854841457675,0.45714854841457675
0.43272331628369,0.43272331628369
0.4104532516937638,0.4104532516937638
0.38171768448095583,0.38171768448095583
0.36088439825167007,0.36088439825167007
0.3594476198910297,0.3594476198910297
0.3673499008745519,0.3673499008745519
0.36088439825167007,0.36088439825167007
0.33789594448142374,0.33789594448142374
0.31059715562925616,0.31059715562925616
0.28832709103933,0.28832709103933
0.25959152382652206,0.25959152382652206
0.2229536756301919,0.2229536756301919
0.19493649759770415,0.19493649759770415
0.20427555694186672,0.20427555694186672
0.24450535103979787,0.24450535103979787
0.2818615884164482,0.2818615884164482
0.28401675595740883,0.28401675595740883
0.26390185890844325,0.26390185890844325
0.25240763202332006,0.25240763202332006
0.2710857507116452,0.2710857507116452
0.30987876644893597,0.30987876644893597
0.3601660090713499,0.3601660090713499
0.4205107002182466,0.4205107002182466
0.49737834251250784,0.49737834251250784
0.5771195415280499,0.5771195415280499
0.6417745677568678,0.6417745677568678
0.678412415953198,0.678412415953198
0.6985273130021635,0.6985273130021635
0.7215157667724099,0.7215157667724099
0.7552800582474593,0.7552800582474593
0.7811420687389864,0.7811420687389864
0.7854524038209076,0.7854524038209076
0.772521398575144,0.772521398575144
0.7624639500506613,0.7624639500506613
0.7574352257884198,0.7574352257884198
0.7358835503788139,0.7358835503788139
0.6827227510351191,0.6827227510351191
0.6116022221834195,0.6116022221834195
0.548383974315242,0.548383974315242
0.5081541802173108,0.5081541802173108
0.4643324402177787,0.4643324402177787
0.4032693598905618,0.4032693598905618
0.3242465500553399,0.3242465500553399
0.26318346972812307,0.26318346972812307
0.21936172972859092,0.21936172972859092
0.19206294087642334,0.19206294087642334
0.17553998972905877,0.17553998972905877
0.18631582743386177,0.18631582743386177
0.2179249513679505,0.2179249513679505
0.24235018349883727,0.24235018349883727
0.2294191782530737,0.2294191782530737
0.19062616251578296,0.19062616251578296
0.1554250926800932,0.1554250926800932
0.1410573090736892,0.1410573090736892
0.13674697399176802,0.13674697399176802
0.16476415202425576,0.16476415202425576
0.313470712350537,0.313470712350537
0.674820470051597,0.674820470051597
1.2294169172587905,1.2294169172587905
1.8831510713501713,1.8831510713501713
2.579988576260764,2.579988576260764
3.2890386972368004,3.2890386972368004
3.8199283014934275,3.8199283014934275
3.854410982148797,3.854410982148797
3.261739908384633,3.261739908384633
2.2919145149523645,2.2919145149523645
1.3350201267658597,1.3350201267658597
0.6144757789047003,0.6144757789047003
0.17697676808969914,0.17697676808969914
0.0239598726814968,0.0239598726814968
0.07281033694327033,0.07281033694327033
0.12525274710664483,0.12525274710664483
0.040482823828861376,0.040482823828861376
-0.10822373649741979,-0.10822373649741979
-0.17431554108687808,-0.17431554108687808
-0.14845353059535094,-0.14845353059535094
-0.12833863354638536,-0.12833863354638536
-0.15348225485759232,-0.15348225485759232
-0.18796493551296184,-0.18796493551296184
-0.2152637243651294,-0.2152637243651294
-0.24902801584017875,-0.24902801584017875
-0.26842452370882414,-0.26842452370882414
-0.24759123747953835,-0.24759123747953835
-0.18940171387360225,-0.18940171387360225
-0.14557997387407012,-0.14557997387407012
-0.13336735780862674,-0.13336735780862674
-0.14557997387407012,-0.14557997387407012
-0.15060869813631153,-0.15060869813631153
-0.1462983630543903,-0.1462983630543903
-0.14486158469374993,-0.14486158469374993
-0.15491903321823272,-0.15491903321823272
-0.17287876272623767,-0.17287876272623767
-0.19012010305392243,-0.19012010305392243
-0.2080798325619274,-0.2080798325619274
-0.22747634043057277,-0.22747634043057277
-0.24615445911889794,-0.24615445911889794
-0.26483257780722314,-0.26483257780722314
-0.29284975583971085,-0.29284975583971085
-0.32230371223283905,-0.32230371223283905
-0.32302210141315923,-0.32302210141315923
-0.28422908567586846,-0.28422908567586846
-0.23034989715185358,-0.23034989715185358
-0.2008959407587254,-0.2008959407587254
-0.20592466502096682,-0.20592466502096682
-0.23322345387313437,-0.23322345387313437
-0.2677061345285039,-0.2677061345285039
-0.29141297747907047,-0.29141297747907047
-0.2827923073152281,-0.2827923073152281
-0.24830962665985853,-0.24830962665985853
-0.2202924486273708,-0.2202924486273708
-0.22388439452897177,-0.22388439452897177
-0.23825217813537575,-0.23825217813537575
-0.22603956206993236,-0.22603956206993236
-0.17790748698847908,-0.17790748698847908
-0.11756279584158237,-0.11756279584158237
-0.06871233157980886,-0.06871233157980886
-0.0371032076457201,-0.0371032076457201
-0.008367640432912148,-0.008367640432912148
0.03760926710758058,0.03760926710758058
0.11447690940184185,0.11447690940184185
0.21145944874506872,0.21145944874506872
0.29982131792445316,0.29982131792445316
0.3601660090713499,0.3601660090713499
0.3989590248086406,0.3989590248086406
0.43559687300497074,0.43559687300497074
0.4758266671029019,0.4758266671029019
0.5110277369385916,0.5110277369385916
0.5354529690694784,0.5354529690694784
0.5512575310365228,0.5512575310365228
0.5598782012003651,0.5598782012003651
0.5577230336594046,0.5577230336594046
0.5404816933317198,0.5404816933317198
0.5095909585779512,0.5095909585779512
0.4758266671029019,0.4758266671029019
0.44924626743105456,0.44924626743105456
0.43200492710336974,0.43200492710336974
0.4090164733331234,0.4090164733331234
0.37022345759583264,0.37022345759583264
0.32712010677662073,0.32712010677662073
0.30772359890797535,0.30772359890797535
0.31849943661277835,0.31849943661277835
0.33430399857982274,0.33430399857982274
0.3249649392356601,0.3249649392356601
0.2890454802196502,0.2890454802196502
0.23947662677755646,0.23947662677755646
0.19565488677802434,0.19565488677802434
0.16476415202425576,0.16476415202425576
0.1611722061226548,0.1611722061226548
0.18847099497482236,0.18847099497482236
0.2258272323514727,0.2258272323514727
0.23660307005627568,0.23660307005627568
0.21002267038442832,0.21002267038442832
0.17266643300777795,0.17266643300777795
0.17625837890937895,0.17625837890937895
0.24091340513819687,0.24091340513819687
0.3364591661207833,0.3364591661207833
0.4047061382512022,0.4047061382512022
0.4298497595624092,0.4298497595624092
0.4485278782507343,0.4485278782507343
0.5095909585779512,0.5095909585779512
0.6036999411998973,0.6036999411998973
0.6741020808712768,0.6741020808712768
0.6776940267728778,0.6776940267728778
0.6446481244781487,0.6446481244781487
0.6417745677568678,0.6417745677568678
0.6870330861170404,0.6870330861170404
0.7222341559527301,0.7222341559527301
0.6913434211989615,0.6913434211989615
0.631717119232385,0.631717119232385
0.6324355084127052,0.6324355084127052
0.6999640913628039,0.6999640913628039
0.7351651611984937,0.7351651611984937
0.6554239621829516,0.6554239621829516
0.5059990126763503,0.5059990126763503
