ECG,PPG
-0.04987442004699061,-0.04987442004699061
-0.05453232969419703,-0.05453232969419703
-0.06210143287090746,-0.06210143287090746
-0.06326591028270907,-0.06326591028270907
-0.05453232969419703,-0.05453232969419703
-0.044052032987982576,-0.044052032987982576
-0.044052032987982576,-0.044052032987982576
-0.056279045811899436,-0.056279045811899436
-0.0673415812240147,-0.0673415812240147
-0.06792381992991549,-0.06792381992991549
-0.06384814898860987,-0.06384814898860987
-0.06443038769451068,-0.06443038769451068
-0.06792381992991549,-0.06792381992991549
-0.06617710381221309,-0.06617710381221309
-0.05511456840009783,-0.05511456840009783
-0.03881188463487535,-0.03881188463487535
-0.025420394399156887,-0.025420394399156887
-0.014940097692942437,-0.014940097692942437
-0.006788755810331198,-0.006788755810331198
-0.002130846163124775,-0.002130846163124775
-0.002130846163124775,-0.002130846163124775
-0.0038775622808271833,-0.0038775622808271833
-0.0038775622808271833,-0.0038775622808271833
-0.0003841300454223664,-0.0003841300454223664
0.006602734425387268,0.006602734425387268
0.018829747249304127,0.018829747249304127
0.03629690842632821,0.03629690842632821
0.053181830897451494,0.053181830897451494
0.05900421795645952,0.05900421795645952
0.049106159956145874,0.049106159956145874
0.03571466972042741,0.03571466972042741
0.03163899877912179,0.03163899877912179
0.041537056779435436,0.041537056779435436
0.0543463083092531,0.0543463083092531
0.061333172780062735,0.061333172780062735
0.060168695368261124,0.060168695368261124
0.05783974054465792,0.05783974054465792
0.05842197925055872,0.05842197925055872
0.06191541148596354,0.06191541148596354
0.06424436630956674,0.06424436630956674
0.06366212760366595,0.06366212760366595
0.06249765019186434,0.06249765019186434
0.06599108242726916,0.06599108242726916
0.0741424243098804,0.0741424243098804
0.08112928878069003,0.08112928878069003
0.07996481136888843,0.07996481136888843
0.07647137913348362,0.07647137913348362
0.0741424243098804,0.0741424243098804
0.08345824360429324,0.08345824360429324
0.09626749513411091,0.09626749513411091
0.113734656311135,0.113734656311135
0.12596166913505186,0.12596166913505186
0.14109987548847272,0.14109987548847272
0.14866897866518317,0.14866897866518317
0.155073604430092,0.155073604430092
0.16322494631270323,0.16322494631270323
0.1783631526661241,0.1783631526661241
0.20281717831395782,0.20281717831395782
0.2191198620791803,0.2191198620791803
0.22203105560868433,0.22203105560868433
0.2214488169027835,0.2214488169027835
0.24881403608012126,0.24881403608012126
0.3215938743177216,0.3215938743177216
0.4543442992631046,0.4543442992631046
0.6831641106821201,0.6831641106821201
1.0720995662238564,1.0720995662238564
1.65492051083056,1.65492051083056
2.358847106264631,2.358847106264631
3.0092077407558278,3.0092077407558278
3.4330775186516123,3.4330775186516123
3.578054956420912,3.578054956420912
3.5023639246538076,3.5023639246538076
3.2170669587624143,3.2170669587624143
2.5876669176836464,2.5876669176836464
1.4872357635311289,1.4872357635311289
0.07006675336857478,0.07006675336857478
-1.2056182512600842,-1.2056182512600842
-1.914784995047262,-1.914784995047262
-1.997462891285176,-1.997462891285176
-1.7366199510416165,-1.7366199510416165
-1.4303623917377941,-1.4303623917377941
-1.170683928906036,-1.170683928906036
-0.8987784532503611,-0.8987784532503611
-0.5901919391229357,-0.5901919391229357
-0.31828646346726075,-0.31828646346726075
-0.17272678699205998,-0.17272678699205998
-0.15467738710913512,-0.15467738710913512
-0.18670051593367926,-0.18670051593367926
-0.1919406642867865,-0.1919406642867865
-0.16748663863895277,-0.16748663863895277
-0.14012141946161502,-0.14012141946161502
-0.1331345549908054,-0.1331345549908054
-0.12381873569639255,-0.12381873569639255
-0.10635157451936847,-0.10635157451936847
-0.08247978757743556,-0.08247978757743556
-0.07199949087122111,-0.07199949087122111
-0.0708350134594195,-0.0708350134594195
-0.06792381992991549,-0.06792381992991549
-0.059772478047304255,-0.059772478047304255
-0.045216510399784186,-0.045216510399784186
-0.036482929811272144,-0.036482929811272144
-0.032407258869966524,-0.032407258869966524
-0.03881188463487535,-0.03881188463487535
-0.05336785228239542,-0.05336785228239542
-0.07258172957712192,-0.07258172957712192
-0.09354232298955081,-0.09354232298955081
-0.12090754216688854,-0.12090754216688854
-0.1552596258150359,-0.1552596258150359
-0.19019394816908408,-0.19019394816908408
-0.2158124512287194,-0.2158124512287194
-0.2356085672293467,-0.2356085672293467
-0.2565691606417756,-0.2565691606417756
-0.28335214111321255,-0.28335214111321255
-0.30897064417284786,-0.30897064417284786
-0.3270200440557728,-0.3270200440557728
-0.33226019240888,-0.33226019240888
-0.3281845214675744,-0.3281845214675744
-0.32236213440856637,-0.32236213440856637
-0.32294437311446716,-0.32294437311446716
-0.326437805349872,-0.326437805349872
-0.32585556664397114,-0.32585556664397114
-0.3270200440557728,-0.3270200440557728
-0.34448720523279686,-0.34448720523279686
-0.37592809535144023,-0.37592809535144023
-0.40038212099927395,-0.40038212099927395
-0.40795122417598434,-0.40795122417598434
-0.41668480476449643,-0.41668480476449643
-0.4411388304123301,-0.4411388304123301
-0.4702507657073703,-0.4702507657073703
-0.4859712107666919,-0.4859712107666919
-0.4958692687670056,-0.4958692687670056
-0.5191588170030377,-0.5191588170030377
-0.5610800038278955,-0.5610800038278955
-0.6006722358291501,-0.6006722358291501
-0.621632829241579,-0.621632829241579
-0.6297841711241903,-0.6297841711241903
-0.6402644678304047,-0.6402644678304047
-0.6577316290074288,-0.6577316290074288
-0.6717053579490481,-0.6717053579490481
-0.6769455063021552,-0.6769455063021552
-0.6763632675962544,-0.6763632675962544
-0.6734520740667505,-0.6734520740667505
-0.6583138677133296,-0.6583138677133296
-0.6268729775946862,-0.6268729775946862
-0.5907741778288365,-0.5907741778288365
-0.5634089586514988,-0.5634089586514988
-0.5383726942977642,-0.5383726942977642
-0.5011094171201128,-0.5011094171201128
-0.4440500239418341,-0.4440500239418341
-0.3788392888809442,-0.3788392888809442
-0.3153752699377567,-0.3153752699377567
-0.25424020581817236,-0.25424020581817236
-0.18844723205138167,-0.18844723205138167
-0.1121739615783765,-0.1121739615783765
-0.024255916987355283,-0.024255916987355283
0.07123123078037638,0.07123123078037638
0.17195852690121527,0.17195852690121527
0.2738503004338558,0.2738503004338558
0.3710841643192898,0.3710841643192898
0.45667325408670784,0.45667325408670784
0.5253774213830026,0.5253774213830026
0.5783611436199756,0.5783611436199756
0.6197000917389326,0.6197000917389326
0.6534699366811791,0.6534699366811791
0.6790884397408145,0.6790884397408145
0.6942266460942353,0.6942266460942353
0.6994667944473426,0.6994667944473426
0.7006312718591442,0.7006312718591442
0.7052891815063507,0.7052891815063507
0.7116938072712594,0.7116938072712594
0.7192629104479699,0.7192629104479699
0.7192629104479699,0.7192629104479699
0.7175161943302675,0.7175161943302675
0.7140227620948627,0.7140227620948627
0.7227563426833747,0.7227563426833747
0.7285787297423827,0.7285787297423827
0.7268320136246803,0.7268320136246803
0.7029602266827474,0.7029602266827474
0.6738482913877073,0.6738482913877073
0.6517232205634768,0.6517232205634768
0.6476475496221712,0.6476475496221712
0.6540521753870799,0.6540521753870799
0.6523054592693776,0.6523054592693776
0.6435718786808655,0.6435718786808655
0.6523054592693776,0.6523054592693776
0.7029602266827474,0.7029602266827474
0.8077631937448919,0.8077631937448919
0.9748657023384223,0.9748657023384223
1.224063868463966,1.224063868463966
1.5710781371808444,1.5710781371808444
2.0543362630785107,2.0543362630785107
2.730315400629343,2.730315400629343
3.5675746597146976,3.5675746597146976
4.31633363550313,4.31633363550313
4.644134026925282,4.644134026925282
4.435110331506894,4.435110331506894
3.8668453545477104,3.8668453545477104
3.1180863787592776,3.1180863787592776
2.1527346043757465,2.1527346043757465
0.9061615350421276,0.9061615350421276
-0.3893195855871587,-0.3893195855871587
-1.268500031497371,-1.268500031497371
-1.445500598091215,-1.445500598091215
-1.0839303617268163,-1.0839303617268163
-0.6053301454763566,-0.6053301454763566
-0.3078061667610463,-0.3078061667610463
-0.18728275463958005,-0.18728275463958005
-0.10576933581346767,-0.10576933581346767
0.0025270634840816476,0.0025270634840816476
0.0945207790164085,0.0945207790164085
0.13818868195896872,0.13818868195896872
0.14575778513567914,0.14575778513567914
0.14168211419437352,0.14168211419437352
0.12246823689964703,0.12246823689964703
0.10267212089901974,0.10267212089901974
0.08578719842789646,0.08578719842789646
0.07763585654528522,0.07763585654528522
0.0549285470151539,0.0549285470151539
0.033967953602725,0.033967953602725
0.02406989560241135,0.02406989560241135
0.031056760073220984,0.031056760073220984
0.03804362454403062,0.03804362454403062
0.04386601160303865,0.04386601160303865
0.0555107857210547,0.0555107857210547
0.07181346948627718,0.07181346948627718
0.09102734678100369,0.09102734678100369
0.10733003054622617,0.10733003054622617
0.11897480466424222,0.11897480466424222
0.12770838525275427,0.12770838525275427
0.1358597271353655,0.1358597271353655
0.14575778513567914,0.14575778513567914
0.1568203205477944,0.1568203205477944
0.16555390113630644,0.16555390113630644
0.16730061725400885,0.16730061725400885
0.16264270760680244,0.16264270760680244
0.1574025592536952,0.1574025592536952
0.16031375278319923,0.16031375278319923
0.16962957207761206,0.16962957207761206
0.1801098687838265,0.1801098687838265
0.19059016549004096,0.19059016549004096
0.20747508796116423,0.20747508796116423
0.23309359102079957,0.23309359102079957
0.2581298553745341,0.2581298553745341
0.26919239078664936,0.26919239078664936
0.2674456746689469,0.2674456746689469
0.2633700037276413,0.2633700037276413
0.26861015208074857,0.26861015208074857
0.2808371649046654,0.2808371649046654
0.28957074549317746,0.28957074549317746
0.28549507455187184,0.28549507455187184
0.27210358431615334,0.27210358431615334
0.2534719457273277,0.2534719457273277
0.237751500668006,0.237751500668006
0.22843568137359316,0.22843568137359316
0.22727120396179154,0.22727120396179154
0.22668896525589075,0.22668896525589075
0.2208665781968827,0.2208665781968827
0.21038628149066826,0.21038628149066826
0.21038628149066826,0.21038628149066826
0.22261329431458513,0.22261329431458513
0.2400804554916092,0.2400804554916092
0.25172522960962523,0.25172522960962523
0.26628119725714533,0.26628119725714533
0.29481089384628467,0.29481089384628467
0.33964327420064644,0.33964327420064644
0.3885513254963139,0.3885513254963139
0.43629489938017973,0.43629489938017973
0.48170951844044235,0.48170951844044235
0.530035331030209,0.530035331030209
0.5766144275022732,0.5766144275022732
0.6202823304448334,0.6202823304448334
0.6581278463283856,0.6581278463283856
0.6918976912706322,0.6918976912706322
0.7169339556243667,0.7169339556243667
0.7320721619777876,0.7320721619777876
0.7355655942131923,0.7355655942131923
0.730907684565986,0.730907684565986
0.7175161943302675,0.7175161943302675
0.6936444073883345,0.6936444073883345
0.6639502333873937,0.6639502333873937
0.6400784464454607,0.6400784464454607
0.6237757626802383,0.6237757626802383
0.6045618853855117,0.6045618853855117
0.5725387565609675,0.5725387565609675
0.5335287632656138,0.5335287632656138
0.4991766796174664,0.4991766796174664
0.4706469830283271,0.4706469830283271
0.4392060929096837,0.4392060929096837
0.4036895318497348,0.4036895318497348
0.3722486417310914,0.3722486417310914
0.3559459579658689,0.3559459579658689
0.3507058096127617,0.3507058096127617
0.3472123773773569,0.3472123773773569
0.3361498419652416,0.3361498419652416
0.32042939690592,0.32042939690592
0.3082023840820031,0.3082023840820031
0.3047089518465983,0.3047089518465983
0.3000510421993919,0.3000510421993919
0.28491283584597105,0.28491283584597105
0.2587120940804349,0.2587120940804349
0.237751500668006,0.237751500668006
0.23018239749129557,0.23018239749129557
0.22901792007949395,0.22901792007949395
0.21504419113787468,0.21504419113787468
0.18360330101923134,0.18360330101923134
0.14692226254748075,0.14692226254748075
0.12246823689964703,0.12246823689964703
0.11024122407573017,0.11024122407573017
0.09976092736951572,0.09976092736951572
0.07996481136888843,0.07996481136888843
0.060750934074161926,0.060750934074161926
0.04270153419123704,0.04270153419123704
0.028727805249617773,0.028727805249617773
0.008349450543089675,0.008349450543089675
-0.0044598009867279865,-0.0044598009867279865
-0.012028904163438423,-0.012028904163438423
-0.007953233222132802,-0.007953233222132802
0.0007803473663792393,0.0007803473663792393
0.01999422466110573,0.01999422466110573
0.04328377289713784,0.04328377289713784
0.05259959219155069,0.05259959219155069
0.056093024426955504,0.056093024426955504
0.07880033395708683,0.07880033395708683
0.1346952497235639,0.1346952497235639
0.2004882234903546,0.2004882234903546
0.27210358431615334,0.27210358431615334
0.39844938349662756,0.39844938349662756
0.6575456076224848,0.6575456076224848
1.0936423983421861,1.0936423983421861
1.6980061750672195,1.6980061750672195
2.3931991899127785,2.3931991899127785
3.0354084825213636,3.0354084825213636
3.4691763184174618,3.4691763184174618
3.6141537561867616,3.6141537561867616
3.476745421594172,3.476745421594172
3.057533553345594,3.057533553345594
2.2860672680270304,2.2860672680270304
1.1268300045785318,1.1268300045785318
-0.24725334134736277,-0.24725334134736277
-1.4390959723263061,-1.4390959723263061
-2.084216458464396,-2.084216458464396
-2.132542271054162,-2.132542271054162
-1.8472453051627689,-1.8472453051627689
-1.519444913740617,-1.519444913740617
-1.2399703349082316,-1.2399703349082316
-0.9622424721935486,-0.9622424721935486
-0.6839323707729649,-0.6839323707729649
-0.47840210758998153,-0.47840210758998153
-0.3893195855871587,-0.3893195855871587
-0.38524391464585306,-0.38524391464585306
-0.41202689511728996,-0.41202689511728996
-0.4405565917064293,-0.4405565917064293
-0.450454649706743,-0.450454649706743
-0.4452145013536357,-0.4452145013536357
-0.43124077241201647,-0.43124077241201647
-0.42832957888251244,-0.42832957888251244
-0.42774734017661165,-0.42774734017661165
-0.42774734017661165,-0.42774734017661165
-0.4242539079412068,-0.4242539079412068
-0.423671669235306,-0.423671669235306
-0.42192495311760364,-0.42192495311760364
-0.4143558499408932,-0.4143558499408932
-0.4143558499408932,-0.4143558499408932
-0.4143558499408932,-0.4143558499408932
-0.40504003064648036,-0.40504003064648036
-0.3776748114691426,-0.3776748114691426
-0.3538030245272097,-0.3538030245272097
-0.3485628761741025,-0.3485628761741025
-0.36078988899801934,-0.36078988899801934
-0.3753458566455394,-0.3753458566455394
-0.3922307791166627,-0.3922307791166627
-0.4131913725290916,-0.4131913725290916
-0.4370631594710245,-0.4370631594710245
-0.4539480819421478,-0.4539480819421478
-0.465010617354263,-0.465010617354263
-0.4772376301781799,-0.4772376301781799
-0.4970337461788072,-0.4970337461788072
-0.5191588170030377,-0.5191588170030377
-0.5436128426508714,-0.5436128426508714
-0.5680668682987051,-0.5680668682987051
-0.5960143261819437,-0.5960143261819437
-0.621632829241579,-0.621632829241579
-0.645504616183512,-0.645504616183512
-0.6682119257136432,-0.6682119257136432
-0.6967416223027826,-0.6967416223027826
-0.7241068414801203,-0.7241068414801203
-0.7439029574807476,-0.7439029574807476
-0.7567122090105652,-0.7567122090105652
-0.7800017572465974,-0.7800017572465974
-0.8254163763068599,-0.8254163763068599
-0.8836402468969403,-0.8836402468969403
-0.9290548659572029,-0.9290548659572029
-0.952344414193235,-0.952344414193235
-0.963989188311251,-0.963989188311251
-0.9837853043118784,-0.9837853043118784
-1.0128972396069185,-1.0128972396069185
-1.037933503960653,-1.037933503960653
-1.0455026071373634,-1.0455026071373634
-1.035022310431149,-1.035022310431149
-1.0134794783128194,-1.0134794783128194
-0.9843675430177792,-0.9843675430177792
-0.9447753110165246,-0.9447753110165246
-0.8929560661913531,-0.8929560661913531
-0.8347321956012729,-0.8347321956012729
-0.7788372798347958,-0.7788372798347958
-0.7310937059509299,-0.7310937059509299
-0.686843564302469,-0.686843564302469
-0.6286196937123887,-0.6286196937123887
-0.5395371717095658,-0.5395371717095658
-0.42134271441170285,-0.42134271441170285
-0.30198377970203827,-0.30198377970203827
-0.20125648358119932,-0.20125648358119932
-0.11683187122558292,-0.11683187122558292
-0.029496065340462507,-0.029496065340462507
0.06715555983907076,0.06715555983907076
0.16497166243040565,0.16497166243040565
0.25172522960962523,0.25172522960962523
0.32042939690592,0.32042939690592
0.367590732083885,0.367590732083885
0.39553818996712353,0.39553818996712353
0.4077652027910404,0.4077652027910404
0.417663260791354,0.417663260791354
0.42697908008576685,0.42697908008576685
0.4333837058506757,0.4333837058506757
0.42639684137986605,0.42639684137986605
0.40543624796743716,0.40543624796743716
0.3757420739664962,0.3757420739664962
0.3466301386714561,0.3466301386714561
0.3157714872587135,0.3157714872587135
0.282001642316467,0.282001642316467
0.24648508125651802,0.24648508125651802
0.2191198620791803,0.2191198620791803
0.1981592686667514,0.1981592686667514
0.17370524301891768,0.17370524301891768
0.1358597271353655,0.1358597271353655
0.08986286936920208,0.08986286936920208
0.053181830897451494,0.053181830897451494
0.03513243101452661,0.03513243101452661
0.02756332783781617,0.02756332783781617
0.014754076307998507,0.014754076307998507
-0.0027130848690255778,-0.0027130848690255778
-0.010864426751636817,-0.010864426751636817
0.001362586072280042,0.001362586072280042
0.02348765689651055,0.02348765689651055
0.03629690842632821,0.03629690842632821
0.030474521367320182,0.030474521367320182
0.01533631501389931,0.01533631501389931
0.0007803473663792393,0.0007803473663792393
-0.012028904163438423,-0.012028904163438423
-0.029496065340462507,-0.029496065340462507
-0.05278561357649462,-0.05278561357649462
-0.08073307145973314,-0.08073307145973314
-0.11508515510788052,-0.11508515510788052
-0.15467738710913512,-0.15467738710913512
-0.19077618687498488,-0.19077618687498488
-0.2123190189933146,-0.2123190189933146
-0.2181414060523226,-0.2181414060523226
-0.219888122170025,-0.219888122170025
-0.22803946405263625,-0.22803946405263625
-0.23910199946475152,-0.23910199946475152
-0.24375990911195794,-0.24375990911195794
-0.2385197607588507,-0.2385197607588507
-0.2332796124057435,-0.2332796124057435
-0.2385197607588507,-0.2385197607588507
-0.2519112509945692,-0.2519112509945692
-0.26355602511258525,-0.26355602511258525
-0.26879617346569246,-0.26879617346569246
-0.26879617346569246,-0.26879617346569246
-0.26763169605389087,-0.26763169605389087
-0.2664672186420892,-0.2664672186420892
-0.26413826381848604,-0.26413826381848604
-0.26297378640668445,-0.26297378640668445
-0.26472050252438684,-0.26472050252438684
-0.2711251282892957,-0.2711251282892957
-0.28393437981911335,-0.28393437981911335
-0.30023706358433583,-0.30023706358433583
-0.3153752699377567,-0.3153752699377567
-0.32061541829086393,-0.32061541829086393
-0.3130463151141535,-0.3130463151141535
-0.2955791539371294,-0.2955791539371294
-0.2757830379365021,-0.2757830379365021
-0.26297378640668445,-0.26297378640668445
-0.2565691606417756,-0.2565691606417756
-0.2559869219358748,-0.2559869219358748
-0.2507467735827676,-0.2507467735827676
-0.24608886393556115,-0.24608886393556115
-0.2373552833470491,-0.2373552833470491
-0.22454603181723143,-0.22454603181723143
-0.1965985739339929,-0.1965985739339929
-0.16282872899174633,-0.16282872899174633
-0.13429903240260702,-0.13429903240260702
-0.1139206776960789,-0.1139206776960789
-0.09936471004855883,-0.09936471004855883
-0.08015083275383235,-0.08015083275383235
-0.06792381992991549,-0.06792381992991549
-0.06268367157680826,-0.06268367157680826
-0.056279045811899436,-0.056279045811899436
-0.016686813810644845,-0.016686813810644845
0.08345824360429324,0.08345824360429324
0.27617925525745896,0.27617925525745896
0.6063086015032142,0.6063086015032142
1.123918811049028,1.123918811049028
1.7946578002467526,1.7946578002467526
2.446765150855652,2.446765150855652
2.8677237352219325,2.8677237352219325
2.9987274440496132,2.9987274440496132
2.9381746186359297,2.9381746186359297
2.7320621167470454,2.7320621167470454
2.2342480232018587,2.2342480232018587
1.2811232616422445,1.2811232616422445
-0.026584871810958494,-0.026584871810958494
-1.2941185345570063,-1.2941185345570063
-2.118568542112543,-2.118568542112543
-2.360779843767277,-2.360779843767277
-2.183197038467532,-2.183197038467532
-1.8542321696335786,-1.8542321696335786
-1.5450634168002522,-1.5450634168002522
-1.2638421218501645,-1.2638421218501645
-0.9651536657230526,-0.9651536657230526
-0.6705408805372465,-0.6705408805372465
-0.4708330044132711,-0.4708330044132711
-0.41668480476449643,-0.41668480476449643
-0.456277036765751,-0.456277036765751
-0.4970337461788072,-0.4970337461788072
-0.4952870300611048,-0.4952870300611048
-0.4778198688840807,-0.4778198688840807
-0.47316195923687426,-0.47316195923687426
-0.4906291204138984,-0.4906291204138984
-0.5104252364145256,-0.5104252364145256
-0.5232344879443434,-0.5232344879443434
-0.5238167266502441,-0.5238167266502441
-0.5214877718266409,-0.5214877718266409
-0.5238167266502441,-0.5238167266502441
-0.5273101588856489,-0.5273101588856489
-0.5290568750033513,-0.5290568750033513
-0.5197410557089385,-0.5197410557089385
-0.5133364299440297,-0.5133364299440297
-0.5115897138263272,-0.5115897138263272
-0.5127541912381288,-0.5127541912381288
-0.503438371943716,-0.503438371943716
-0.48888240429619595,-0.48888240429619595
-0.4795665850017831,-0.4795665850017831
-0.4917935978257,-0.4917935978257
-0.5174121008853353,-0.5174121008853353
-0.5424483652390698,-0.5424483652390698
-0.5546753780629867,-0.5546753780629867
-0.5657379134751019,-0.5657379134751019
-0.5791294037108204,-0.5791294037108204
-0.5925208939465388,-0.5925208939465388
-0.5971788035937453,-0.5971788035937453
-0.6000899971232493,-0.6000899971232493
-0.6094058164176621,-0.6094058164176621
-0.6303664098300911,-0.6303664098300911
-0.6548204354779248,-0.6548204354779248
-0.6816034159493617,-0.6816034159493617
-0.710133112538501,-0.710133112538501
-0.7427384800689459,-0.7427384800689459
-0.7654457895990773,-0.7654457895990773
-0.7753438475993909,-0.7753438475993909
-0.7788372798347958,-0.7788372798347958
-0.7951399636000183,-0.7951399636000183
-0.8236696601891575,-0.8236696601891575
-0.852199356778297,-0.852199356778297
-0.8679198018376186,-0.8679198018376186
-0.881311292073337,-0.881311292073337
-0.9040186016034684,-0.9040186016034684
-0.9342950143103101,-0.9342950143103101
-0.9581668012522431,-0.9581668012522431
-0.9750517237233663,-0.9750517237233663
-0.9890254526649855,-0.9890254526649855
-1.002416942900704,-1.002416942900704
-1.0094038073715137,-1.0094038073715137
-1.0088215686656128,-1.0088215686656128
-1.0018347041948032,-1.0018347041948032
-0.9901899300767871,-0.9901899300767871
-0.9715582914879615,-0.9715582914879615
-0.9447753110165246,-0.9447753110165246
-0.9133344208978812,-0.9133344208978812
-0.8801468146615354,-0.8801468146615354
-0.8446302536015865,-0.8446302536015865
-0.8032913054826295,-0.8032913054826295
-0.7503075832456564,-0.7503075832456564
-0.6839323707729649,-0.6839323707729649
-0.6012544745350509,-0.6012544745350509
-0.5046028493555176,-0.5046028493555176
-0.40038212099927395,-0.40038212099927395
-0.30198377970203827,-0.30198377970203827
-0.21173678028741377,-0.21173678028741377
-0.12672992922589657,-0.12672992922589657
-0.03822964592897455,-0.03822964592897455
0.049106159956145874,0.049106159956145874
0.12654390784095265,0.12654390784095265
0.18302106231333054,0.18302106231333054
0.2197021007850811,0.2197021007850811
0.2371692619621052,0.2371692619621052
0.2400804554916092,0.2400804554916092
0.23192911360899796,0.23192911360899796
0.22960015878539475,0.22960015878539475
0.24066269419751002,0.24066269419751002
0.2587120940804349,0.2587120940804349
0.2587120940804349,0.2587120940804349
0.22960015878539475,0.22960015878539475
0.18535001713693375,0.18535001713693375
0.15390912701829038,0.15390912701829038
0.14517554642977834,0.14517554642977834
0.14459330772387755,0.14459330772387755
0.1317840561940599,0.1317840561940599
0.10383659831082134,0.10383659831082134
0.0747246630157812,0.0747246630157812
0.05958645666236032,0.05958645666236032
0.06249765019186434,0.06249765019186434
0.07123123078037638,0.07123123078037638
0.07181346948627718,0.07181346948627718
0.06191541148596354,0.06191541148596354
0.05027063736794748,0.05027063736794748
0.04735944383844346,0.04735944383844346
0.053181830897451494,0.053181830897451494
0.05900421795645952,0.05900421795645952
0.056093024426955504,0.056093024426955504
0.04677720513254266,0.04677720513254266
0.03629690842632821,0.03629690842632821
0.026981089131915367,0.026981089131915367
0.016500792425700916,0.016500792425700916
0.0019448247781808448,0.0019448247781808448
-0.009699949339835211,-0.009699949339835211
-0.016104575104744043,-0.016104575104744043
-0.018433529928347254,-0.018433529928347254
-0.020762484751950465,-0.020762484751950465
-0.020180246046049663,-0.020180246046049663
-0.016686813810644845,-0.016686813810644845
-0.015522336398843239,-0.015522336398843239
-0.024255916987355283,-0.024255916987355283
-0.04172307816437937,-0.04172307816437937
-0.06035471675320506,-0.06035471675320506
-0.07374620698892352,-0.07374620698892352
-0.08247978757743556,-0.08247978757743556
-0.08830217463644359,-0.08830217463644359
-0.09237784557774921,-0.09237784557774921
-0.09296008428365,-0.09296008428365
-0.08655545851874118,-0.08655545851874118
-0.07199949087122111,-0.07199949087122111
-0.05453232969419703,-0.05453232969419703
-0.04288755557618097,-0.04288755557618097
-0.04172307816437937,-0.04172307816437937
-0.044052032987982576,-0.044052032987982576
-0.039976362046676955,-0.039976362046676955
-0.025420394399156887,-0.025420394399156887
-0.007953233222132802,-0.007953233222132802
0.004273779601784056,0.004273779601784056
0.00951392795489128,0.00951392795489128
0.014171837602097705,0.014171837602097705
0.02348765689651055,0.02348765689651055
0.03513243101452661,0.03513243101452661
0.04444825030893945,0.04444825030893945
0.05143511477974908,0.05143511477974908
0.0543463083092531,0.0543463083092531
0.05259959219155069,0.05259959219155069
0.04735944383844346,0.04735944383844346
0.045612727720741056,0.045612727720741056
0.04619496642664186,0.04619496642664186
0.045612727720741056,0.045612727720741056
0.036879147132229013,0.036879147132229013
0.02931004395551858,0.02931004395551858
0.01941198595520493,0.01941198595520493
0.010096166660792084,0.010096166660792084
-0.0038775622808271833,-0.0038775622808271833
-0.006788755810331198,-0.006788755810331198
-0.001548607457223972,-0.001548607457223972
0.007767211837188873,0.007767211837188873
0.012425121484395295,0.012425121484395295
0.01999422466110573,0.01999422466110573
0.04037257936763383,0.04037257936763383
0.06366212760366595,0.06366212760366595
0.08578719842789646,0.08578719842789646
0.1148991337229366,0.1148991337229366
0.17254076560711606,0.17254076560711606
0.2598765714922365,0.2598765714922365
0.38039998361370264,0.38039998361370264
0.5795256210317772,0.5795256210317772
0.9440070509256798,0.9440070509256798
1.521587847179276,1.521587847179276
2.2313368296723546,2.2313368296723546
2.875875077104544,2.875875077104544
3.273544113234792,3.273544113234792
3.3876628995913496,3.3876628995913496
3.2991626162944274,3.2991626162944274
3.0307505728741573,3.0307505728741573
2.4490941056792552,2.4490941056792552
1.412709209175826,1.412709209175826
0.03979034066173303,0.03979034066173303
-1.2440460058495373,-1.2440460058495373
-2.0027030396382832,-2.0027030396382832
-2.1226442130538485,-2.1226442130538485
-1.8454985890450666,-1.8454985890450666
-1.4903329784455768,-1.4903329784455768
-1.1992136254951753,-1.1992136254951753
-0.9290548659572029,-0.9290548659572029
-0.6280374550064878,-0.6280374550064878
-0.3415760117032928,-0.3415760117032928
-0.16515768381534957,-0.16515768381534957
-0.12731216793179737,-0.12731216793179737
-0.16399320640354795,-0.16399320640354795
-0.18902947075728246,-0.18902947075728246
-0.18437156111007605,-0.18437156111007605
-0.17971365146286963,-0.17971365146286963
-0.20009200616939773,-0.20009200616939773
-0.216976928640521,-0.216976928640521
-0.20707887064020736,-0.20707887064020736
-0.16806887734485357,-0.16806887734485357
-0.1302233614613014,-0.1302233614613014
-0.10518709710756687,-0.10518709710756687
-0.09004889075414599,-0.09004889075414599
-0.07723963922432833,-0.07723963922432833
-0.06501262640041149,-0.06501262640041149
-0.06384814898860987,-0.06384814898860987
-0.06792381992991549,-0.06792381992991549
-0.07432844569482433,-0.07432844569482433
-0.07491068440072512,-0.07491068440072512
-0.07723963922432833,-0.07723963922432833
-0.0894666520482452,-0.0894666520482452
-0.11857858734328533,-0.11857858734328533
-0.1558418645209367,-0.1558418645209367
-0.18495379981597684,-0.18495379981597684
-0.1925229029926873,-0.1925229029926873
-0.18553603852187767,-0.18553603852187767
-0.17738469663926643,-0.17738469663926643
-0.17738469663926643,-0.17738469663926643
-0.17796693534516722,-0.17796693534516722
-0.1721445482861592,-0.1721445482861592
-0.15467738710913512,-0.15467738710913512
-0.13662798722621022,-0.13662798722621022
-0.1308056001672022,-0.1308056001672022
-0.14419709040292064,-0.14419709040292064
-0.16690439993305195,-0.16690439993305195
-0.18378932240417525,-0.18378932240417525
-0.19368738040448888,-0.19368738040448888
-0.20824334805200898,-0.20824334805200898
-0.2350263285234459,-0.2350263285234459
-0.26530274123028763,-0.26530274123028763
-0.28451661852501414,-0.28451661852501414
-0.2926679604076254,-0.2926679604076254
-0.30198377970203827,-0.30198377970203827
-0.326437805349872,-0.326437805349872
-0.3689412308806306,-0.3689412308806306
-0.42134271441170285,-0.42134271441170285
-0.47257972053097347,-0.47257972053097347
-0.512171952532228,-0.512171952532228
-0.538954933003665,-0.538954933003665
-0.5552576167688875,-0.5552576167688875
-0.5593332877101931,-0.5593332877101931
-0.541866126533169,-0.541866126533169
-0.5057673267673193,-0.5057673267673193
-0.4655928560601638,-0.4655928560601638
-0.4347342046474213,-0.4347342046474213
-0.4096979402936868,-0.4096979402936868
-0.38640839205765465,-0.38640839205765465
-0.36428332123342416,-0.36428332123342416
-0.34448720523279686,-0.34448720523279686
-0.3153752699377567,-0.3153752699377567
-0.26821393475979166,-0.26821393475979166
-0.20707887064020736,-0.20707887064020736
-0.14594380652062305,-0.14594380652062305
-0.08771993593054278,-0.08771993593054278
-0.021926962163752072,-0.021926962163752072
0.060750934074161926,0.060750934074161926
0.1562380818418936,0.1562380818418936
0.2528897070214269,0.2528897070214269
0.3419722290242497,0.3419722290242497
0.42173893173265964,0.42173893173265964
0.4956832473820616,0.4956832473820616
0.5614762211488523,0.5614762211488523
0.6109665111504206,0.6109665111504206
0.6400784464454607,0.6400784464454607
0.656963368916584,0.656963368916584
0.6750127687995089,0.6750127687995089
0.6936444073883345,0.6936444073883345
0.6994667944473426,0.6994667944473426
0.6854930655057233,0.6854930655057233
0.6645324720932945,0.6645324720932945
0.6499765044457744,0.6499765044457744
0.6418251625631631,0.6418251625631631
0.6290159110333454,0.6290159110333454
0.6086375563268174,0.6086375563268174
0.5882592016202892,0.5882592016202892
0.5760321887963724,0.5760321887963724
0.5672986082078604,0.5672986082078604
0.556236072795745,0.556236072795745
0.5410978664423243,0.5410978664423243
0.532946524559713,0.532946524559713
0.5317820471479113,0.5317820471479113
0.5323642858538122,0.5323642858538122
0.5306175697361097,0.5306175697361097
0.535857718089217,0.535857718089217
0.5480847309131338,0.5480847309131338
0.5544893566780427,0.5544893566780427
0.5405156277364235,0.5405156277364235
0.514897124676788,0.514897124676788
0.4939365312643592,0.4939365312643592
0.4898608603230536,0.4898608603230536
0.4921898151466568,0.4921898151466568
0.4968477247938632,0.4968477247938632
0.5003411570292681,0.5003411570292681
0.5067457827941768,0.5067457827941768
0.506163544088276,0.506163544088276
0.4921898151466568,0.4921898151466568
0.46657131208702146,0.46657131208702146
0.44328176385098933,0.44328176385098933
0.4275613187916677,0.4275613187916677
0.4135875898500484,0.4135875898500484
0.3885513254963139,0.3885513254963139
0.35769267408357136,0.35769267408357136
0.3314919323180352,0.3314919323180352
0.31693596467051516,0.31693596467051516
0.3093668614938047,0.3093668614938047
0.3058734292583999,0.3058734292583999
0.3047089518465983,0.3047089518465983
0.3052911905524991,0.3052911905524991
0.3047089518465983,0.3047089518465983
0.3058734292583999,0.3058734292583999
0.3082023840820031,0.3082023840820031
0.3151892485528127,0.3151892485528127
0.31926491949411834,0.31926491949411834
0.31926491949411834,0.31926491949411834
0.31227805502330874,0.31227805502330874
0.30354447443479665,0.30354447443479665
0.2930641777285823,0.2930641777285823
0.2785082100810622,0.2785082100810622
0.2575476166686333,0.2575476166686333
0.2400804554916092,0.2400804554916092
0.23425806843260116,0.23425806843260116
0.2418271716093116,0.2418271716093116
0.25580090055093085,0.25580090055093085
0.26977462949255016,0.26977462949255016
0.2767614939633598,0.2767614939633598
0.2767614939633598,0.2767614939633598
0.27210358431615334,0.27210358431615334
0.27093910690435175,0.27093910690435175
0.273268061727955,0.273268061727955
0.27443253913975657,0.27443253913975657
0.27035686819845095,0.27035686819845095
0.26569895855124454,0.26569895855124454
0.2668634359630461,0.2668634359630461
0.2726858230220542,0.2726858230220542
0.273268061727955,0.273268061727955
0.2622055263158397,0.2622055263158397
0.2400804554916092,0.2400804554916092
0.2162086685496763,0.2162086685496763
0.19233688160774337,0.19233688160774337
0.16671837854810806,0.16671837854810806
0.14109987548847272,0.14109987548847272
0.12421495301734944,0.12421495301734944
0.1160636111347382,0.1160636111347382
0.10907674666392857,0.10907674666392857
0.0968497338400117,0.0968497338400117
0.08345824360429324,0.08345824360429324
0.0747246630157812,0.0747246630157812
0.06715555983907076,0.06715555983907076
0.056093024426955504,0.056093024426955504
0.045030489014840254,0.045030489014840254
0.041537056779435436,0.041537056779435436
0.045030489014840254,0.045030489014840254
0.045612727720741056,0.045612727720741056
0.037461385838129815,0.037461385838129815
0.02581661172011376,0.02581661172011376
0.018247508543403325,0.018247508543403325
0.015918553719800114,0.015918553719800114
0.015918553719800114,0.015918553719800114
0.011842882778494494,0.011842882778494494
0.0031093021899824503,0.0031093021899824503
-0.009117710633934408,-0.009117710633934408
-0.025420394399156887,-0.025420394399156887
-0.045216510399784186,-0.045216510399784186
-0.06559486510631228,-0.06559486510631228
-0.08131531016563395,-0.08131531016563395
-0.09004889075414599,-0.09004889075414599
-0.09878247134265804,-0.09878247134265804
-0.1121739615783765,-0.1121739615783765
-0.12556545181409495,-0.12556545181409495
-0.12614769051999578,-0.12614769051999578
-0.1110094841665749,-0.1110094841665749
-0.08830217463644359,-0.08830217463644359
-0.06792381992991549,-0.06792381992991549
-0.04987442004699061,-0.04987442004699061
-0.030660542752264115,-0.030660542752264115
-0.010864426751636817,-0.010864426751636817
0.008349450543089675,0.008349450543089675
0.033385714896824195,0.033385714896824195
0.06482660501546755,0.06482660501546755
0.09044510807510288,0.09044510807510288
0.09743197254591252,0.09743197254591252
0.08928063066330127,0.08928063066330127
0.08287600489839245,0.08287600489839245
0.08869839195740047,0.08869839195740047
0.10092540478131733,0.10092540478131733
0.10383659831082134,0.10383659831082134
0.09102734678100369,0.09102734678100369
0.06890227595677317,0.06890227595677317
0.053764069603352296,0.053764069603352296
0.0543463083092531,0.0543463083092531
0.061333172780062735,0.061333172780062735
0.057257501838757115,0.057257501838757115
0.041537056779435436,0.041537056779435436
0.02989228266141938,0.02989228266141938
0.02989228266141938,0.02989228266141938
0.031056760073220984,0.031056760073220984
0.014754076307998507,0.014754076307998507
-0.014940097692942437,-0.014940097692942437
-0.05395009098829623,-0.05395009098829623
-0.08655545851874118,-0.08655545851874118
-0.1127562002842773,-0.1127562002842773
-0.11857858734328533,-0.11857858734328533
-0.1139206776960789,-0.1139206776960789
-0.10402261969576526,-0.10402261969576526
-0.09820023263675723,-0.09820023263675723
-0.08655545851874118,-0.08655545851874118
-0.06501262640041149,-0.06501262640041149
-0.05278561357649462,-0.05278561357649462
-0.059772478047304255,-0.059772478047304255
-0.07199949087122111,-0.07199949087122111
-0.05278561357649462,-0.05278561357649462
0.01126064407259369,0.01126064407259369
0.12421495301734944,0.12421495301734944
0.30762014537610227,0.30762014537610227
0.621446807856635,0.621446807856635
1.1227543336372263,1.1227543336372263
1.7981512324821576,1.7981512324821576
2.514887079446046,2.514887079446046
3.075582953228519,3.075582953228519
3.3486529062959955,3.3486529062959955
3.3509818611195987,3.3509818611195987
3.1390469721717067,3.1390469721717067
2.644144072156024,2.644144072156024
1.7090687104793347,1.7090687104793347
0.36409729984848016,0.36409729984848016
-1.0274532072544384,-1.0274532072544384
-1.9864003558730607,-1.9864003558730607
-2.296733586118189,-2.296733586118189
-2.1197330195243445,-2.1197330195243445
-1.776794421748772,-1.776794421748772
-1.4664611915036438,-1.4664611915036438
-1.197466909377473,-1.197466909377473
-0.9162456144273852,-0.9162456144273852
-0.6367710355949999,-0.6367710355949999
-0.4393921142946277,-0.4393921142946277
-0.37592809535144023,-0.37592809535144023
-0.4126091338231908,-0.4126091338231908
-0.46268166253065984,-0.46268166253065984
-0.4766553914722791,-0.4766553914722791
-0.4580237528834534,-0.4580237528834534
-0.44230330782413174,-0.44230330782413174
-0.4341519659415205,-0.4341519659415205
-0.4294940562943141,-0.4294940562943141
-0.41668480476449643,-0.41668480476449643
-0.41086241770548837,-0.41086241770548837
-0.4242539079412068,-0.4242539079412068
-0.450454649706743,-0.450454649706743
-0.4719974818250727,-0.4719974818250727
-0.4772376301781799,-0.4772376301781799
-0.4859712107666919,-0.4859712107666919
-0.5063495654732201,-0.5063495654732201
-0.5395371717095658,-0.5395371717095658
-0.5680668682987051,-0.5680668682987051
-0.5901919391229357,-0.5901919391229357
-0.6047479067704558,-0.6047479067704558
-0.6169749195943726,-0.6169749195943726
-0.6222150679474798,-0.6222150679474798
-0.6257085001828846,-0.6257085001828846
-0.6326953646536942,-0.6326953646536942
-0.6484158097130159,-0.6484158097130159
-0.6635540160664368,-0.6635540160664368
-0.674616551478552,-0.674616551478552
-0.6821856546552625,-0.6821856546552625
-0.6961593835968818,-0.6961593835968818
-0.7142087834798067,-0.7142087834798067
-0.7316759446568307,-0.7316759446568307
-0.7444851961866484,-0.7444851961866484
-0.7625345960695733,-0.7625345960695733
-0.7846596668938037,-0.7846596668938037
-0.8015445893649271,-0.8015445893649271
-0.8003801119531254,-0.8003801119531254
-0.7916465313646134,-0.7916465313646134
-0.7881530991292086,-0.7881530991292086
-0.7992156345413238,-0.7992156345413238
-0.8149360796006455,-0.8149360796006455
-0.8306565246599672,-0.8306565246599672
-0.8434657761897849,-0.8434657761897849
-0.8580217438373049,-0.8580217438373049
-0.8749066663084282,-0.8749066663084282
-0.8976139758385595,-0.8976139758385595
-0.9238147176040956,-0.9238147176040956
-0.9529266528991358,-0.9529266528991358
-0.9802918720764735,-0.9802918720764735
-1.0047458977243073,-1.0047458977243073
-1.022795297607232,-1.022795297607232
-1.035022310431149,-1.035022310431149
-1.0385157426665539,-1.0385157426665539
-1.0390979813724546,-1.0390979813724546
-1.0385157426665539,-1.0385157426665539
-1.0390979813724546,-1.0390979813724546
-1.0396802200783555,-1.0396802200783555
-1.0402624587842562,-1.0402624587842562
-1.0373512652547523,-1.0373512652547523
-1.0268709685485378,-1.0268709685485378
-1.0029991816066048,-1.0029991816066048
-0.9669003818407551,-0.9669003818407551
-0.9243969563099964,-0.9243969563099964
-0.8830580081910394,-0.8830580081910394
-0.8417190600720824,-0.8417190600720824
-0.7957222023059191,-0.7957222023059191
-0.7340048994804339,-0.7340048994804339
-0.6559849128897264,-0.6559849128897264
-0.5680668682987051,-0.5680668682987051
-0.4818955398253863,-0.4818955398253863
-0.3957242113520675,-0.3957242113520675
-0.30489497323154224,-0.30489497323154224
-0.2129012576992154,-0.2129012576992154
-0.1337167936967062,-0.1337167936967062
-0.06908829734171709,-0.06908829734171709
-0.009699949339835211,-0.009699949339835211
0.0543463083092531,0.0543463083092531
0.11140570148753179,0.11140570148753179
0.14750450125338155,0.14750450125338155
0.16089599148910003,0.16089599148910003
0.16962957207761206,0.16962957207761206
0.18302106231333054,0.18302106231333054
0.20223493960805702,0.20223493960805702
0.2185376233732795,0.2185376233732795
0.22668896525589075,0.22668896525589075
0.2208665781968827,0.2208665781968827
0.2033994170198586,0.2033994170198586
0.1783631526661241,0.1783631526661241
0.15274464960648879,0.15274464960648879
0.12770838525275427,0.12770838525275427
0.10500107572262295,0.10500107572262295
0.08462272101609486,0.08462272101609486
0.06773779854497157,0.06773779854497157
0.05143511477974908,0.05143511477974908
0.03280347619092339,0.03280347619092339
0.011842882778494494,0.011842882778494494
-0.013775620281140832,-0.013775620281140832
-0.04579874910568499,-0.04579874910568499
-0.08422650369513797,-0.08422650369513797
-0.12207201957869014,-0.12207201957869014
-0.15467738710913512,-0.15467738710913512
-0.17971365146286963,-0.17971365146286963
-0.20067424487529853,-0.20067424487529853
-0.2146479738169178,-0.2146479738169178
-0.22338155440542984,-0.22338155440542984
-0.22862170275853705,-0.22862170275853705
-0.2373552833470491,-0.2373552833470491
-0.24608886393556115,-0.24608886393556115
-0.2600625928771804,-0.2600625928771804
-0.2711251282892957,-0.2711251282892957
-0.2804409475837085,-0.2804409475837085
-0.2722896057010973,-0.2722896057010973
-0.25365796711227157,-0.25365796711227157
-0.22978618017033867,-0.22978618017033867
-0.2181414060523226,-0.2181414060523226
-0.2181414060523226,-0.2181414060523226
-0.21872364475822342,-0.21872364475822342
-0.22221707699362822,-0.22221707699362822
-0.22687498664083466,-0.22687498664083466
-0.2332796124057435,-0.2332796124057435
-0.22279931569952904,-0.22279931569952904
-0.17854917405106802,-0.17854917405106802
-0.08422650369513797,-0.08422650369513797
0.075306901721682,0.075306901721682
0.33847879678884485,0.33847879678884485
0.7600196198610261,0.7600196198610261
1.3777748868217778,1.3777748868217778
2.1230404303748056,2.1230404303748056
2.8065886711023484,2.8065886711023484
3.2199781522919184,3.2199781522919184
3.2869356034705106,3.2869356034705106
3.064520417816404,3.064520417816404
2.5987294530957614,2.5987294530957614
1.8284276451889994,1.8284276451889994
0.7111115685653586,0.7111115685653586
-0.5872807455934316,-0.5872807455934316
-1.6888763771577506,-1.6888763771577506
-2.2594703089405375,-2.2594703089405375
-2.2524834444697275,-2.2524834444697275
-1.908962607988254,-1.908962607988254
-1.5171159589170138,-1.5171159589170138
-1.2108583996131914,-1.2108583996131914
-0.9663181431348543,-0.9663181431348543
-0.7433207187748467,-0.7433207187748467
-0.562826719945598,-0.562826719945598
-0.46850404958966785,-0.46850404958966785
-0.4603527077070566,-0.4603527077070566
-0.4906291204138984,-0.4906291204138984
-0.5179943395912361,-0.5179943395912361
-0.5267279201797481,-0.5267279201797481
-0.533132545944657,-0.533132545944657
-0.541866126533169,-0.541866126533169
-0.5587510490042923,-0.5587510490042923
-0.5721425392400108,-0.5721425392400108
-0.5797116424167212,-0.5797116424167212
-0.5727247779459116,-0.5727247779459116
-0.5546753780629867,-0.5546753780629867
-0.5354615007682602,-0.5354615007682602
-0.5197410557089385,-0.5197410557089385
-0.5110074751204264,-0.5110074751204264
-0.49295807523750157,-0.49295807523750157
-0.46384613994246143,-0.46384613994246143
-0.42716510147071085,-0.42716510147071085
-0.3992176435874723,-0.3992176435874723
-0.38233272111634903,-0.38233272111634903
-0.3730169018219362,-0.3730169018219362
-0.36428332123342416,-0.36428332123342416
-0.36311884382162257,-0.36311884382162257
-0.3689412308806306,-0.3689412308806306
-0.3782570501750434,-0.3782570501750434
-0.38116824370454744,-0.38116824370454744
-0.38116824370454744,-0.38116824370454744
-0.3829149598222498,-0.3829149598222498
-0.3899018242930595,-0.3899018242930595
-0.40271107582287713,-0.40271107582287713
-0.42716510147071085,-0.42716510147071085
-0.4556947980598502,-0.4556947980598502
-0.47840210758998153,-0.47840210758998153
-0.4818955398253863,-0.4818955398253863
-0.4760731527663783,-0.4760731527663783
-0.4719974818250727,-0.4719974818250727
-0.4772376301781799,-0.4772376301781799
-0.48830016559029515,-0.48830016559029515
-0.5086785202968233,-0.5086785202968233
-0.533132545944657,-0.533132545944657
-0.5570043328865899,-0.5570043328865899
-0.5733070166518124,-0.5733070166518124
-0.5872807455934316,-0.5872807455934316
-0.6035834293586541,-0.6035834293586541
-0.6198861131238765,-0.6198861131238765
-0.6257085001828846,-0.6257085001828846
-0.621632829241579,-0.621632829241579
-0.6204683518297774,-0.6204683518297774
-0.6350243194772974,-0.6350243194772974
-0.6594783451251311,-0.6594783451251311
-0.6769455063021552,-0.6769455063021552
-0.6781099837139569,-0.6781099837139569
-0.6740343127726512,-0.6740343127726512
-0.6751987901844528,-0.6751987901844528
-0.6786922224198577,-0.6786922224198577
-0.6693764031254448,-0.6693764031254448
-0.6443401387717103,-0.6443401387717103
-0.6105702938294637,-0.6105702938294637
-0.5768004488872172,-0.5768004488872172
-0.5383726942977642,-0.5383726942977642
-0.48480673335489033,-0.48480673335489033
-0.4143558499408932,-0.4143558499408932
-0.33458914723248323,-0.33458914723248323
-0.2548224445240732,-0.2548224445240732
-0.18029589016877043,-0.18029589016877043
-0.10751605193117007,-0.10751605193117007
-0.039976362046676955,-0.039976362046676955
0.01766526983750252,0.01766526983750252
0.05667526313285631,0.05667526313285631
0.08112928878069003,0.08112928878069003
0.09801421125181332,0.09801421125181332
0.11664584984063901,0.11664584984063901
0.1370242045471671,0.1370242045471671
0.15099793348878637,0.15099793348878637
0.15041569478288558,0.15041569478288558
0.13993539807667113,0.13993539807667113
0.12887286266455586,0.12887286266455586
0.12363271431144864,0.12363271431144864
0.11722808854653981,0.11722808854653981
0.10325435960492055,0.10325435960492055
0.08287600489839245,0.08287600489839245
0.06191541148596354,0.06191541148596354
0.03979034066173303,0.03979034066173303
0.017083031131601718,0.017083031131601718
-0.008535471928033606,-0.008535471928033606
-0.03415397498766893,-0.03415397498766893
-0.059772478047304255,-0.059772478047304255
-0.08247978757743556,-0.08247978757743556
-0.09820023263675723,-0.09820023263675723
-0.10285814228396366,-0.10285814228396366
-0.09703575522495562,-0.09703575522495562
-0.08830217463644359,-0.08830217463644359
-0.07898635534203075,-0.07898635534203075
-0.06792381992991549,-0.06792381992991549
-0.05511456840009783,-0.05511456840009783
-0.047545465223387394,-0.047545465223387394
-0.05395009098829623,-0.05395009098829623
-0.07258172957712192,-0.07258172957712192
-0.09237784557774921,-0.09237784557774921
-0.10693381322526928,-0.10693381322526928
-0.11799634863738452,-0.11799634863738452
-0.13429903240260702,-0.13429903240260702
-0.1535129096973335,-0.1535129096973335
-0.16282872899174633,-0.16282872899174633
-0.1558418645209367,-0.1558418645209367
-0.14536156781472226,-0.14536156781472226
-0.14885500005012708,-0.14885500005012708
-0.16690439993305195,-0.16690439993305195
-0.18320708369827443,-0.18320708369827443
-0.18204260628647284,-0.18204260628647284
-0.16923335475665519,-0.16923335475665519
-0.16049977416814312,-0.16049977416814312
-0.16108201287404394,-0.16108201287404394
-0.16515768381534957,-0.16515768381534957
-0.16515768381534957,-0.16515768381534957
-0.16049977416814312,-0.16049977416814312
-0.15467738710913512,-0.15467738710913512
-0.14477932910882146,-0.14477932910882146
-0.12964112275540057,-0.12964112275540057
-0.11042724546067409,-0.11042724546067409
-0.0917956068718484,-0.0917956068718484
-0.07258172957712192,-0.07258172957712192
-0.048127703929288196,-0.048127703929288196
-0.022509200869652874,-0.022509200869652874
-0.006788755810331198,-0.006788755810331198
-0.010282188045736015,-0.010282188045736015
-0.024255916987355283,-0.024255916987355283
-0.03531845239947053,-0.03531845239947053
-0.03357173628176813,-0.03357173628176813
-0.03182502016406572,-0.03182502016406572
-0.029496065340462507,-0.029496065340462507
-0.032407258869966524,-0.032407258869966524
-0.027167110516859296,-0.027167110516859296
-0.020762484751950465,-0.020762484751950465
-0.01144666545753762,-0.01144666545753762
-0.0038775622808271833,-0.0038775622808271833
0.0019448247781808448,0.0019448247781808448
0.012425121484395295,0.012425121484395295
0.02406989560241135,0.02406989560241135
0.040954818073534634,0.040954818073534634
0.06773779854497157,0.06773779854497157
0.11897480466424222,0.11897480466424222
0.19932374607855302,0.19932374607855302
0.31810044208231675,0.31810044208231675
0.5154793633826888,0.5154793633826888
0.8671515417467738,0.8671515417467738
1.4266829381174453,1.4266829381174453
2.136431920610524,2.136431920610524
2.8176512065144634,2.8176512065144634
3.2840244099410065,3.2840244099410065
3.4691763184174618,3.4691763184174618
3.426672892886703,3.426672892886703
3.176310249349358,3.176310249349358
2.601058407919365,2.601058407919365
1.5734070920044476,1.5734070920044476
0.20514613313756103,0.20514613313756103
-1.1013975229038404,-1.1013975229038404
-1.9206073821062701,-1.9206073821062701
-2.1220619743479476,-2.1220619743479476
-1.9066336531646508,-1.9066336531646508
-1.5660240102126812,-1.5660240102126812
-1.2498683929085452,-1.2498683929085452
-0.9546733690168382,-0.9546733690168382
-0.657149390301528,-0.657149390301528
-0.3945597339402659,-0.3945597339402659
-0.23211513499394187,-0.23211513499394187
-0.17971365146286963,-0.17971365146286963
-0.18786499334548087,-0.18786499334548087
-0.19368738040448888,-0.19368738040448888
-0.18029589016877043,-0.18029589016877043
-0.15758858063863912,-0.15758858063863912
-0.14885500005012708,-0.14885500005012708
-0.14943723875602788,-0.14943723875602788
-0.15700634193273832,-0.15700634193273832
-0.1564241032268375,-0.1564241032268375
-0.15817081934453991,-0.15817081934453991
-0.16865111605075436,-0.16865111605075436
-0.19077618687498488,-0.19077618687498488
-0.21115454158151298,-0.21115454158151298
-0.216976928640521,-0.216976928640521
-0.2181414060523226,-0.2181414060523226
-0.219888122170025,-0.219888122170025
-0.22687498664083466,-0.22687498664083466
-0.23036841887623946,-0.23036841887623946
-0.2356085672293467,-0.2356085672293467
-0.24783558005326356,-0.24783558005326356
-0.26821393475979166,-0.26821393475979166
-0.28859228946631976,-0.28859228946631976
-0.3014015409961375,-0.3014015409961375
-0.3078061667610463,-0.3078061667610463
-0.3130463151141535,-0.3130463151141535
-0.3211976569967647,-0.3211976569967647
-0.3334246698206816,-0.3334246698206816
-0.34332272782099527,-0.34332272782099527
-0.3473983987623009,-0.3473983987623009
-0.3468161600564001,-0.3468161600564001
-0.3479806374682017,-0.3479806374682017
-0.3514740697036065,-0.3514740697036065
-0.3532207858213089,-0.3532207858213089
-0.34565168264459845,-0.34565168264459845
-0.33226019240888,-0.33226019240888
-0.3217798957026655,-0.3217798957026655
-0.32003317958496313,-0.32003317958496313
-0.31886870217316154,-0.31886870217316154
-0.30897064417284786,-0.30897064417284786
-0.2932501991135262,-0.2932501991135262
-0.2932501991135262,-0.2932501991135262
-0.3177042247613599,-0.3177042247613599
-0.3584609341744161,-0.3584609341744161
-0.40038212099927395,-0.40038212099927395
-0.44346778523593333,-0.44346778523593333
-0.48888240429619595,-0.48888240429619595
-0.5284746362974505,-0.5284746362974505
-0.5500174684157803,-0.5500174684157803
-0.553510900651185,-0.553510900651185
-0.5494352297098795,-0.5494352297098795
-0.541866126533169,-0.541866126533169
-0.5273101588856489,-0.5273101588856489
-0.4999449397083112,-0.4999449397083112
-0.46209942382475905,-0.46209942382475905
-0.417849282176298,-0.417849282176298
-0.3741813792337378,-0.3741813792337378
-0.3363358633501856,-0.3363358633501856
-0.3072239280551455,-0.3072239280551455
-0.27927647017190693,-0.27927647017190693
-0.24143095428835473,-0.24143095428835473
-0.18262484499237364,-0.18262484499237364
-0.10868052934297168,-0.10868052934297168
-0.030660542752264115,-0.030660542752264115
0.04386601160303865,0.04386601160303865
0.11839256595834141,0.11839256595834141
0.20281717831395782,0.20281717831395782
0.2977220873757887,0.2977220873757887
0.3937914738494211,0.3937914738494211
0.4805450410286407,0.4805450410286407
0.5550715953839435,0.5550715953839435
0.6179533756212302,0.6179533756212302
0.6680259043286992,0.6680259043286992
0.6988845557414418,0.6988845557414418
0.7082003750358546,0.7082003750358546
0.7023779879768466,0.7023779879768466
0.6907332138588306,0.6907332138588306
0.6796706784467152,0.6796706784467152
0.6674436656227984,0.6674436656227984
0.6523054592693776,0.6523054592693776
0.6383317303277583,0.6383317303277583
0.6307626271510478,0.6307626271510478
0.6278514336215438,0.6278514336215438
0.6261047175038414,0.6261047175038414
0.6237757626802383,0.6237757626802383
0.6249402400920399,0.6249402400920399
0.6295981497392462,0.6295981497392462
0.6325093432687503,0.6325093432687503
0.6255224787979407,0.6255224787979407
0.609802033738619,0.609802033738619
0.58884144032619,0.58884144032619
0.5707920404432651,0.5707920404432651
0.5556538340898443,0.5556538340898443
0.5498314470308363,0.5498314470308363
0.5504136857367371,0.5504136857367371
0.5544893566780427,0.5544893566780427
0.5504136857367371,0.5504136857367371
0.5370221955010186,0.5370221955010186
0.5189727956180937,0.5189727956180937
0.5090747376177801,0.5090747376177801
0.5096569763236809,0.5096569763236809
0.5224662278534985,0.5224662278534985
0.5381866729128202,0.5381866729128202
0.5509959244426379,0.5509959244426379
0.5515781631485387,0.5515781631485387
0.5376044342069194,0.5376044342069194
0.5131504085590857,0.5131504085590857
0.4904430990289544,0.4904430990289544
0.4735581765578311,0.4735581765578311
0.4578377314985094,0.4578377314985094
0.4322192284388741,0.4322192284388741
0.39961386090842915,0.39961386090842915
0.3716664030251906,0.3716664030251906
0.3623505837307778,0.3623505837307778
0.3658440159661826,0.3658440159661826
0.3722486417310914,0.3722486417310914
0.36933744820158737,0.36933744820158737
0.3565281966717697,0.3565281966717697
0.33673208067114246,0.33673208067114246
0.31751820337641595,0.31751820337641595
0.29946880349349103,0.29946880349349103
0.2872417906695742,0.2872417906695742
0.2808371649046654,0.2808371649046654
0.28549507455187184,0.28549507455187184
0.3000510421993919,0.3000510421993919
0.31926491949411834,0.31926491949411834
0.33440312584753923,0.33440312584753923
0.3413899903183489,0.3413899903183489
0.3419722290242497,0.3419722290242497
0.3419722290242497,0.3419722290242497
0.33847879678884485,0.33847879678884485
0.3268340226708288,0.3268340226708288
0.3116958163174079,0.3116958163174079
0.3064556679643007,0.3064556679643007
0.3116958163174079,0.3116958163174079
0.31227805502330874,0.31227805502330874
0.2971398486698879,0.2971398486698879
0.27559701655155816,0.27559701655155816
0.2633700037276413,0.2633700037276413
0.26453448113944295,0.26453448113944295
0.27093910690435175,0.27093910690435175
0.2802549261987646,0.2802549261987646
0.2872417906695742,0.2872417906695742
0.28491283584597105,0.28491283584597105
0.26861015208074857,0.26861015208074857
0.25056075219782364,0.25056075219782364
0.24299164902111323,0.24299164902111323
0.24706731996241885,0.24706731996241885
0.24881403608012126,0.24881403608012126
0.24415612643291482,0.24415612643291482
0.2371692619621052,0.2371692619621052
0.237751500668006,0.237751500668006
0.24706731996241885,0.24706731996241885
0.2610410489040381,0.2610410489040381
0.27210358431615334,0.27210358431615334
0.27443253913975657,0.27443253913975657
0.2680279133748477,0.2680279133748477
0.2604588101981373,0.2604588101981373
0.2563831392568317,0.2563831392568317
0.2575476166686333,0.2575476166686333
0.2604588101981373,0.2604588101981373
0.2633700037276413,0.2633700037276413
0.2604588101981373,0.2604588101981373
0.24764955866831964,0.24764955866831964
0.22843568137359316,0.22843568137359316
0.21213299760837068,0.21213299760837068
0.20456389443166023,0.20456389443166023
0.2033994170198586,0.2033994170198586
0.2004882234903546,0.2004882234903546
0.19233688160774337,0.19233688160774337
0.1801098687838265,0.1801098687838265
0.16904733337171127,0.16904733337171127
0.16438942372450485,0.16438942372450485
0.17137628819531447,0.17137628819531447
0.18243882360742972,0.18243882360742972
0.18709673325463616,0.18709673325463616
0.1801098687838265,0.1801098687838265
0.1754519591366201,0.1754519591366201
0.1754519591366201,0.1754519591366201
0.1754519591366201,0.1754519591366201
0.15856703666549682,0.15856703666549682
0.13818868195896872,0.13818868195896872
0.12013928207604382,0.12013928207604382
0.11722808854653981,0.11722808854653981
0.11431689501703579,0.11431689501703579
0.113734656311135,0.113734656311135
0.10733003054622617,0.10733003054622617
0.09801421125181332,0.09801421125181332
0.08869839195740047,0.08869839195740047
0.07821809525118602,0.07821809525118602
0.06599108242726916,0.06599108242726916
0.04794168254434427,0.04794168254434427
0.04270153419123704,0.04270153419123704
0.07763585654528522,0.07763585654528522
0.17195852690121527,0.17195852690121527
0.3279985000826304,0.3279985000826304
0.5760321887963724,0.5760321887963724
0.9859282377505376,0.9859282377505376
1.5966966402404796,1.5966966402404796
2.3303174096754913,2.3303174096754913
2.9998919214614146,2.9998919214614146
3.4348242347693145,3.4348242347693145
3.5885352531271266,3.5885352531271266
3.498288253712502,3.498288253712502
3.1501095075838217,3.1501095075838217
2.429880228384529,2.429880228384529
1.2677317714065262,1.2677317714065262
-0.1564241032268375,-0.1564241032268375
-1.4064906047958612,-1.4064906047958612
-2.0778118326994868,-2.0778118326994868
-2.1104172002299317,-2.1104172002299317
-1.7965905377493991,-1.7965905377493991
-1.4588920883269334,-1.4588920883269334
-1.1963024319656714,-1.1963024319656714
-0.9372062078398141,-0.9372062078398141
-0.654238196772024,-0.654238196772024
-0.42483614664710767,-0.42483614664710767
-0.31945094087906234,-0.31945094087906234
-0.3211976569967647,-0.3211976569967647
-0.35962541158621775,-0.35962541158621775
-0.3893195855871587,-0.3893195855871587
-0.40038212099927395,-0.40038212099927395
-0.4102801789995876,-0.4102801789995876
-0.4195959982940004,-0.4195959982940004
-0.4335697272356197,-0.4335697272356197
-0.4393921142946277,-0.4393921142946277
-0.4411388304123301,-0.4411388304123301
-0.4388098755887269,-0.4388098755887269
-0.4388098755887269,-0.4388098755887269
-0.44346778523593333,-0.44346778523593333
-0.44637897876543736,-0.44637897876543736
-0.44929017229494134,-0.44929017229494134
-0.44579674005953657,-0.44579674005953657
-0.44754345617723895,-0.44754345617723895
-0.4545303206480486,-0.4545303206480486
-0.4655928560601638,-0.4655928560601638
-0.4702507657073703,-0.4702507657073703
-0.4702507657073703,-0.4702507657073703
-0.46908628829556864,-0.46908628829556864
-0.47374419794277506,-0.47374419794277506
-0.48306001723718794,-0.48306001723718794
-0.4970337461788072,-0.4970337461788072
-0.5086785202968233,-0.5086785202968233
-0.5179943395912361,-0.5179943395912361
-0.5243989653561449,-0.5243989653561449
-0.5383726942977642,-0.5383726942977642
-0.5558398554747883,-0.5558398554747883
-0.5709780618282092,-0.5709780618282092
-0.577382687593118,-0.577382687593118
-0.5855340294757292,-0.5855340294757292
-0.5989255197114477,-0.5989255197114477
-0.6152282034766702,-0.6152282034766702
-0.6251262614769838,-0.6251262614769838
-0.6373532743009007,-0.6373532743009007
-0.6565671515956272,-0.6565671515956272
-0.6792744611257585,-0.6792744611257585
-0.6938304287732785,-0.6938304287732785
-0.7060574415971954,-0.7060574415971954
-0.7229423640683187,-0.7229423640683187
-0.7491431058338548,-0.7491431058338548
-0.7794195185406966,-0.7794195185406966
-0.8149360796006455,-0.8149360796006455
-0.8556927890137017,-0.8556927890137017
-0.9034363628975676,-0.9034363628975676
-0.9500154593696318,-0.9500154593696318
-0.9913544074885888,-0.9913544074885888
-1.0222130589013314,-1.0222130589013314
-1.0449203684314627,-1.0449203684314627
-1.0623875296084868,-1.0623875296084868
-1.0804369294914116,-1.0804369294914116
-1.0984863293743365,-1.0984863293743365
-1.1072199099628486,-1.1072199099628486
-1.0979040906684356,-1.0979040906684356
-1.070538871491098,-1.070538871491098
-1.032111116901645,-1.032111116901645
-0.993683362312192,-0.993683362312192
-0.9593312786640447,-0.9593312786640447
-0.9284726272513021,-0.9284726272513021
-0.8941205436031547,-0.8941205436031547
-0.8504526406605944,-0.8504526406605944
-0.7933932474823159,-0.7933932474823159
-0.7235246027742195,-0.7235246027742195
-0.636188796889099,-0.636188796889099
-0.533132545944657,-0.533132545944657
-0.42308943052940523,-0.42308943052940523
-0.32527332793807034,-0.32527332793807034
-0.2408487155824539,-0.2408487155824539
-0.16049977416814312,-0.16049977416814312
-0.08189754887153475,-0.08189754887153475
-0.024838155693256085,-0.024838155693256085
0.004856018307684859,0.004856018307684859
0.026981089131915367,0.026981089131915367
0.061333172780062735,0.061333172780062735
0.10092540478131733,0.10092540478131733
0.12013928207604382,0.12013928207604382
0.12246823689964703,0.12246823689964703
0.11664584984063901,0.11664584984063901
0.11664584984063901,0.11664584984063901
0.11315241760523419,0.11315241760523419
0.10267212089901974,0.10267212089901974
0.08753391454559886,0.08753391454559886
0.07356018560397959,0.07356018560397959
0.06249765019186434,0.06249765019186434
0.04270153419123704,0.04270153419123704
0.026981089131915367,0.026981089131915367
0.02931004395551858,0.02931004395551858
0.060168695368261124,0.060168695368261124
0.11257017889933339,0.11257017889933339
0.20863956537296585,0.20863956537296585
0.3769065513782978,0.3769065513782978
0.6197000917389326,0.6197000917389326
0.9451715283374814,0.9451715283374814
1.4359987574118582,1.4359987574118582
2.156810275317052,2.156810275317052
2.957388495930656,2.957388495930656
3.491301389241692,3.491301389241692
3.5303113825370462,3.5303113825370462
3.1565141333487308,3.1565141333487308
2.56845304038892,2.56845304038892
1.7853419809523399,1.7853419809523399
0.712858284683061,0.712858284683061
-0.5424483652390698,-0.5424483652390698
-1.5741753520952924,-1.5741753520952924
-1.994551697755672,-1.994551697755672
-1.8041596409261096,-1.8041596409261096
-1.371556282441813,-1.371556282441813
-1.0542361877258755,-1.0542361877258755
-0.9203212853686908,-0.9203212853686908
-0.837061150424876,-0.837061150424876
-0.7241068414801203,-0.7241068414801203
-0.6210505905356782,-0.6210505905356782
-0.5785471650049195,-0.5785471650049195
-0.5866985068875308,-0.5866985068875308
-0.6175571583002734,-0.6175571583002734
-0.654238196772024,-0.654238196772024
-0.674616551478552,-0.674616551478552
-0.6699586418313457,-0.6699586418313457
-0.6489980484189167,-0.6489980484189167
-0.6414289452422063,-0.6414289452422063
-0.6402644678304047,-0.6402644678304047
-0.6350243194772974,-0.6350243194772974
-0.6198861131238765,-0.6198861131238765
-0.6094058164176621,-0.6094058164176621
-0.6094058164176621,-0.6094058164176621
-0.6117347712412653,-0.6117347712412653
-0.6163926808884718,-0.6163926808884718
-0.6193038744179757,-0.6193038744179757
-0.6257085001828846,-0.6257085001828846
-0.6309486485359919,-0.6309486485359919
-0.6338598420654958,-0.6338598420654958
-0.6338598420654958,-0.6338598420654958
-0.6385177517127023,-0.6385177517127023
-0.644922377477611,-0.644922377477611
-0.6478335710071151,-0.6478335710071151
-0.6390999904186031,-0.6390999904186031
-0.6251262614769838,-0.6251262614769838
-0.6094058164176621,-0.6094058164176621
-0.594849848770142,-0.594849848770142
-0.5797116424167212,-0.5797116424167212
-0.57156030053411,-0.57156030053411
-0.5750537327695148,-0.5750537327695148
-0.5913564165347373,-0.5913564165347373
-0.604165668064555,-0.604165668064555
-0.6064946228881581,-0.6064946228881581
-0.5965965648878445,-0.5965965648878445
-0.58611626818163,-0.58611626818163
-0.5791294037108204,-0.5791294037108204
-0.57156030053411,-0.57156030053411
-0.5575865715924907,-0.5575865715924907
-0.5430306039449706,-0.5430306039449706
-0.5395371717095658,-0.5395371717095658
-0.5552576167688875,-0.5552576167688875
-0.5837873133580268,-0.5837873133580268
-0.6111525325353645,-0.6111525325353645
-0.6227973066533806,-0.6227973066533806
-0.6175571583002734,-0.6175571583002734
-0.6024189519468525,-0.6024189519468525
-0.5878629842993325,-0.5878629842993325
-0.5762182101813164,-0.5762182101813164
-0.5669023908869035,-0.5669023908869035
-0.5593332877101931,-0.5593332877101931
-0.5593332877101931,-0.5593332877101931
-0.5616622425337963,-0.5616622425337963
-0.5517641845334826,-0.5517641845334826
-0.5226522492384426,-0.5226522492384426
-0.48364225594308874,-0.48364225594308874
-0.4440500239418341,-0.4440500239418341
-0.40096435970517474,-0.40096435970517474
-0.34448720523279686,-0.34448720523279686
-0.2752007992306013,-0.2752007992306013
-0.20067424487529853,-0.20067424487529853
-0.12847664534359898,-0.12847664534359898
-0.06443038769451068,-0.06443038769451068
-0.01144666545753762,-0.01144666545753762
0.02232317948470894,0.02232317948470894
0.04677720513254266,0.04677720513254266
0.06307988889776514,0.06307988889776514
0.07821809525118602,0.07821809525118602
0.07938257266298762,0.07938257266298762
0.06482660501546755,0.06482660501546755
0.033385714896824195,0.033385714896824195
-0.0032953235749263806,-0.0032953235749263806
-0.03357173628176813,-0.03357173628176813
-0.06268367157680826,-0.06268367157680826
-0.09470680040135242,-0.09470680040135242
-0.1308056001672022,-0.1308056001672022
-0.13837470334391264,-0.13837470334391264
-0.09004889075414599,-0.09004889075414599
0.018247508543403325,0.018247508543403325
0.1597315140772984,0.1597315140772984
0.35419924184816654,0.35419924184816654
0.698302317035541,0.698302317035541
1.2997549002310702,1.2997549002310702
2.1370141593164247,2.1370141593164247
3.0068787859322246,3.0068787859322246
3.624634052892976,3.624634052892976
3.802799096898622,3.802799096898622
3.5343870534783517,3.5343870534783517
2.9201252187530047,2.9201252187530047
2.023477611665768,2.023477611665768
0.8508488579815513,0.8508488579815513
-0.4923758365316008,-0.4923758365316008
-1.66675130633352,-1.66675130633352
-2.2746085152939584,-2.2746085152939584
-2.2082333028212666,-2.2082333028212666
-1.7663141250425574,-1.7663141250425574
-1.3424443471467729,-1.3424443471467729
-1.0926639423153284,-1.0926639423153284
-0.9383706852516157,-0.9383706852516157
-0.7974689184236214,-0.7974689184236214
-0.6763632675962544,-0.6763632675962544
-0.6000899971232493,-0.6000899971232493
-0.5610800038278955,-0.5610800038278955
-0.5471062748862763,-0.5471062748862763
-0.5564220941806891,-0.5564220941806891
-0.5703958231223083,-0.5703958231223083
-0.5727247779459116,-0.5727247779459116
-0.5604977651219947,-0.5604977651219947
-0.553510900651185,-0.553510900651185
-0.5482707522980779,-0.5482707522980779
-0.5436128426508714,-0.5436128426508714
-0.536043739474161,-0.536043739474161
-0.5325503072387562,-0.5325503072387562
-0.5325503072387562,-0.5325503072387562
-0.5220700105325418,-0.5220700105325418
-0.5051850880614185,-0.5051850880614185
-0.48830016559029515,-0.48830016559029515
-0.4964515074729064,-0.4964515074729064
-0.5238167266502441,-0.5238167266502441
-0.553510900651185,-0.553510900651185
-0.5674846295928043,-0.5674846295928043
-0.5791294037108204,-0.5791294037108204
-0.5983432810055469,-0.5983432810055469
-0.6257085001828846,-0.6257085001828846
-0.6472513323012143,-0.6472513323012143
-0.6682119257136432,-0.6682119257136432
-0.6961593835968818,-0.6961593835968818
-0.736916093009938,-0.736916093009938
-0.7735971314816885,-0.7735971314816885
-0.798633395835423,-0.798633395835423
-0.81086040865934,-0.81086040865934
-0.8259986150127607,-0.8259986150127607
-0.8533638341900985,-0.8533638341900985
-0.8964494984267579,-0.8964494984267579
-0.9459397884283262,-0.9459397884283262
-0.9925188849003904,-0.9925188849003904
-1.0326933556075457,-1.0326933556075457
-1.0711211101969988,-1.0711211101969988
-1.1095488647864518,-1.1095488647864518
-1.1427364710227974,-1.1427364710227974
-1.1590391547880199,-1.1590391547880199
-1.1567101999644167,-1.1567101999644167
-1.1421542323168967,-1.1421542323168967
-1.1275982646693767,-1.1275982646693767
-1.1159534905513606,-1.1159534905513606
-1.1019797616097413,-1.1019797616097413
-1.0816014069032132,-1.0816014069032132
-1.0536539490199748,-1.0536539490199748
-1.0158084331364226,-1.0158084331364226
-0.9645714270171518,-0.9645714270171518
-0.8993606919562619,-0.8993606919562619
-0.8277453311304632,-0.8277453311304632
-0.7555477315987636,-0.7555477315987636
-0.6804389385375601,-0.6804389385375601
-0.591938655240638,-0.591938655240638
-0.48888240429619595,-0.48888240429619595
-0.3829149598222498,-0.3829149598222498
-0.28568109593681573,-0.28568109593681573
-0.1919406642867865,-0.1919406642867865
-0.09354232298955081,-0.09354232298955081
0.008349450543089675,0.008349450543089675
0.0933563016046069,0.0933563016046069
0.15099793348878637,0.15099793348878637
0.18826121066643775,0.18826121066643775
0.22028433949098192,0.22028433949098192
0.24532060384471643,0.24532060384471643
0.2604588101981373,0.2604588101981373
0.26453448113944295,0.26453448113944295
0.2674456746689469,0.2674456746689469
0.26628119725714533,0.26628119725714533
0.2575476166686333,0.2575476166686333
0.2400804554916092,0.2400804554916092
0.2191198620791803,0.2191198620791803
0.19175464290184258,0.19175464290184258
0.1591492753713976,0.1591492753713976
0.12537943042915106,0.12537943042915106
0.09976092736951572,0.09976092736951572
0.08171152748659084,0.08171152748659084
0.06715555983907076,0.06715555983907076
0.05085287607384828,0.05085287607384828
0.03629690842632821,0.03629690842632821
0.02581661172011376,0.02581661172011376
0.02174094077880814,0.02174094077880814
0.02348765689651055,0.02348765689651055
0.026981089131915367,0.026981089131915367
0.02581661172011376,0.02581661172011376
0.014754076307998507,0.014754076307998507
-0.0044598009867279865,-0.0044598009867279865
-0.02600263310505769,-0.02600263310505769
-0.04172307816437937,-0.04172307816437937
-0.0492921813410898,-0.0492921813410898
-0.05336785228239542,-0.05336785228239542
-0.06792381992991549,-0.06792381992991549
-0.09936471004855883,-0.09936471004855883
-0.1337167936967062,-0.1337167936967062
-0.14710828393242467,-0.14710828393242467
-0.14012141946161502,-0.14012141946161502
-0.1331345549908054,-0.1331345549908054
-0.14419709040292064,-0.14419709040292064
-0.16049977416814312,-0.16049977416814312
-0.16457544510944874,-0.16457544510944874
-0.15758858063863912,-0.15758858063863912
-0.15001947746192867,-0.15001947746192867
-0.14128589687341664,-0.14128589687341664
-0.1278944066376982,-0.1278944066376982
-0.1127562002842773,-0.1127562002842773
-0.10052918746036044,-0.10052918746036044
-0.08422650369513797,-0.08422650369513797
-0.056279045811899436,-0.056279045811899436
-0.025420394399156887,-0.025420394399156887
-0.010282188045736015,-0.010282188045736015
-0.013775620281140832,-0.013775620281140832
-0.021926962163752072,-0.021926962163752072
-0.016104575104744043,-0.016104575104744043
0.0031093021899824503,0.0031093021899824503
0.024652134308312156,0.024652134308312156
0.03862586324993142,0.03862586324993142
0.04735944383844346,0.04735944383844346
0.0555107857210547,0.0555107857210547
0.06424436630956674,0.06424436630956674
0.06890227595677317,0.06890227595677317
0.06773779854497157,0.06773779854497157
0.06540884372136835,0.06540884372136835
0.06948451466267397,0.06948451466267397
0.08054705007478924,0.08054705007478924
0.09160958548690448,0.09160958548690448
0.0956852564282101,0.0956852564282101
0.0939385403105077,0.0939385403105077
0.0933563016046069,0.0933563016046069
0.10034316607541653,0.10034316607541653
0.10849450795802777,0.10849450795802777
0.10733003054622617,0.10733003054622617
0.0939385403105077,0.0939385403105077
0.08112928878069003,0.08112928878069003
0.07821809525118602,0.07821809525118602
0.08462272101609486,0.08462272101609486
0.08986286936920208,0.08986286936920208
0.08811615325149967,0.08811615325149967
0.07880033395708683,0.07880033395708683
0.06599108242726916,0.06599108242726916
0.05259959219155069,0.05259959219155069
0.04270153419123704,0.04270153419123704
0.03513243101452661,0.03513243101452661
0.028727805249617773,0.028727805249617773
0.02348765689651055,0.02348765689651055
0.026981089131915367,0.026981089131915367
0.040954818073534634,0.040954818073534634
0.05842197925055872,0.05842197925055872
0.07006675336857478,0.07006675336857478
0.075306901721682,0.075306901721682
0.07763585654528522,0.07763585654528522
0.08229376619249164,0.08229376619249164
0.08928063066330127,0.08928063066330127
0.09917868866361493,0.09917868866361493
0.11198794019343258,0.11198794019343258
0.12829062395865506,0.12829062395865506
0.14226435290027434,0.14226435290027434
0.15099793348878637,0.15099793348878637
0.1544913657241912,0.1544913657241912
0.15856703666549682,0.15856703666549682
0.16206046890090162,0.16206046890090162
0.16147823019500082,0.16147823019500082
0.15274464960648879,0.15274464960648879
0.14692226254748075,0.14692226254748075
0.15158017219468717,0.15158017219468717
0.17428748172481848,0.17428748172481848
0.19990598478445382,0.19990598478445382
0.22668896525589075,0.22668896525589075
0.237751500668006,0.237751500668006
0.237751500668006,0.237751500668006
0.22377777172638671,0.22377777172638671
0.21446195243197388,0.21446195243197388
0.21504419113787468,0.21504419113787468
0.22203105560868433,0.22203105560868433
0.22843568137359316,0.22843568137359316
0.22552448784408913,0.22552448784408913
0.2197021007850811,0.2197021007850811
0.22377777172638671,0.22377777172638671
0.2604588101981373,0.2604588101981373
0.3413899903183489,0.3413899903183489
0.4753048926755335,0.4753048926755335
0.6843285880939217,0.6843285880939217
1.0208625601045858,1.0208625601045858
1.5384727696503995,1.5384727696503995
2.2191098168484378,2.2191098168484378
2.925947605812013,2.925947605812013
3.4552025894758427,3.4552025894758427
3.6816934460712547,3.6816934460712547
3.6386077818345957,3.6386077818345957
3.394649764062159,3.394649764062159
2.877039554516345,2.877039554516345
1.9221680768390286,1.9221680768390286
0.5626406985606539,0.5626406985606539
-0.8190117505419512,-0.8190117505419512
-1.7389489058652197,-1.7389489058652197
-1.9980451299910769,-1.9980451299910769
-1.7930971055139944,-1.7930971055139944
-1.4536519399738261,-1.4536519399738261
-1.1602036321998217,-1.1602036321998217
-0.8935383048972539,-0.8935383048972539
-0.5884452230052333,-0.5884452230052333
-0.27054288958339484,-0.27054288958339484
-0.04579874910568499,-0.04579874910568499
0.020576463367006536,0.020576463367006536
-0.019015768634248056,-0.019015768634248056
-0.05336785228239542,-0.05336785228239542
-0.03881188463487535,-0.03881188463487535
-0.008535471928033606,-0.008535471928033606
-0.010282188045736015,-0.010282188045736015
-0.019598007340148858,-0.019598007340148858
-0.009699949339835211,-0.009699949339835211
0.018247508543403325,0.018247508543403325
0.02581661172011376,0.02581661172011376
0.008931689248990479,0.008931689248990479
-0.013193381575240028,-0.013193381575240028
-0.03007830404636331,-0.03007830404636331
-0.0492921813410898,-0.0492921813410898
-0.08597321981284037,-0.08597321981284037
-0.12672992922589657,-0.12672992922589657
-0.16049977416814312,-0.16049977416814312
-0.18553603852187767,-0.18553603852187767
-0.2158124512287194,-0.2158124512287194
-0.255404683229974,-0.255404683229974
-0.2973258700548318,-0.2973258700548318
-0.326437805349872,-0.326437805349872
-0.34274048911509447,-0.34274048911509447
-0.3555497406449121,-0.3555497406449121
-0.3718524244101346,-0.3718524244101346
-0.3893195855871587,-0.3893195855871587
-0.40271107582287713,-0.40271107582287713
-0.40620450805828195,-0.40620450805828195
-0.40038212099927395,-0.40038212099927395
-0.3922307791166627,-0.3922307791166627
-0.3968886887638691,-0.3968886887638691
-0.41144465641138916,-0.41144465641138916
-0.4190137595880996,-0.4190137595880996
-0.4096979402936868,-0.4096979402936868
-0.3939774952343651,-0.3939774952343651
-0.38058600499864664,-0.38058600499864664
-0.36661227605702734,-0.36661227605702734
-0.34914511488000327,-0.34914511488000327
-0.3375003407619872,-0.3375003407619872
-0.335171385938384,-0.335171385938384
-0.33226019240888,-0.33226019240888
-0.31828646346726075,-0.31828646346726075
-0.3060594506433439,-0.3060594506433439
-0.3124640764082527,-0.3124640764082527
-0.3363358633501856,-0.3363358633501856
-0.3619543664098209,-0.3619543664098209
-0.3829149598222498,-0.3829149598222498
-0.40154659841107554,-0.40154659841107554
-0.4172670434703972,-0.4172670434703972
-0.4242539079412068,-0.4242539079412068
-0.4201782369999012,-0.4201782369999012
-0.41144465641138916,-0.41144465641138916
-0.40504003064648036,-0.40504003064648036
-0.40445779194057957,-0.40445779194057957
-0.4032933145287779,-0.4032933145287779
-0.3939774952343651,-0.3939774952343651
-0.37068794699833296,-0.37068794699833296
-0.338082579467888,-0.338082579467888
-0.3008193022902366,-0.3008193022902366
-0.2600625928771804,-0.2600625928771804
-0.20649663193430656,-0.20649663193430656
-0.13837470334391264,-0.13837470334391264
-0.06035471675320506,-0.06035471675320506
0.018829747249304127,0.018829747249304127
0.09859644995771412,0.09859644995771412
0.1783631526661241,0.1783631526661241
0.2569653779627325,0.2569653779627325
0.332074171023936,0.332074171023936
0.40601848667333795,0.40601848667333795
0.48112727973454156,0.48112727973454156
0.5521604018544395,0.5521604018544395
0.6103842724445198,0.6103842724445198
0.6523054592693776,0.6523054592693776
0.6790884397408145,0.6790884397408145
0.6936444073883345,0.6936444073883345
0.701213510565045,0.701213510565045
0.712858284683061,0.712858284683061
0.7291609684482835,0.7291609684482835
0.7437169360958036,0.7437169360958036
0.74837484574301,0.74837484574301
0.7448814135076052,0.7448814135076052
0.7402235038603988,0.7402235038603988
0.7355655942131923,0.7355655942131923
0.7233385813892755,0.7233385813892755
0.698302317035541,0.698302317035541
0.6639502333873937,0.6639502333873937
0.6295981497392462,0.6295981497392462
0.5999039757383053,0.5999039757383053
0.5766144275022732,0.5766144275022732
0.5603117437370507,0.5603117437370507
0.5533248792662411,0.5533248792662411
0.5539071179721419,0.5539071179721419
0.556818311501646,0.556818311501646
0.556236072795745,0.556236072795745
0.556236072795745,0.556236072795745
0.5544893566780427,0.5544893566780427
0.5486669696190347,0.5486669696190347
0.535857718089217,0.535857718089217
0.5247951826771018,0.5247951826771018
0.5189727956180937,0.5189727956180937
0.5143148859708873,0.5143148859708873
0.503252350558772,0.503252350558772
0.491607576440756,0.491607576440756
0.48753190549945036,0.48753190549945036
0.491607576440756,0.491607576440756
0.4910253377348552,0.4910253377348552
0.4799628023227399,0.4799628023227399
0.46016668632211266,0.46016668632211266
0.444446241262791,0.444446241262791
0.43105475102707247,0.43105475102707247
0.4100941576146436,0.4100941576146436
0.37457759655469464,0.37457759655469464
0.332074171023936,0.332074171023936
0.2936464164344831,0.2936464164344831
0.2622055263158397,0.2622055263158397
0.23018239749129557,0.23018239749129557
0.19408359772544578,0.19408359772544578
0.15274464960648879,0.15274464960648879
0.11257017889933339,0.11257017889933339
0.08112928878069003,0.08112928878069003
0.06540884372136835,0.06540884372136835
0.06191541148596354,0.06191541148596354
0.06191541148596354,0.06191541148596354
0.05783974054465792,0.05783974054465792
0.056093024426955504,0.056093024426955504
0.05783974054465792,0.05783974054465792
0.05783974054465792,0.05783974054465792
0.05085287607384828,0.05085287607384828
0.045030489014840254,0.045030489014840254
0.04852392125024507,0.04852392125024507
0.05842197925055872,0.05842197925055872
0.06307988889776514,0.06307988889776514
0.05900421795645952,0.05900421795645952
0.049688398662046676,0.049688398662046676
0.040954818073534634,0.040954818073534634
0.033967953602725,0.033967953602725
0.02931004395551858,0.02931004395551858
0.030474521367320182,0.030474521367320182
0.03862586324993142,0.03862586324993142
0.04852392125024507,0.04852392125024507
0.056093024426955504,0.056093024426955504
0.061333172780062735,0.061333172780062735
0.07006675336857478,0.07006675336857478
0.07880033395708683,0.07880033395708683
0.07705361783938441,0.07705361783938441
0.05783974054465792,0.05783974054465792
0.030474521367320182,0.030474521367320182
0.008931689248990479,0.008931689248990479
-0.002130846163124775,-0.002130846163124775
-0.006788755810331198,-0.006788755810331198
-0.010864426751636817,-0.010864426751636817
-0.016104575104744043,-0.016104575104744043
-0.022509200869652874,-0.022509200869652874
-0.026584871810958494,-0.026584871810958494
-0.023091439575553676,-0.023091439575553676
-0.010864426751636817,-0.010864426751636817
0.006020495719486464,0.006020495719486464
0.018247508543403325,0.018247508543403325
0.022905418190609747,0.022905418190609747
0.02174094077880814,0.02174094077880814
0.015918553719800114,0.015918553719800114
0.007767211837188873,0.007767211837188873
-0.002130846163124775,-0.002130846163124775
-0.014940097692942437,-0.014940097692942437
-0.032407258869966524,-0.032407258869966524
-0.05103889745879221,-0.05103889745879221
-0.06210143287090746,-0.06210143287090746
-0.06384814898860987,-0.06384814898860987
-0.06326591028270907,-0.06326591028270907
-0.06501262640041149,-0.06501262640041149
-0.06501262640041149,-0.06501262640041149
-0.06151919416500666,-0.06151919416500666
-0.06093695545910586,-0.06093695545910586
-0.07025277475351871,-0.07025277475351871
-0.08539098110693957,-0.08539098110693957
-0.10169366487216205,-0.10169366487216205
-0.11799634863738452,-0.11799634863738452
-0.13429903240260702,-0.13429903240260702
-0.14128589687341664,-0.14128589687341664
-0.1348812711085078,-0.1348812711085078
-0.12498321310819416,-0.12498321310819416
-0.12207201957869014,-0.12207201957869014
-0.12381873569639255,-0.12381873569639255
-0.12032530346098774,-0.12032530346098774
-0.10693381322526928,-0.10693381322526928
-0.0917956068718484,-0.0917956068718484
-0.07723963922432833,-0.07723963922432833
-0.0708350134594195,-0.0708350134594195
-0.06675934251811388,-0.06675934251811388
-0.06559486510631228,-0.06559486510631228
-0.05686128451780024,-0.05686128451780024
-0.05453232969419703,-0.05453232969419703
-0.06675934251811388,-0.06675934251811388
-0.09237784557774921,-0.09237784557774921
-0.10402261969576526,-0.10402261969576526
-0.0906311294600468,-0.0906311294600468
-0.07840411663612994,-0.07840411663612994
-0.08771993593054278,-0.08771993593054278
-0.1115917228724757,-0.1115917228724757
-0.11042724546067409,-0.11042724546067409
-0.06908829734171709,-0.06908829734171709
0.014754076307998507,0.014754076307998507
0.15041569478288558,0.15041569478288558
0.38156446102550423,0.38156446102550423
0.7699176778613397,0.7699176778613397
1.3440050418795313,1.3440050418795313
2.0310467148424785,2.0310467148424785
2.6540421301563377,2.6540421301563377
3.041230869580372,3.041230869580372
3.1530207011133258,3.1530207011133258
3.0598625081691977,3.0598625081691977
2.776894497101407,2.776894497101407
2.1707840042586715,2.1707840042586715
1.120425378813623,1.120425378813623
-0.24375990911195794,-0.24375990911195794
-1.5008132751517913,-1.5008132751517913
-2.2297761349395966,-2.2297761349395966
-2.331667908472237,-2.331667908472237
-2.0609269102283636,-2.0609269102283636
-1.729050847864906,-1.729050847864906
-1.454234178679727,-1.454234178679727
-1.179999748200449,-1.179999748200449
-0.8737421888966266,-0.8737421888966266
-0.6006722358291501,-0.6006722358291501
-0.4440500239418341,-0.4440500239418341
-0.41202689511728996,-0.41202689511728996
-0.4452145013536357,-0.4452145013536357
-0.4754909140604775,-0.4754909140604775
-0.46908628829556864,-0.46908628829556864
-0.44288554653003254,-0.44288554653003254
-0.42250719182350444,-0.42250719182350444
-0.4201782369999012,-0.4201782369999012
-0.41144465641138916,-0.41144465641138916
-0.3928130178225635,-0.3928130178225635
-0.38000376629274585,-0.38000376629274585
-0.38757286946945624,-0.38757286946945624
-0.40271107582287713,-0.40271107582287713
-0.4038755532346787,-0.4038755532346787
-0.40504003064648036,-0.40504003064648036
-0.417849282176298,-0.417849282176298
-0.44754345617723895,-0.44754345617723895
-0.47257972053097347,-0.47257972053097347
-0.4906291204138984,-0.4906291204138984
-0.5046028493555176,-0.5046028493555176
-0.5255634427679465,-0.5255634427679465
-0.5488529910039787,-0.5488529910039787
-0.5698135844164075,-0.5698135844164075
-0.5878629842993325,-0.5878629842993325
-0.6088235777117613,-0.6088235777117613
-0.6303664098300911,-0.6303664098300911
-0.6495802871248175,-0.6495802871248175
-0.657149390301528,-0.657149390301528
-0.657149390301528,-0.657149390301528
-0.6565671515956272,-0.6565671515956272
-0.6664652095959408,-0.6664652095959408
-0.6897547578319729,-0.6897547578319729
-0.7235246027742195,-0.7235246027742195
-0.7526365380692597,-0.7526365380692597
-0.7636990734813749,-0.7636990734813749
-0.7520542993633589,-0.7520542993633589
-0.7328404220686323,-0.7328404220686323
-0.7182844544211122,-0.7182844544211122
-0.7165377383034098,-0.7165377383034098
-0.7235246027742195,-0.7235246027742195
-0.739827286539442,-0.739827286539442
-0.7584589251282676,-0.7584589251282676
-0.7753438475993909,-0.7753438475993909
-0.7893175765410102,-0.7893175765410102
-0.8137716021888439,-0.8137716021888439
-0.8527815954841977,-0.8527815954841977
-0.8970317371326587,-0.8970317371326587
-0.9290548659572029,-0.9290548659572029
-0.9500154593696318,-0.9500154593696318
-0.9698115753702591,-0.9698115753702591
-0.996594555841696,-0.996594555841696
-1.022795297607232,-1.022795297607232
-1.0402624587842562,-1.0402624587842562
-1.046667084549165,-1.046667084549165
-1.0507427554904707,-1.0507427554904707
-1.0588940973730818,-1.0588940973730818
-1.0687921553733954,-1.0687921553733954
-1.0693743940792964,-1.0693743940792964
-1.055982903843578,-1.055982903843578
-1.0268709685485378,-1.0268709685485378
-0.9855320204295808,-0.9855320204295808
-0.9383706852516157,-0.9383706852516157
-0.8900448726618491,-0.8900448726618491
-0.8376433891307768,-0.8376433891307768
-0.7753438475993909,-0.7753438475993909
-0.7008172932440881,-0.7008172932440881
-0.6210505905356782,-0.6210505905356782
-0.5395371717095658,-0.5395371717095658
-0.45278360453034616,-0.45278360453034616
-0.3543852632331105,-0.3543852632331105
-0.24958229617096597,-0.24958229617096597
-0.14885500005012708,-0.14885500005012708
-0.06151919416500666,-0.06151919416500666
0.014171837602097705,0.014171837602097705
0.07763585654528522,0.07763585654528522
0.12654390784095265,0.12654390784095265
0.1544913657241912,0.1544913657241912
0.16904733337171127,0.16904733337171127
0.18418553972513213,0.18418553972513213
0.21038628149066826,0.21038628149066826
0.23542254584440278,0.23542254584440278
0.24590284255061723,0.24590284255061723
0.23367582972670037,0.23367582972670037
0.21213299760837068,0.21213299760837068
0.19233688160774337,0.19233688160774337
0.17952763007792572,0.17952763007792572
0.16555390113630644,0.16555390113630644
0.15041569478288558,0.15041569478288558
0.1358597271353655,0.1358597271353655
0.12887286266455586,0.12887286266455586
0.12712614654685345,0.12712614654685345
0.12246823689964703,0.12246823689964703
0.10674779184032536,0.10674779184032536
0.08404048231019405,0.08404048231019405
0.06424436630956674,0.06424436630956674
0.05259959219155069,0.05259959219155069
0.04328377289713784,0.04328377289713784
0.03163899877912179,0.03163899877912179
0.020576463367006536,0.020576463367006536
0.014754076307998507,0.014754076307998507
0.010096166660792084,0.010096166660792084
-0.009699949339835211,-0.009699949339835211
-0.052203374870593816,-0.052203374870593816
-0.10576933581346767,-0.10576933581346767
-0.14652604522652388,-0.14652604522652388
-0.16748663863895277,-0.16748663863895277
-0.18262484499237364,-0.18262484499237364
-0.20882558675790977,-0.20882558675790977
-0.24492438652375953,-0.24492438652375953
-0.2752007992306013,-0.2752007992306013
-0.2920857217017246,-0.2920857217017246
-0.3008193022902366,-0.3008193022902366
-0.3124640764082527,-0.3124640764082527
-0.326437805349872,-0.326437805349872
-0.3363358633501856,-0.3363358633501856
-0.33458914723248323,-0.33458914723248323
-0.32410885052626875,-0.32410885052626875
-0.3136285538200543,-0.3136285538200543
-0.3101351215846495,-0.3101351215846495
-0.3072239280551455,-0.3072239280551455
-0.29499691523122856,-0.29499691523122856
-0.2763652766424029,-0.2763652766424029
-0.27054288958339484,-0.27054288958339484
-0.28335214111321255,-0.28335214111321255
-0.29907258617253424,-0.29907258617253424
-0.30023706358433583,-0.30023706358433583
-0.28801005076041897,-0.28801005076041897
-0.2769475153483037,-0.2769475153483037
-0.27461856052470046,-0.27461856052470046
-0.2752007992306013,-0.2752007992306013
-0.2752007992306013,-0.2752007992306013
-0.2711251282892957,-0.2711251282892957
-0.26355602511258525,-0.26355602511258525
-0.25307572840637077,-0.25307572840637077
-0.24608886393556115,-0.24608886393556115
-0.24492438652375953,-0.24492438652375953
-0.24608886393556115,-0.24608886393556115
-0.24259543170015632,-0.24259543170015632
-0.2367730446411483,-0.2367730446411483
-0.2356085672293467,-0.2356085672293467
-0.23910199946475152,-0.23910199946475152
-0.24550662522966035,-0.24550662522966035
-0.24317767040605714,-0.24317767040605714
-0.24026647687655311,-0.24026647687655311
-0.2367730446411483,-0.2367730446411483
-0.23910199946475152,-0.23910199946475152
-0.2332796124057435,-0.2332796124057435
-0.21639468993462022,-0.21639468993462022
-0.1896117094631833,-0.1896117094631833
-0.16282872899174633,-0.16282872899174633
-0.1517661935796311,-0.1517661935796311
-0.1511839548737303,-0.1511839548737303
-0.15467738710913512,-0.15467738710913512
-0.14361485169701985,-0.14361485169701985
-0.1115917228724757,-0.1115917228724757
-0.048127703929288196,-0.048127703929288196
0.05958645666236032,0.05958645666236032
0.25405418443322847,0.25405418443322847
0.5958283047969997,0.5958283047969997
1.132070152931639,1.132070152931639
1.8045558582470664,1.8045558582470664
2.43046246709043,2.43046246709043
2.810082103337753,2.810082103337753
2.9044047736936833,2.9044047736936833
2.8118288194554553,2.8118288194554553
2.5719464726243246,2.5719464726243246
2.038615818019189,2.038615818019189
1.0639482243412453,1.0639482243412453
-0.2379375220529499,-0.2379375220529499
-1.468790146327247,-1.468790146327247
-2.2321050897631998,-2.2321050897631998
-2.4155102821219523,-2.4155102821219523
-2.2082333028212666,-2.2082333028212666
-1.8781039565755115,-1.8781039565755115
-1.5642772940949787,-1.5642772940949787
-1.2591842122029582,-1.2591842122029582
-0.9348772530162109,-0.9348772530162109
-0.6315308872418927,-0.6315308872418927
-0.4341519659415205,-0.4341519659415205
-0.38058600499864664,-0.38058600499864664
-0.42192495311760364,-0.42192495311760364
-0.47316195923687426,-0.47316195923687426
-0.47840210758998153,-0.47840210758998153
-0.45278360453034616,-0.45278360453034616
-0.4353164433533221,-0.4353164433533221
-0.44696121747133816,-0.44696121747133816
-0.456277036765751,-0.456277036765751
-0.4452145013536357,-0.4452145013536357
-0.423671669235306,-0.423671669235306
-0.4184315208821988,-0.4184315208821988
-0.42716510147071085,-0.42716510147071085
-0.42658286276481006,-0.42658286276481006
-0.4131913725290916,-0.4131913725290916
-0.3951419726461667,-0.3951419726461667
-0.3957242113520675,-0.3957242113520675
-0.4137736112349924,-0.4137736112349924
-0.4411388304123301,-0.4411388304123301
-0.46209942382475905,-0.46209942382475905
-0.47257972053097347,-0.47257972053097347
-0.4754909140604775,-0.4754909140604775
-0.48306001723718794,-0.48306001723718794
-0.4981982235906088,-0.4981982235906088
-0.5168298621794345,-0.5168298621794345
-0.5348792620623594,-0.5348792620623594
-0.5593332877101931,-0.5593332877101931
-0.5901919391229357,-0.5901919391229357
-0.6204683518297774,-0.6204683518297774
-0.6350243194772974,-0.6350243194772974
-0.636188796889099,-0.636188796889099
-0.6338598420654958,-0.6338598420654958
-0.6431756613599087,-0.6431756613599087
-0.6588961064192304,-0.6588961064192304
-0.6722875966549489,-0.6722875966549489
-0.6757810288903536,-0.6757810288903536
-0.6757810288903536,-0.6757810288903536
-0.6769455063021552,-0.6769455063021552
-0.6827678933611633,-0.6827678933611633
-0.6885902804201713,-0.6885902804201713
-0.6979060997145842,-0.6979060997145842
-0.7147910221857074,-0.7147910221857074
-0.7427384800689459,-0.7427384800689459
-0.7712681766580853,-0.7712681766580853
-0.7933932474823159,-0.7933932474823159
-0.8050380216003319,-0.8050380216003319
-0.8120248860711415,-0.8120248860711415
-0.8184295118360504,-0.8184295118360504
-0.8254163763068599,-0.8254163763068599
-0.8300742859540664,-0.8300742859540664
-0.8347321956012729,-0.8347321956012729
-0.8376433891307768,-0.8376433891307768
-0.834149956895372,-0.834149956895372
-0.8161005570124471,-0.8161005570124471
-0.7846596668938037,-0.7846596668938037
-0.7497253445397556,-0.7497253445397556
-0.7217778866565171,-0.7217778866565171
-0.6996528158322866,-0.6996528158322866
-0.6711231192431473,-0.6711231192431473
-0.6268729775946862,-0.6268729775946862
-0.57156030053411,-0.57156030053411
-0.5127541912381288,-0.5127541912381288
-0.45220136582444537,-0.45220136582444537
-0.38233272111634903,-0.38233272111634903
-0.30198377970203827,-0.30198377970203827
-0.22047036087592584,-0.22047036087592584
-0.14943723875602788,-0.14943723875602788
-0.0906311294600468,-0.0906311294600468
-0.03822964592897455,-0.03822964592897455
0.01766526983750252,0.01766526983750252
0.0747246630157812,0.0747246630157812
0.12421495301734944,0.12421495301734944
0.1568203205477944,0.1568203205477944
0.17254076560711606,0.17254076560711606
0.17894539137202492,0.17894539137202492
0.18709673325463616,0.18709673325463616
0.1981592686667514,0.1981592686667514
0.20980404278476747,0.20980404278476747
0.21562642984377547,0.21562642984377547
0.22028433949098192,0.22028433949098192
0.23192911360899796,0.23192911360899796
0.25580090055093085,0.25580090055093085
0.2831661197282686,0.2831661197282686
0.29655760996398706,0.29655760996398706
0.28665955196367343,0.28665955196367343
0.2674456746689469,0.2674456746689469
0.2592943327863357,0.2592943327863357
0.2674456746689469,0.2674456746689469
0.279090448786963,0.279090448786963
0.2814194036105662,0.2814194036105662
0.2796726874928638,0.2796726874928638
0.2802549261987646,0.2802549261987646
0.2802549261987646,0.2802549261987646
0.2726858230220542,0.2726858230220542
0.2633700037276413,0.2633700037276413
0.25172522960962523,0.25172522960962523
0.23484030713850199,0.23484030713850199
0.20165270090215623,0.20165270090215623
0.17254076560711606,0.17254076560711606
0.1597315140772984,0.1597315140772984
0.17370524301891768,0.17370524301891768
0.18651449454873534,0.18651449454873534
0.18651449454873534,0.18651449454873534
0.17195852690121527,0.17195852690121527
0.16147823019500082,0.16147823019500082
0.16380718501860403,0.16380718501860403
0.16322494631270323,0.16322494631270323
0.1556558431359928,0.1556558431359928
0.15274464960648879,0.15274464960648879
0.1783631526661241,0.1783631526661241
0.2424094103152124,0.2424094103152124
0.3472123773773569,0.3472123773773569
0.503252350558772,0.503252350558772
0.7349833555072915,0.7349833555072915
1.0948068757539877,1.0948068757539877
1.645604691536147,1.645604691536147
2.380972177088861,2.380972177088861
3.1454515979366153,3.1454515979366153
3.684604639600759,3.684604639600759
3.8138616323107373,3.8138616323107373
3.5384627244196576,3.5384627244196576
2.9719444635781764,2.9719444635781764
2.1702017655527706,2.1702017655527706
1.1029582176365988,1.1029582176365988
-0.16399320640354795,-0.16399320640354795
-1.3238127085579472,-1.3238127085579472
-1.982324684931755,-1.982324684931755
-1.992222742932069,-1.992222742932069
-1.584073410095606,-1.584073410095606
-1.1153712518454597,-1.1153712518454597
-0.7683569831285813,-0.7683569831285813
-0.5209055331207401,-0.5209055331207401
-0.3153752699377567,-0.3153752699377567
-0.1529306709914327,-0.1529306709914327
-0.04579874910568499,-0.04579874910568499
0.006020495719486464,0.006020495719486464
0.008349450543089675,0.008349450543089675
-0.03357173628176813,-0.03357173628176813
-0.08189754887153475,-0.08189754887153475
-0.10635157451936847,-0.10635157451936847
-0.09878247134265804,-0.09878247134265804
-0.09470680040135242,-0.09470680040135242
-0.10169366487216205,-0.10169366487216205
-0.11683187122558292,-0.11683187122558292
-0.12498321310819416,-0.12498321310819416
-0.12731216793179737,-0.12731216793179737
-0.13138783887310299,-0.13138783887310299
-0.13721022593211102,-0.13721022593211102
-0.14245037428521826,-0.14245037428521826
-0.1337167936967062,-0.1337167936967062
-0.11741410993148373,-0.11741410993148373
-0.09936471004855883,-0.09936471004855883
-0.08830217463644359,-0.08830217463644359
-0.08073307145973314,-0.08073307145973314
-0.07432844569482433,-0.07432844569482433
-0.0696705360476179,-0.0696705360476179
-0.07199949087122111,-0.07199949087122111
-0.08247978757743556,-0.08247978757743556
-0.09470680040135242,-0.09470680040135242
-0.10111142616626125,-0.10111142616626125
-0.09878247134265804,-0.09878247134265804
-0.09470680040135242,-0.09470680040135242
-0.09761799393085643,-0.09761799393085643
-0.10984500675477328,-0.10984500675477328
-0.12381873569639255,-0.12381873569639255
-0.12964112275540057,-0.12964112275540057
-0.12090754216688854,-0.12090754216688854
-0.10460485840166606,-0.10460485840166606
-0.09354232298955081,-0.09354232298955081
-0.09412456169545161,-0.09412456169545161
-0.10344038098986445,-0.10344038098986445
-0.10868052934297168,-0.10868052934297168
-0.10460485840166606,-0.10460485840166606
-0.09587127781315402,-0.09587127781315402
-0.09412456169545161,-0.09412456169545161
-0.09994694875445964,-0.09994694875445964
-0.10227590357806285,-0.10227590357806285
-0.09703575522495562,-0.09703575522495562
-0.09237784557774921,-0.09237784557774921
-0.10111142616626125,-0.10111142616626125
-0.12148978087278935,-0.12148978087278935
-0.13837470334391264,-0.13837470334391264
-0.13895694204981343,-0.13895694204981343
-0.1302233614613014,-0.1302233614613014
-0.12672992922589657,-0.12672992922589657
-0.13953918075571423,-0.13953918075571423
-0.16108201287404394,-0.16108201287404394
-0.17796693534516722,-0.17796693534516722
-0.17971365146286963,-0.17971365146286963
-0.16690439993305195,-0.16690439993305195
-0.14361485169701985,-0.14361485169701985
-0.11566739381378131,-0.11566739381378131
-0.08306202628333635,-0.08306202628333635
-0.039976362046676955,-0.039976362046676955
0.024652134308312156,0.024652134308312156
0.10325435960492055,0.10325435960492055
0.1806921074897273,0.1806921074897273
0.24532060384471643,0.24532060384471643
0.3070379066702015,0.3070379066702015
0.3757420739664962,0.3757420739664962
0.44619295738049336,0.44619295738049336
0.4939365312643592,0.4939365312643592
0.5096569763236809,0.5096569763236809
0.5084924989118793,0.5084924989118793
0.5166438407944905,0.5166438407944905
0.5352754793833162,0.5352754793833162
0.5440090599718282,0.5440090599718282
0.5259596600889034,0.5259596600889034
0.49451876997026,0.49451876997026
0.46715355079292226,0.46715355079292226
0.45143310573360057,0.45143310573360057
0.44211728643918774,0.44211728643918774
0.4479396734981958,0.4479396734981958
0.46249564114571584,0.46249564114571584
0.48287399585224394,0.48287399585224394
0.4852029506758472,0.4852029506758472
0.4793805636168391,0.4793805636168391
0.4729759378519303,0.4729759378519303
0.4782160862050375,0.4782160862050375
0.4846207119699463,0.4846207119699463
0.4910253377348552,0.4910253377348552
0.4991766796174664,0.4991766796174664
0.506163544088276,0.506163544088276
0.5183905569121929,0.5183905569121929
0.5422623438541259,0.5422623438541259
0.5847657693848844,0.5847657693848844
0.6470653109162703,0.6470653109162703
0.7477926070371093,0.7477926070371093
0.9201352639837469,0.9201352639837469
1.1949519331689258,1.1949519331689258
1.6054302208289917,1.6054302208289917
2.188833404141596,2.188833404141596
2.9189607413412033,2.9189607413412033
3.6182294271280675,3.6182294271280675
4.037441295376645,4.037441295376645
4.04792159208286,4.04792159208286
3.710805381366295,3.710805381366295
3.108770559464865,3.108770559464865
2.208047281436323,2.208047281436323
0.9737012249266207,0.9737012249266207
-0.3887373468812579,-0.3887373468812579
-1.4437538819735125,-1.4437538819735125
-1.8420051568096616,-1.8420051568096616
-1.6230834033909598,-1.6230834033909598
-1.1479766193759047,-1.1479766193759047
-0.74564967359845,-0.74564967359845
-0.48713568817849356,-0.48713568817849356
-0.2920857217017246,-0.2920857217017246
-0.12731216793179737,-0.12731216793179737
-0.0283315879286609,-0.0283315879286609
0.001362586072280042,0.001362586072280042
0.0019448247781808448,0.0019448247781808448
-0.005042039692628789,-0.005042039692628789
-0.031242781458164916,-0.031242781458164916
-0.056279045811899436,-0.056279045811899436
-0.059772478047304255,-0.059772478047304255
-0.03881188463487535,-0.03881188463487535
-0.03007830404636331,-0.03007830404636331
-0.03764740722307375,-0.03764740722307375
-0.05395009098829623,-0.05395009098829623
-0.06617710381221309,-0.06617710381221309
-0.08015083275383235,-0.08015083275383235
-0.09354232298955081,-0.09354232298955081
-0.09761799393085643,-0.09761799393085643
-0.09761799393085643,-0.09761799393085643
-0.09994694875445964,-0.09994694875445964
-0.11741410993148373,-0.11741410993148373
-0.14012141946161502,-0.14012141946161502
-0.1535129096973335,-0.1535129096973335
-0.15001947746192867,-0.15001947746192867
-0.14186813557931743,-0.14186813557931743
-0.14245037428521826,-0.14245037428521826
-0.15001947746192867,-0.15001947746192867
-0.1529306709914327,-0.1529306709914327
-0.14885500005012708,-0.14885500005012708
-0.14186813557931743,-0.14186813557931743
-0.13662798722621022,-0.13662798722621022
-0.12614769051999578,-0.12614769051999578
-0.10984500675477328,-0.10984500675477328
-0.09761799393085643,-0.09761799393085643
-0.10111142616626125,-0.10111142616626125
-0.11974306475508693,-0.11974306475508693
-0.13953918075571423,-0.13953918075571423
-0.14710828393242467,-0.14710828393242467
-0.14652604522652388,-0.14652604522652388
-0.1511839548737303,-0.1511839548737303
-0.16981559346255598,-0.16981559346255598
-0.1977630513457945,-0.1977630513457945
-0.22454603181723143,-0.22454603181723143
-0.24492438652375953,-0.24492438652375953
-0.2618093089948828,-0.2618093089948828
-0.2821876637014109,-0.2821876637014109
-0.3078061667610463,-0.3078061667610463
-0.3328424311147808,-0.3328424311147808
-0.34565168264459845,-0.34565168264459845
-0.34565168264459845,-0.34565168264459845
-0.34041153429149124,-0.34041153429149124
-0.33866481817378885,-0.33866481817378885
-0.33458914723248323,-0.33458914723248323
-0.32294437311446716,-0.32294437311446716
-0.30373049581974065,-0.30373049581974065
-0.28393437981911335,-0.28393437981911335
-0.26530274123028763,-0.26530274123028763
-0.24259543170015632,-0.24259543170015632
-0.21115454158151298,-0.21115454158151298
-0.16923335475665519,-0.16923335475665519
-0.11741410993148373,-0.11741410993148373
-0.055696807105998634,-0.055696807105998634
0.014171837602097705,0.014171837602097705
0.08928063066330127,0.08928063066330127
0.16438942372450485,0.16438942372450485
0.23484030713850199,0.23484030713850199
0.29481089384628467,0.29481089384628467
0.33964327420064644,0.33964327420064644
0.3670084933779842,0.3670084933779842
0.37981774490780185,0.37981774490780185
0.38039998361370264,0.38039998361370264
0.3728308804369922,0.3728308804369922
0.35769267408357136,0.35769267408357136
0.33498536455344,0.33498536455344
0.3105313389056063,0.3105313389056063
0.2884062680813758,0.2884062680813758
0.26861015208074857,0.26861015208074857
0.24357388772701402,0.24357388772701402
0.20572837184346185,0.20572837184346185
0.16147823019500082,0.16147823019500082
0.12654390784095265,0.12654390784095265
0.11024122407573017,0.11024122407573017
0.10849450795802777,0.10849450795802777
0.10965898536982938,0.10965898536982938
0.11024122407573017,0.11024122407573017
0.11315241760523419,0.11315241760523419
0.12421495301734944,0.12421495301734944
0.14925121737108396,0.14925121737108396
0.18767897196053696,0.18767897196053696
0.22843568137359316,0.22843568137359316
0.25114299090372444,0.25114299090372444
0.24357388772701402,0.24357388772701402
0.2191198620791803,0.2191198620791803
0.2010704621962554,0.2010704621962554
0.20223493960805702,0.20223493960805702
0.21155075890246985,0.21155075890246985
0.21329747502017227,0.21329747502017227
0.2033994170198586,0.2033994170198586
0.19408359772544578,0.19408359772544578
0.19175464290184258,0.19175464290184258
0.19175464290184258,0.19175464290184258
0.1806921074897273,0.1806921074897273
0.1556558431359928,0.1556558431359928
0.13120181748815907,0.13120181748815907
0.12246823689964703,0.12246823689964703
0.12363271431144864,0.12363271431144864
0.11548137242883741,0.11548137242883741
0.0933563016046069,0.0933563016046069
0.0729779468980788,0.0729779468980788
0.06540884372136835,0.06540884372136835
0.060750934074161926,0.060750934074161926
0.041537056779435436,0.041537056779435436
0.01126064407259369,0.01126064407259369
-0.013775620281140832,-0.013775620281140832
-0.027167110516859296,-0.027167110516859296
-0.04172307816437937,-0.04172307816437937
-0.06559486510631228,-0.06559486510631228
-0.09528903910725321,-0.09528903910725321
-0.11916082604918614,-0.11916082604918614
-0.13895694204981343,-0.13895694204981343
-0.16632216122715116,-0.16632216122715116
-0.20183872228710012,-0.20183872228710012
-0.22687498664083466,-0.22687498664083466
-0.22338155440542984,-0.22338155440542984
-0.19601633522809211,-0.19601633522809211
-0.16632216122715116,-0.16632216122715116
-0.14536156781472226,-0.14536156781472226
-0.1308056001672022,-0.1308056001672022
-0.11566739381378131,-0.11566739381378131
-0.10169366487216205,-0.10169366487216205
-0.09296008428365,-0.09296008428365
-0.08597321981284037,-0.08597321981284037
-0.07141725216532031,-0.07141725216532031
-0.04638098781158579,-0.04638098781158579
-0.018433529928347254,-0.018433529928347254
-0.0003841300454223664,-0.0003841300454223664
0.0031093021899824503,0.0031093021899824503
0.0019448247781808448,0.0019448247781808448
0.005438257013585661,0.005438257013585661
0.011842882778494494,0.011842882778494494
0.010678405366692886,0.010678405366692886
0.0025270634840816476,0.0025270634840816476
-0.001548607457223972,-0.001548607457223972
0.004273779601784056,0.004273779601784056
0.011842882778494494,0.011842882778494494
0.01533631501389931,0.01533631501389931
0.02232317948470894,0.02232317948470894
0.03804362454403062,0.03804362454403062
0.053181830897451494,0.053181830897451494
0.053764069603352296,0.053764069603352296
0.03979034066173303,0.03979034066173303
0.025234373014212958,0.025234373014212958
0.013589598896196901,0.013589598896196901
0.0025270634840816476,0.0025270634840816476
-0.013193381575240028,-0.013193381575240028
-0.03007830404636331,-0.03007830404636331
-0.04696322651748659,-0.04696322651748659
-0.06268367157680826,-0.06268367157680826
-0.07665740051842752,-0.07665740051842752
-0.08480874240103876,-0.08480874240103876
-0.08480874240103876,-0.08480874240103876
-0.08073307145973314,-0.08073307145973314
-0.08364426498923716,-0.08364426498923716
-0.09878247134265804,-0.09878247134265804
-0.12381873569639255,-0.12381873569639255
-0.14710828393242467,-0.14710828393242467
-0.15875305805044074,-0.15875305805044074
-0.15467738710913512,-0.15467738710913512
-0.14128589687341664,-0.14128589687341664
-0.1302233614613014,-0.1302233614613014
-0.1319700775790038,-0.1319700775790038
-0.14536156781472226,-0.14536156781472226
-0.15875305805044074,-0.15875305805044074
-0.16108201287404394,-0.16108201287404394
-0.15001947746192867,-0.15001947746192867
-0.1337167936967062,-0.1337167936967062
-0.12032530346098774,-0.12032530346098774
-0.10868052934297168,-0.10868052934297168
-0.09412456169545161,-0.09412456169545161
-0.07956859404793154,-0.07956859404793154
-0.0708350134594195,-0.0708350134594195
-0.06559486510631228,-0.06559486510631228
-0.056279045811899436,-0.056279045811899436
-0.044052032987982576,-0.044052032987982576
-0.03939412334077615,-0.03939412334077615
-0.04579874910568499,-0.04579874910568499
-0.051621136164693014,-0.051621136164693014
-0.04463427169388338,-0.04463427169388338
-0.03531845239947053,-0.03531845239947053
-0.03764740722307375,-0.03764740722307375
-0.05103889745879221,-0.05103889745879221
-0.06151919416500666,-0.06151919416500666
-0.06151919416500666,-0.06151919416500666
-0.052203374870593816,-0.052203374870593816
-0.03939412334077615,-0.03939412334077615
-0.032407258869966524,-0.032407258869966524
-0.04172307816437937,-0.04172307816437937
-0.06501262640041149,-0.06501262640041149
-0.08713769722464197,-0.08713769722464197
-0.09820023263675723,-0.09820023263675723
-0.10751605193117007,-0.10751605193117007
-0.12614769051999578,-0.12614769051999578
-0.14827276134422626,-0.14827276134422626
-0.16224649028584553,-0.16224649028584553
-0.16573992252125036,-0.16573992252125036
-0.16457544510944874,-0.16457544510944874
-0.16224649028584553,-0.16224649028584553
-0.15758858063863912,-0.15758858063863912
-0.1540951484032343,-0.1540951484032343
-0.15467738710913512,-0.15467738710913512
-0.15700634193273832,-0.15700634193273832
-0.16166425157994474,-0.16166425157994474
-0.1721445482861592,-0.1721445482861592
-0.18786499334548087,-0.18786499334548087
-0.19601633522809211,-0.19601633522809211
-0.1919406642867865,-0.1919406642867865
-0.18262484499237364,-0.18262484499237364
-0.18320708369827443,-0.18320708369827443
-0.18437156111007605,-0.18437156111007605
-0.18029589016877043,-0.18029589016877043
-0.15758858063863912,-0.15758858063863912
-0.1331345549908054,-0.1331345549908054
-0.11450291640197971,-0.11450291640197971
-0.10984500675477328,-0.10984500675477328
-0.10402261969576526,-0.10402261969576526
-0.08655545851874118,-0.08655545851874118
-0.05860800063550265,-0.05860800063550265
-0.020762484751950465,-0.020762484751950465
0.015918553719800114,0.015918553719800114
0.05085287607384828,0.05085287607384828
0.08578719842789646,0.08578719842789646
0.14692226254748075,0.14692226254748075
0.25463642313912926,0.25463642313912926
0.4170810220854532,0.4170810220854532
0.6488120270339728,0.6488120270339728
1.0103822633983712,1.0103822633983712
1.557686646945126,1.557686646945126
2.2354125006136605,2.2354125006136605
2.8502565740449084,2.8502565740449084
3.2170669587624143,3.2170669587624143
3.305567242059336,3.305567242059336
3.208333378173902,3.208333378173902
2.9381746186359297,2.9381746186359297
2.340215467675805,2.340215467675805
1.2718074423478318,1.2718074423478318
-0.11508515510788052,-0.11508515510788052
-1.3738852372654162,-1.3738852372654162
-2.088874368111602,-2.088874368111602
-2.199499722232755,-2.199499722232755
-1.9607818528134255,-1.9607818528134255
-1.6510308612741984,-1.6510308612741984
-1.3698095663241106,-1.3698095663241106
-1.0827658843150147,-1.0827658843150147
-0.7712681766580853,-0.7712681766580853
-0.4952870300611048,-0.4952870300611048
-0.335171385938384,-0.335171385938384
-0.3130463151141535,-0.3130463151141535
-0.3689412308806306,-0.3689412308806306
-0.4172670434703972,-0.4172670434703972
-0.42541838535300847,-0.42541838535300847
-0.414938088646794,-0.414938088646794
-0.4242539079412068,-0.4242539079412068
-0.44696121747133816,-0.44696121747133816
-0.4655928560601638,-0.4655928560601638
-0.46384613994246143,-0.46384613994246143
-0.4556947980598502,-0.4556947980598502
-0.45220136582444537,-0.45220136582444537
-0.45220136582444537,-0.45220136582444537
-0.4539480819421478,-0.4539480819421478
-0.45278360453034616,-0.45278360453034616
-0.46442837864836223,-0.46442837864836223
-0.48713568817849356,-0.48713568817849356
-0.5220700105325418,-0.5220700105325418
-0.5511819458275818,-0.5511819458275818
-0.5698135844164075,-0.5698135844164075
-0.5750537327695148,-0.5750537327695148
-0.5791294037108204,-0.5791294037108204
-0.5849517907698284,-0.5849517907698284
-0.5931031326524396,-0.5931031326524396
-0.6035834293586541,-0.6035834293586541
-0.624544022771083,-0.624544022771083
-0.6536559580661232,-0.6536559580661232
-0.6850968481847665,-0.6850968481847665
-0.704310725479493,-0.704310725479493
-0.7124620673621043,-0.7124620673621043
-0.7206134092447155,-0.7206134092447155
-0.7444851961866484,-0.7444851961866484
-0.7747616088934901,-0.7747616088934901
-0.7992156345413238,-0.7992156345413238
-0.8096959312475384,-0.8096959312475384
-0.8190117505419512,-0.8190117505419512
-0.8318210020717688,-0.8318210020717688
-0.8446302536015865,-0.8446302536015865
-0.8498704019546937,-0.8498704019546937
-0.8580217438373049,-0.8580217438373049
-0.8749066663084282,-0.8749066663084282
-0.9016896467798652,-0.9016896467798652
-0.9267259111335997,-0.9267259111335997
-0.9517621754873342,-0.9517621754873342
-0.9797096333705727,-0.9797096333705727
-1.008239329959712,-1.008239329959712
-1.0193018653718273,-1.0193018653718273
-1.005910375136109,-1.005910375136109
-0.9767984398410687,-0.9767984398410687
-0.955255607722739,-0.955255607722739
-0.9511799367814334,-0.9511799367814334
-0.9593312786640447,-0.9593312786640447
-0.9692293366643583,-0.9692293366643583
-0.9762162011351679,-0.9762162011351679
-0.9733050076056639,-0.9733050076056639
-0.955255607722739,-0.955255607722739
-0.9238147176040956,-0.9238147176040956
-0.8941205436031547,-0.8941205436031547
-0.8760711437202299,-0.8760711437202299
-0.8597684599550074,-0.8597684599550074
-0.8254163763068599,-0.8254163763068599
-0.7701036992462837,-0.7701036992462837
-0.7031462480676914,-0.7031462480676914
-0.6350243194772974,-0.6350243194772974
-0.562826719945598,-0.562826719945598
-0.48306001723718794,-0.48306001723718794
-0.3922307791166627,-0.3922307791166627
-0.29499691523122856,-0.29499691523122856
-0.1925229029926873,-0.1925229029926873
-0.09004889075414599,-0.09004889075414599
0.00951392795489128,0.00951392795489128
0.10034316607541653,0.10034316607541653
0.17894539137202492,0.17894539137202492
0.24706731996241885,0.24706731996241885
0.3111135776115071,0.3111135776115071
0.3716664030251906,0.3716664030251906
0.42465012526216367,0.42465012526216367
0.45725549279260863,0.45725549279260863
0.4694825056165255,0.4694825056165255
0.47181146044012867,0.47181146044012867
0.47763384749913673,0.47763384749913673
0.48345623455814474,0.48345623455814474
0.4805450410286407,0.4805450410286407
0.46133116373391425,0.46133116373391425
0.4339659445565765,0.4339659445565765
0.4077652027910404,0.4077652027910404
0.3862223706727107,0.3862223706727107
0.36409729984848016,0.36409729984848016
0.33789655808294405,0.33789655808294405
0.3140247711410111,0.3140247711410111
0.2977220873757887,0.2977220873757887
0.28665955196367343,0.28665955196367343
0.27152134561025254,0.27152134561025254
0.24823179737422044,0.24823179737422044
0.22494224913818833,0.22494224913818833
0.21329747502017227,0.21329747502017227
0.21213299760837068,0.21213299760837068
0.21038628149066826,0.21038628149066826
0.1981592686667514,0.1981592686667514
0.17894539137202492,0.17894539137202492
0.16031375278319923,0.16031375278319923
0.14750450125338155,0.14750450125338155
0.13236629489996068,0.13236629489996068
0.11198794019343258,0.11198794019343258
0.08753391454559886,0.08753391454559886
0.06540884372136835,0.06540884372136835
0.04619496642664186,0.04619496642664186
0.028727805249617773,0.028727805249617773
0.008349450543089675,0.008349450543089675
-0.013193381575240028,-0.013193381575240028
-0.035900691105371335,-0.035900691105371335
-0.05860800063550265,-0.05860800063550265
-0.07956859404793154,-0.07956859404793154
-0.09237784557774921,-0.09237784557774921
-0.09237784557774921,-0.09237784557774921
-0.08073307145973314,-0.08073307145973314
-0.06326591028270907,-0.06326591028270907
-0.048709942635189,-0.048709942635189
-0.04463427169388338,-0.04463427169388338
-0.05336785228239542,-0.05336785228239542
-0.07374620698892352,-0.07374620698892352
-0.09820023263675723,-0.09820023263675723
-0.12090754216688854,-0.12090754216688854
-0.13837470334391264,-0.13837470334391264
-0.15467738710913512,-0.15467738710913512
-0.17272678699205998,-0.17272678699205998
-0.19019394816908408,-0.19019394816908408
-0.20242096099300094,-0.20242096099300094
-0.20824334805200898,-0.20824334805200898
-0.21115454158151298,-0.21115454158151298
-0.2129012576992154,-0.2129012576992154
-0.21057230287561218,-0.21057230287561218
-0.20300319969890174,-0.20300319969890174
-0.19019394816908408,-0.19019394816908408
-0.1744735031097624,-0.1744735031097624
-0.15817081934453991,-0.15817081934453991
-0.14652604522652388,-0.14652604522652388
-0.14536156781472226,-0.14536156781472226
-0.1529306709914327,-0.1529306709914327
-0.15700634193273832,-0.15700634193273832
-0.14827276134422626,-0.14827276134422626
-0.1308056001672022,-0.1308056001672022
-0.12090754216688854,-0.12090754216688854
-0.12614769051999578,-0.12614769051999578
-0.13429903240260702,-0.13429903240260702
-0.12672992922589657,-0.12672992922589657
-0.10576933581346767,-0.10576933581346767
-0.08539098110693957,-0.08539098110693957
-0.07199949087122111,-0.07199949087122111
-0.048709942635189,-0.048709942635189
-0.019015768634248056,-0.019015768634248056
0.003691540895883253,0.003691540895883253
0.001362586072280042,0.001362586072280042
-0.0038775622808271833,-0.0038775622808271833
0.0001981086604784364,0.0001981086604784364
0.016500792425700916,0.016500792425700916
0.02814556654371697,0.02814556654371697
0.036879147132229013,0.036879147132229013
0.05259959219155069,0.05259959219155069
0.061333172780062735,0.061333172780062735
0.05900421795645952,0.05900421795645952
0.05900421795645952,0.05900421795645952
0.09626749513411091,0.09626749513411091
0.17952763007792572,0.17952763007792572
0.3064556679643007,0.3064556679643007
0.4962654860879624,0.4962654860879624
0.8089276711566935,0.8089276711566935
1.3020838550546736,1.3020838550546736
1.9541912056635726,1.9541912056635726
2.6231834787435955,2.6231834787435955
3.1134284691120713,3.1134284691120713
3.3143008226478483,3.3143008226478483
3.274708590646594,3.274708590646594
3.073253998404916,3.073253998404916
2.6406506399206195,2.6406506399206195
1.796986755070356,1.796986755070356
0.5311998084420105,0.5311998084420105
-0.8300742859540664,-0.8300742859540664
-1.8123109828087207,-1.8123109828087207
-2.169223309525913,-2.169223309525913
-2.0318149749333236,-2.0318149749333236
-1.7104192092760802,-1.7104192092760802
-1.4059083660899603,-1.4059083660899603
-1.1246870711398727,-1.1246870711398727
-0.8126071247770423,-0.8126071247770423
-0.49295807523750157,-0.49295807523750157
-0.2594803541712796,-0.2594803541712796
-0.16865111605075436,-0.16865111605075436
-0.18670051593367926,-0.18670051593367926
-0.22571050922903305,-0.22571050922903305
-0.2356085672293467,-0.2356085672293467
-0.21173678028741377,-0.21173678028741377
-0.19019394816908408,-0.19019394816908408
-0.18087812887467122,-0.18087812887467122
-0.18320708369827443,-0.18320708369827443
-0.16806887734485357,-0.16806887734485357
-0.1348812711085078,-0.1348812711085078
-0.09587127781315402,-0.09587127781315402
-0.07374620698892352,-0.07374620698892352
-0.07316396828302271,-0.07316396828302271
-0.07723963922432833,-0.07723963922432833
