ECG,PPG
-0.07483695960870303,-0.07483695960870303
0.2850699321424963,0.2850699321424963
0.0014290245957177823,0.0014290245957177823
-0.12625222985887438,-0.12625222985887438
0.0776950088001386,0.0776950088001386
0.20366242091305836,0.20366242091305836
0.1162564614877671,0.1162564614877671
0.05541505835839768,0.05541505835839768
0.1162564614877671,0.1162564614877671
0.12996720022114613,0.12996720022114613
0.03999047728334629,0.03999047728334629
-0.037989349262746906,-0.037989349262746906
-0.03713242809191072,-0.03713242809191072
-0.022564768187695507,-0.022564768187695507
-0.03713242809191072,-0.03713242809191072
-0.07398003843786684,-0.07398003843786684
-0.11339841229633153,-0.11339841229633153
-0.14767525912977908,-0.14767525912977908
-0.15195986498396002,-0.15195986498396002
-0.14167681093392578,-0.14167681093392578
-0.15195986498396002,-0.15195986498396002
-0.19480592352576948,-0.19480592352576948
-0.22822584918838085,-0.22822584918838085
-0.24879195728844938,-0.24879195728844938
-0.26678730187600935,-0.26678730187600935
-0.29763646402611216,-0.29763646402611216
-0.30534875456363786,-0.30534875456363786
-0.2864964888052417,-0.2864964888052417
-0.26678730187600935,-0.26678730187600935
-0.27364267124269886,-0.27364267124269886
-0.26678730187600935,-0.26678730187600935
-0.23079661270088941,-0.23079661270088941
-0.18966439650075234,-0.18966439650075234
-0.19737668703827804,-0.19737668703827804
-0.22822584918838085,-0.22822584918838085
-0.2556473266551389,-0.2556473266551389
-0.26678730187600935,-0.26678730187600935
-0.28906725231775027,-0.28906725231775027
-0.30534875456363786,-0.30534875456363786
-0.3096333604178188,-0.3096333604178188
-0.30534875456363786,-0.30534875456363786
-0.324201020322034,-0.324201020322034
-0.3430532860804302,-0.3430532860804302
-0.3413394437387578,-0.3413394437387578
-0.30534875456363786,-0.30534875456363786
-0.27449959241353505,-0.27449959241353505
-0.26678730187600935,-0.26678730187600935
-0.2882103311469141,-0.2882103311469141
-0.30534875456363786,-0.30534875456363786
-0.3027779910511293,-0.3027779910511293
-0.26678730187600935,-0.26678730187600935
-0.2239412433341999,-0.2239412433341999
-0.18966439650075234,-0.18966439650075234
-0.1776675001090457,-0.1776675001090457
-0.15195986498396002,-0.15195986498396002
-0.09625998887960775,-0.09625998887960775
0.0014290245957177823,0.0014290245957177823
0.11454261914609472,0.11454261914609472
0.2310838983798164,0.2310838983798164
0.32106062131761626,0.32106062131761626
0.38447278795949424,0.38447278795949424
0.433317294697157,0.433317294697157
0.4993002248515436,0.4993002248515436
0.5472878104183702,0.5472878104183702
0.537861677539172,0.537861677539172
0.47873411675147504,0.47873411675147504
0.46073877216391507,0.46073877216391507
0.5052986730473968,0.5052986730473968
0.537861677539172,0.537861677539172
0.4521695604555532,0.4521695604555532
0.2696453510674449,0.2696453510674449
0.062270427725087195,0.062270427725087195
-0.11339841229633153,-0.11339841229633153
-0.27621343475520743,-0.27621343475520743
-0.4201761914556872,-0.4201761914556872
-0.5401451553727536,-0.5401451553727536
-0.6112696125521573,-0.6112696125521573
-0.664398725144001,-0.664398725144001
-0.6875355967565782,-0.6875355967565782
-0.6901063602690867,-0.6901063602690867
-0.6498310652397858,-0.6498310652397858
-0.6164111395771744,-0.6164111395771744
-0.6112696125521573,-0.6112696125521573
-0.6524018287522944,-0.6524018287522944
-0.6875355967565782,-0.6875355967565782
-0.6909632814399229,-0.6909632814399229
-0.6498310652397858,-0.6498310652397858
-0.6129834548938297,-0.6129834548938297
-0.6112696125521573,-0.6112696125521573
-0.6232665089438639,-0.6232665089438639
-0.5727081598645288,-0.5727081598645288
-0.43988537838491953,-0.43988537838491953
-0.18966439650075234,-0.18966439650075234
0.29878067087587534,0.29878067087587534
1.1505603146870471,1.1505603146870471
2.187434931398836,2.187434931398836
3.064922210335093,3.064922210335093
3.669908556945443,3.669908556945443
4.1754920477387945,4.1754920477387945
4.483983669239823,4.483983669239823
4.1754920477387945,4.1754920477387945
3.1429020368811864,3.1429020368811864
1.9543523729313923,1.9543523729313923
1.113712704341091,1.113712704341091
0.46073877216391507,0.46073877216391507
-0.40903621623481673,-0.40903621623481673
-1.3773571392797102,-1.3773571392797102
-1.992626539940094,-1.992626539940094
-2.1048832133196345,-2.1048832133196345
-1.9634912201316634,-1.9634912201316634
-1.7604009026434866,-1.7604009026434866
-1.5204629748093537,-1.5204629748093537
-1.262529702387661,-1.262529702387661
-1.0722932024620269,-1.0722932024620269
-0.9557519232283053,-0.9557519232283053
-0.8854843872197378,-0.8854843872197378
-0.8409244863362559,-0.8409244863362559
-0.8100753241861531,-0.8100753241861531
-0.7260970494442066,-0.7260970494442066
-0.6386910900189153,-0.6386910900189153
-0.6498310652397858,-0.6498310652397858
-0.7972215066236104,-0.7972215066236104
-0.9171904705406767,-0.9171904705406767
-0.9154766281990043,-0.9154766281990043
-0.8409244863362559,-0.8409244863362559
-0.8117891665278255,-0.8117891665278255
-0.8023630336486275,-0.8023630336486275
-0.7663723444735075,-0.7663723444735075
-0.7260970494442066,-0.7260970494442066
-0.741521630519258,-0.741521630519258
-0.7646585021318352,-0.7646585021318352
-0.7286678129567152,-0.7286678129567152
-0.6498310652397858,-0.6498310652397858
-0.6095557702104849,-0.6095557702104849
-0.6112696125521573,-0.6112696125521573
-0.6086988490396488,-0.6086988490396488
-0.5727081598645288,-0.5727081598645288
-0.5332897860060641,-0.5332897860060641
-0.496442175660108,-0.496442175660108
-0.4595945653141519,-0.4595945653141519
-0.4201761914556872,-0.4201761914556872
-0.405608531551472,-0.405608531551472
-0.4201761914556872,-0.4201761914556872
-0.46045148648498807,-0.46045148648498807
-0.496442175660108,-0.496442175660108
-0.5135805990768317,-0.5135805990768317
-0.496442175660108,-0.496442175660108
-0.46130840765582426,-0.46130840765582426
-0.4201761914556872,-0.4201761914556872
-0.3936116351597653,-0.3936116351597653
-0.3816147387680587,-0.3816147387680587
-0.3944685563306015,-0.3944685563306015
-0.4201761914556872,-0.4201761914556872
-0.4493115112641176,-0.4493115112641176
-0.4578807229724795,-0.4578807229724795
-0.4673068558516776,-0.4673068558516776
-0.496442175660108,-0.496442175660108
-0.5495712882519517,-0.5495712882519517
-0.5727081598645288,-0.5727081598645288
-0.5504282094227879,-0.5504282094227879
-0.496442175660108,-0.496442175660108
-0.45530995945997094,-0.45530995945997094
-0.4201761914556872,-0.4201761914556872
-0.3953254775014377,-0.3953254775014377
-0.3816147387680587,-0.3816147387680587
-0.37733013291387774,-0.37733013291387774
-0.3430532860804302,-0.3430532860804302
-0.2933518581719312,-0.2933518581719312
-0.26678730187600935,-0.26678730187600935
-0.2856395676344055,-0.2856395676344055
-0.26678730187600935,-0.26678730187600935
-0.14853218030061527,-0.14853218030061527
0.03999047728334629,0.03999047728334629
0.170242495250447,0.170242495250447
0.1925224456921879,0.1925224456921879
0.16595788939626605,0.16595788939626605
0.1925224456921879,0.1925224456921879
0.25250692765072114,0.25250692765072114
0.2696453510674449,0.2696453510674449
0.22080084432978214,0.22080084432978214
0.1925224456921879,0.1925224456921879
0.19852089388804123,0.19852089388804123
0.15481791417539562,0.15481791417539562
0.0014290245957177823,0.0014290245957177823
-0.15195986498396002,-0.15195986498396002
-0.19737668703827804,-0.19737668703827804
-0.15195986498396002,-0.15195986498396002
-0.12111070283385723,-0.12111070283385723
-0.11339841229633153,-0.11339841229633153
-0.09883075239211632,-0.09883075239211632
-0.07483695960870303,-0.07483695960870303
-0.08769077717124586,-0.08769077717124586
-0.11339841229633153,-0.11339841229633153
-0.12111070283385723,-0.12111070283385723
-0.11339841229633153,-0.11339841229633153
-0.14938910147145146,-0.14938910147145146
-0.22822584918838085,-0.22822584918838085
-0.31391796627199975,-0.31391796627199975
-0.3430532860804302,-0.3430532860804302
-0.3113472027594912,-0.3113472027594912
-0.22822584918838085,-0.22822584918838085
-0.15195986498396002,-0.15195986498396002
-0.11339841229633153,-0.11339841229633153
-0.12796607220054676,-0.12796607220054676
-0.15195986498396002,-0.15195986498396002
-0.1622429190339943,-0.1622429190339943
-0.15195986498396002,-0.15195986498396002
-0.15967215552148573,-0.15967215552148573
-0.18966439650075234,-0.18966439650075234
-0.22736892801754466,-0.22736892801754466
-0.22822584918838085,-0.22822584918838085
-0.21965663748001896,-0.21965663748001896
-0.22822584918838085,-0.22822584918838085
-0.2556473266551389,-0.2556473266551389
-0.22822584918838085,-0.22822584918838085
-0.13824912625058103,-0.13824912625058103
-0.03713242809191072,-0.03713242809191072
0.01171207864575205,0.01171207864575205
0.03999047728334629,0.03999047728334629
0.06655503357926815,0.06655503357926815
0.0776950088001386,0.0776950088001386
0.04770276782087198,0.04770276782087198
0.03999047728334629,0.03999047728334629
0.09569035338769856,0.09569035338769856
0.1925224456921879,0.1925224456921879
0.261076139359083,0.261076139359083
0.30734988258423723,0.30734988258423723
0.3579082316635724,0.3579082316635724
0.42303424064712275,0.42303424064712275
0.47616335323896647,0.47616335323896647
0.537861677539172,0.537861677539172
0.6021307653518863,0.6021307653518863
0.6526891144312214,0.6526891144312214
0.6681136955062728,0.6681136955062728
0.6903936459480137,0.6903936459480137
0.7238135716106251,0.7238135716106251
0.7289550986356422,0.7289550986356422
0.6561167991145661,0.6561167991145661
0.537861677539172,0.537861677539172
0.3956127631803647,0.3956127631803647
0.2310838983798164,0.2310838983798164
0.028850502062475827,0.028850502062475827
-0.15195986498396002,-0.15195986498396002
-0.27621343475520743,-0.27621343475520743
-0.3430532860804302,-0.3430532860804302
-0.39961008335561865,-0.39961008335561865
-0.4201761914556872,-0.4201761914556872
-0.419319270284851,-0.419319270284851
-0.4201761914556872,-0.4201761914556872
-0.4750191463892033,-0.4750191463892033
-0.5350036283477365,-0.5350036283477365
-0.5684235540103478,-0.5684235540103478
-0.5727081598645288,-0.5727081598645288
-0.5949881103062697,-0.5949881103062697
-0.6112696125521573,-0.6112696125521573
-0.6044142431854678,-0.6044142431854678
-0.5727081598645288,-0.5727081598645288
-0.5230067319560299,-0.5230067319560299
-0.4201761914556872,-0.4201761914556872
-0.2942087793427674,-0.2942087793427674
-0.15195986498396002,-0.15195986498396002
0.15139022949205086,0.15139022949205086
0.8437825355276916,0.8437825355276916
1.8506649112602136,1.8506649112602136
2.8352673365509946,2.8352673365509946
3.602211784449384,3.602211784449384
4.251758031943215,4.251758031943215
4.686217065557163,4.686217065557163
4.5199743584149426,4.5199743584149426
3.6442009218203575,3.6442009218203575
2.5670510100792674,2.5670510100792674
1.74354976490569,1.74354976490569
1.035732877794998,1.035732877794998
0.09654727455853475,0.09654727455853475
-0.9171904705406767,-0.9171904705406767
-1.5650228756928355,-1.5650228756928355
-1.7218394499558582,-1.7218394499558582
-1.671281100876523,-1.671281100876523
-1.6070120130638088,-1.6070120130638088
-1.4827584432925616,-1.4827584432925616
-1.2239682497000324,-1.2239682497000324
-0.9403273421532539,-0.9403273421532539
-0.7646585021318352,-0.7646585021318352
-0.7286678129567152,-0.7286678129567152
-0.7260970494442066,-0.7260970494442066
-0.6772525427065439,-0.6772525427065439
-0.5727081598645288,-0.5727081598645288
-0.5041544661976337,-0.5041544661976337
-0.496442175660108,-0.496442175660108
-0.5529989729352964,-0.5529989729352964
-0.6112696125521573,-0.6112696125521573
-0.6558295134356391,-0.6558295134356391
-0.6498310652397858,-0.6498310652397858
-0.6241234301147002,-0.6241234301147002
-0.6112696125521573,-0.6112696125521573
-0.6275511147980449,-0.6275511147980449
-0.6112696125521573,-0.6112696125521573
-0.551285130593624,-0.551285130593624
-0.496442175660108,-0.496442175660108
-0.49387141214759944,-0.49387141214759944
-0.496442175660108,-0.496442175660108
-0.4655930135100052,-0.4655930135100052
-0.4201761914556872,-0.4201761914556872
-0.40132392569729103,-0.40132392569729103
-0.3816147387680587,-0.3816147387680587
-0.3430532860804302,-0.3430532860804302
-0.30534875456363786,-0.30534875456363786
-0.2942087793427674,-0.2942087793427674
-0.26678730187600935,-0.26678730187600935
-0.20508897757580374,-0.20508897757580374
-0.15195986498396002,-0.15195986498396002
-0.17252597308402856,-0.17252597308402856
-0.22822584918838085,-0.22822584918838085
-0.2565042478259751,-0.2565042478259751
-0.22822584918838085,-0.22822584918838085
-0.18880747532991615,-0.18880747532991615
-0.15195986498396002,-0.15195986498396002
-0.12710915102971057,-0.12710915102971057
-0.11339841229633153,-0.11339841229633153
-0.13910604742141722,-0.13910604742141722
-0.18966439650075234,-0.18966439650075234
-0.24365043026343225,-0.24365043026343225
-0.26678730187600935,-0.26678730187600935
-0.28221188295106076,-0.28221188295106076
-0.30534875456363786,-0.30534875456363786
-0.3396256013970854,-0.3396256013970854
-0.3430532860804302,-0.3430532860804302
-0.32334409915119783,-0.32334409915119783
-0.30534875456363786,-0.30534875456363786
-0.31477488744283594,-0.31477488744283594
-0.30534875456363786,-0.30534875456363786
-0.2573611689968113,-0.2573611689968113
-0.18966439650075234,-0.18966439650075234
-0.15967215552148573,-0.15967215552148573
-0.15195986498396002,-0.15195986498396002
-0.14424757444643435,-0.14424757444643435
-0.11339841229633153,-0.11339841229633153
-0.07140927492535827,-0.07140927492535827
0.0014290245957177823,0.0014290245957177823
0.0845503781668281,0.0845503781668281
0.15481791417539562,0.15481791417539562
0.18909476100884315,0.18909476100884315
0.2310838983798164,0.2310838983798164
0.279071483946643,0.279071483946643
0.30734988258423723,0.30734988258423723
0.29792374970503915,0.29792374970503915
0.30734988258423723,0.30734988258423723
0.3407698082468486,0.3407698082468486
0.34591133527186574,0.34591133527186574
0.2850699321424963,0.2850699321424963
0.2310838983798164,0.2310838983798164
0.22594237135479928,0.22594237135479928
0.2310838983798164,0.2310838983798164
0.17881170695880888,0.17881170695880888
0.1162564614877671,0.1162564614877671
0.09654727455853475,0.09654727455853475
0.1162564614877671,0.1162564614877671
0.1076872497794052,0.1076872497794052
0.0776950088001386,0.0776950088001386
0.05198737367505293,0.05198737367505293
0.03999047728334629,0.03999047728334629
0.003999788108226349,0.003999788108226349
-0.03713242809191072,-0.03713242809191072
-0.056841615021143065,-0.056841615021143065
-0.03713242809191072,-0.03713242809191072
-0.023421689358531696,-0.023421689358531696
-0.03713242809191072,-0.03713242809191072
-0.08169232897539254,-0.08169232897539254
-0.11339841229633153,-0.11339841229633153
-0.11511225463800391,-0.11511225463800391
-0.07483695960870303,-0.07483695960870303
-0.02942013755438502,-0.02942013755438502
0.0014290245957177823,0.0014290245957177823
-0.008854029454316485,-0.008854029454316485
-0.03713242809191072,-0.03713242809191072
-0.06026929970448782,-0.06026929970448782
-0.03713242809191072,-0.03713242809191072
0.01942436918327775,0.01942436918327775
0.0776950088001386,0.0776950088001386
0.08197961465431955,0.08197961465431955
0.03999047728334629,0.03999047728334629
-0.01913708350435075,-0.01913708350435075
-0.03713242809191072,-0.03713242809191072
-0.013995556479333619,-0.013995556479333619
0.03999047728334629,0.03999047728334629
0.08369345699599193,0.08369345699599193
0.1162564614877671,0.1162564614877671
0.1325379637336547,0.1325379637336547
0.15481791417539562,0.15481791417539562
0.1693855740796108,0.1693855740796108
0.1925224456921879,0.1925224456921879
0.24136695242985068,0.24136695242985068
0.34591133527186574,0.34591133527186574
0.4727356685556217,0.4727356685556217
0.5755662090559643,0.5755662090559643
0.6398352968686786,0.6398352968686786
0.7289550986356422,0.7289550986356422
0.8634917224569238,0.8634917224569238
0.9971714251073693,0.9971714251073693
1.040874404820015,1.040874404820015
0.9971714251073693,0.9971714251073693
0.9234762044154571,0.9234762044154571
0.88234398821532,0.88234398821532
0.8532086684068896,0.8532086684068896
0.805221082840063,0.805221082840063
0.7178151234147717,0.7178151234147717
0.6141276617435929,0.6141276617435929
0.4804479590931474,0.4804479590931474
0.30734988258423723,0.30734988258423723
0.08969190519184524,0.08969190519184524
-0.11339841229633153,-0.11339841229633153
-0.27535651358437124,-0.27535651358437124
-0.3816147387680587,-0.3816147387680587
-0.46302224999749664,-0.46302224999749664
-0.496442175660108,-0.496442175660108
-0.5041544661976337,-0.5041544661976337
-0.496442175660108,-0.496442175660108
-0.5075821508809785,-0.5075821508809785
-0.496442175660108,-0.496442175660108
-0.46045148648498807,-0.46045148648498807
-0.4201761914556872,-0.4201761914556872
-0.43902845721408335,-0.43902845721408335
-0.496442175660108,-0.496442175660108
-0.5341467071769003,-0.5341467071769003
-0.496442175660108,-0.496442175660108
-0.4124639009181615,-0.4124639009181615
-0.30534875456363786,-0.30534875456363786
-0.13396452039640008,-0.13396452039640008
0.2310838983798164,0.2310838983798164
0.8514948260652172,0.8514948260652172
1.6861360464596653,1.6861360464596653
2.5987570934002067,2.5987570934002067
3.4479659736988695,3.4479659736988695
4.040098502746677,4.040098502746677
4.2131965792555865,4.2131965792555865
3.9346971987338253,3.9346971987338253
3.370843068323613,3.370843068323613
2.69473226453386,2.69473226453386
1.9543523729313923,1.9543523729313923
1.105143492632729,1.105143492632729
0.1925224456921879,0.1925224456921879
-0.6635418039731649,-0.6635418039731649
-1.3387956865920818,-1.3387956865920818
-1.780110089572719,-1.780110089572719
-1.951494323739957,-1.951494323739957
-1.8718006548521913,-1.8718006548521913
-1.6070120130638088,-1.6070120130638088
-1.2925219433669275,-1.2925219433669275
-1.0328748286035623,-1.0328748286035623
-0.8794859390238845,-0.8794859390238845
-0.8023630336486275,-0.8023630336486275
-0.7663723444735075,-0.7663723444735075
-0.7260970494442066,-0.7260970494442066
-0.6892494390982505,-0.6892494390982505
-0.6498310652397858,-0.6498310652397858
-0.6309787994813897,-0.6309787994813897
-0.6112696125521573,-0.6112696125521573
-0.6001296373312869,-0.6001296373312869
-0.5727081598645288,-0.5727081598645288
-0.551285130593624,-0.551285130593624
-0.5350036283477365,-0.5350036283477365
-0.5307190224935555,-0.5307190224935555
-0.496442175660108,-0.496442175660108
-0.4176054279431786,-0.4176054279431786
-0.30534875456363786,-0.30534875456363786
-0.22565508567587228,-0.22565508567587228
-0.22822584918838085,-0.22822584918838085
-0.3250579414928702,-0.3250579414928702
-0.4578807229724795,-0.4578807229724795
-0.5598543423019859,-0.5598543423019859
-0.5727081598645288,-0.5727081598645288
-0.5230067319560299,-0.5230067319560299
-0.4578807229724795,-0.4578807229724795
-0.4176054279431786,-0.4176054279431786
-0.3816147387680587,-0.3816147387680587
-0.342196364909594,-0.342196364909594
-0.30534875456363786,-0.30534875456363786
-0.29849338519694835,-0.29849338519694835
-0.30534875456363786,-0.30534875456363786
-0.3027779910511293,-0.3027779910511293
-0.26678730187600935,-0.26678730187600935
-0.2239412433341999,-0.2239412433341999
-0.18966439650075234,-0.18966439650075234
-0.17252597308402856,-0.17252597308402856
-0.15195986498396002,-0.15195986498396002
-0.1459614167881067,-0.1459614167881067
-0.15195986498396002,-0.15195986498396002
-0.13396452039640008,-0.13396452039640008
-0.03713242809191072,-0.03713242809191072
0.06484119123759577,0.06484119123759577
0.03999047728334629,0.03999047728334629
-0.15024602264228765,-0.15024602264228765
-0.3430532860804302,-0.3430532860804302
-0.4107500585764891,-0.4107500585764891
-0.3816147387680587,-0.3816147387680587
-0.3730455270596968,-0.3730455270596968
-0.3816147387680587,-0.3816147387680587
-0.36104863066799014,-0.36104863066799014
-0.30534875456363786,-0.30534875456363786
-0.26593038070517316,-0.26593038070517316
-0.22822584918838085,-0.22822584918838085
-0.17509673659653713,-0.17509673659653713
-0.11339841229633153,-0.11339841229633153
-0.07912156546288397,-0.07912156546288397
-0.03713242809191072,-0.03713242809191072
0.033135107916656775,0.033135107916656775
0.1162564614877671,0.1162564614877671
0.1693855740796108,0.1693855740796108
0.2310838983798164,0.2310838983798164
0.3322005965384867,0.3322005965384867
0.46073877216391507,0.46073877216391507
0.537861677539172,0.537861677539172
0.537861677539172,0.537861677539172
0.46930798387227696,0.46930798387227696
0.38447278795949424,0.38447278795949424
0.29963759204671153,0.29963759204671153
0.2310838983798164,0.2310838983798164
0.16767173173793842,0.16767173173793842
0.1162564614877671,0.1162564614877671
0.0699827182626129,0.0699827182626129
0.03999047728334629,0.03999047728334629
0.015996684499932995,0.015996684499932995
0.0014290245957177823,0.0014290245957177823
-0.02170784701685932,-0.02170784701685932
-0.03713242809191072,-0.03713242809191072
-0.025992452871040263,-0.025992452871040263
0.03999047728334629,0.03999047728334629
0.1085441709502414,0.1085441709502414
0.1162564614877671,0.1162564614877671
0.0391335561125101,0.0391335561125101
-0.03713242809191072,-0.03713242809191072
-0.06112622087532401,-0.06112622087532401
-0.03713242809191072,-0.03713242809191072
-0.009710950625152674,-0.009710950625152674
0.03999047728334629,0.03999047728334629
0.09397651104602618,0.09397651104602618
0.1162564614877671,0.1162564614877671
0.07512424528763004,0.07512424528763004
0.03999047728334629,0.03999047728334629
0.040847398454182476,0.040847398454182476
0.03999047728334629,0.03999047728334629
-0.02770629521271264,-0.02770629521271264
-0.11339841229633153,-0.11339841229633153
-0.15881523435064954,-0.15881523435064954
-0.15195986498396002,-0.15195986498396002
-0.1399629685922534,-0.1399629685922534
-0.11339841229633153,-0.11339841229633153
-0.07398003843786684,-0.07398003843786684
-0.03713242809191072,-0.03713242809191072
-0.03713242809191072,-0.03713242809191072
-0.03713242809191072,-0.03713242809191072
-0.02085092584602313,-0.02085092584602313
0.0014290245957177823,0.0014290245957177823
-0.004569423600135541,-0.004569423600135541
0.0014290245957177823,0.0014290245957177823
0.04427508313752723,0.04427508313752723
0.1162564614877671,0.1162564614877671
0.15481791417539562,0.15481791417539562
0.15481791417539562,0.15481791417539562
0.12825335787947376,0.12825335787947376
0.1162564614877671,0.1162564614877671
0.1393933331003442,0.1393933331003442
0.2310838983798164,0.2310838983798164
0.3656205222010981,0.3656205222010981
0.4993002248515436,0.4993002248515436
0.5978461594977053,0.5978461594977053
0.6903936459480137,0.6903936459480137
0.7709442360066154,0.7709442360066154
0.805221082840063,0.805221082840063
0.7692303936649431,0.7692303936649431
0.7289550986356422,0.7289550986356422
0.7229566504397889,0.7229566504397889
0.7289550986356422,0.7289550986356422
0.6775398283854709,0.6775398283854709
0.5755662090559643,0.5755662090559643
0.44788495460137223,0.44788495460137223
0.30734988258423723,0.30734988258423723
0.1239687520252928,0.1239687520252928
-0.07483695960870303,-0.07483695960870303
-0.23850890323841512,-0.23850890323841512
-0.30534875456363786,-0.30534875456363786
-0.3113472027594912,-0.3113472027594912
-0.30534875456363786,-0.30534875456363786
-0.3490517342762835,-0.3490517342762835
-0.4201761914556872,-0.4201761914556872
-0.5084390720518146,-0.5084390720518146
-0.5727081598645288,-0.5727081598645288
-0.614697297235502,-0.614697297235502
-0.6112696125521573,-0.6112696125521573
-0.5941311891354335,-0.5941311891354335
-0.5727081598645288,-0.5727081598645288
-0.5529989729352964,-0.5529989729352964
-0.496442175660108,-0.496442175660108
-0.42274695496819575,-0.42274695496819575
-0.3816147387680587,-0.3816147387680587
-0.40046700452645484,-0.40046700452645484
-0.3816147387680587,-0.3816147387680587
-0.17938134245071807,-0.17938134245071807
0.30734988258423723,0.30734988258423723
1.0288775084283084,1.0288775084283084
1.8780863887269716,1.8780863887269716
2.747004455954867,2.747004455954867
3.524231957903291,3.524231957903291
3.9946816806923584,3.9946816806923584
3.983541705471488,3.983541705471488
3.542227302490851,3.542227302490851
2.950094773443044,2.950094773443044
2.3536776385410563,2.3536776385410563
1.6475745937720367,1.6475745937720367
0.7083889905355737,0.7083889905355737
-0.30534875456363786,-0.30534875456363786
-1.117710024516345,-1.117710024516345
-1.6070120130638088,-1.6070120130638088
-1.8443791773854332,-1.8443791773854332
-1.875228339535536,-1.875228339535536
-1.7141271594183325,-1.7141271594183325
-1.4150616707965025,-1.4150616707965025
-1.1108546551496554,-1.1108546551496554
-0.8794859390238845,-0.8794859390238845
-0.7578031327651457,-0.7578031327651457
-0.7260970494442066,-0.7260970494442066
-0.7432354728609304,-0.7432354728609304
-0.7260970494442066,-0.7260970494442066
-0.6789663850482163,-0.6789663850482163
-0.6498310652397858,-0.6498310652397858
-0.6909632814399229,-0.6909632814399229
-0.7260970494442066,-0.7260970494442066
-0.7106724683691552,-0.7106724683691552
-0.6498310652397858,-0.6498310652397858
-0.6172680607480107,-0.6172680607480107
-0.6112696125521573,-0.6112696125521573
-0.6164111395771744,-0.6164111395771744
-0.6112696125521573,-0.6112696125521573
-0.6035573220146316,-0.6035573220146316
-0.5727081598645288,-0.5727081598645288
-0.5272913378102108,-0.5272913378102108
-0.496442175660108,-0.496442175660108
-0.49986986034345277,-0.49986986034345277
-0.496442175660108,-0.496442175660108
-0.4741622252183671,-0.4741622252183671
-0.4578807229724795,-0.4578807229724795
-0.4801606734142204,-0.4801606734142204
-0.496442175660108,-0.496442175660108
-0.4835883580975652,-0.4835883580975652
-0.4578807229724795,-0.4578807229724795
-0.4595945653141519,-0.4595945653141519
-0.4578807229724795,-0.4578807229724795
-0.4278884819932129,-0.4278884819932129
-0.3816147387680587,-0.3816147387680587
-0.36961784237635203,-0.36961784237635203
-0.3816147387680587,-0.3816147387680587
-0.39189779281809295,-0.39189779281809295
-0.3816147387680587,-0.3816147387680587
-0.37733013291387774,-0.37733013291387774
-0.3816147387680587,-0.3816147387680587
-0.39961008335561865,-0.39961008335561865
-0.4201761914556872,-0.4201761914556872
-0.44674074775160905,-0.44674074775160905
-0.4578807229724795,-0.4578807229724795
-0.4595945653141519,-0.4595945653141519
-0.4578807229724795,-0.4578807229724795
-0.47673298873087566,-0.47673298873087566
-0.496442175660108,-0.496442175660108
-0.5067252297101422,-0.5067252297101422
-0.496442175660108,-0.496442175660108
-0.4904437274642547,-0.4904437274642547
-0.496442175660108,-0.496442175660108
-0.5204359684435212,-0.5204359684435212
-0.5350036283477365,-0.5350036283477365
-0.5315759436643918,-0.5315759436643918
-0.496442175660108,-0.496442175660108
-0.44502690540993667,-0.44502690540993667
-0.3816147387680587,-0.3816147387680587
-0.324201020322034,-0.324201020322034
-0.26678730187600935,-0.26678730187600935
-0.21280126811332944,-0.21280126811332944
-0.15195986498396002,-0.15195986498396002
-0.10568612175880583,-0.10568612175880583
-0.07483695960870303,-0.07483695960870303
-0.05170008799612593,-0.05170008799612593
0.0014290245957177823,0.0014290245957177823
0.05969966421257863,0.05969966421257863
0.0776950088001386,0.0776950088001386
0.025422817379131074,0.025422817379131074
-0.03713242809191072,-0.03713242809191072
-0.05941237853365163,-0.05941237853365163
-0.03713242809191072,-0.03713242809191072
-0.022564768187695507,-0.022564768187695507
-0.03713242809191072,-0.03713242809191072
-0.08683385600040967,-0.08683385600040967
-0.15195986498396002,-0.15195986498396002
-0.21365818928416563,-0.21365818928416563
-0.22822584918838085,-0.22822584918838085
-0.20594589874663993,-0.20594589874663993
-0.18966439650075234,-0.18966439650075234
-0.2325104550425618,-0.2325104550425618
-0.30534875456363786,-0.30534875456363786
-0.3644763153513349,-0.3644763153513349
-0.3816147387680587,-0.3816147387680587
-0.38504242345140344,-0.38504242345140344
-0.3816147387680587,-0.3816147387680587
-0.3730455270596968,-0.3730455270596968
-0.3430532860804302,-0.3430532860804302
-0.31477488744283594,-0.31477488744283594
-0.30534875456363786,-0.30534875456363786
-0.3353409955429045,-0.3353409955429045
-0.3816147387680587,-0.3816147387680587
-0.419319270284851,-0.419319270284851
-0.4201761914556872,-0.4201761914556872
-0.40046700452645484,-0.40046700452645484
-0.3816147387680587,-0.3816147387680587
-0.4047516103806358,-0.4047516103806358
-0.4578807229724795,-0.4578807229724795
-0.5084390720518146,-0.5084390720518146
-0.496442175660108,-0.496442175660108
-0.4407422995557557,-0.4407422995557557
-0.3816147387680587,-0.3816147387680587
-0.3490517342762835,-0.3490517342762835
-0.30534875456363786,-0.30534875456363786
-0.2633596171926646,-0.2633596171926646
-0.26678730187600935,-0.26678730187600935
-0.33705483788457685,-0.33705483788457685
-0.3816147387680587,-0.3816147387680587
-0.34648097076377493,-0.34648097076377493
-0.26678730187600935,-0.26678730187600935
-0.23079661270088941,-0.23079661270088941
-0.22822584918838085,-0.22822584918838085
-0.21108742577165707,-0.21108742577165707
-0.15195986498396002,-0.15195986498396002
-0.08083540780455635,-0.08083540780455635
0.0014290245957177823,0.0014290245957177823
0.08197961465431955,0.08197961465431955
0.15481791417539562,0.15481791417539562
0.2165162384756012,0.2165162384756012
0.30734988258423723,0.30734988258423723
0.40589581723039897,0.40589581723039897
0.46073877216391507,0.46073877216391507
0.46073877216391507,0.46073877216391507
0.4993002248515436,0.4993002248515436
0.6132707405727567,0.6132707405727567
0.7289550986356422,0.7289550986356422
0.7375243103440041,0.7375243103440041
0.6526891144312214,0.6526891144312214
0.5267217023183016,0.5267217023183016
0.38447278795949424,0.38447278795949424
0.19766397271720504,0.19766397271720504
0.0014290245957177823,0.0014290245957177823
-0.1613859978631581,-0.1613859978631581
-0.26678730187600935,-0.26678730187600935
-0.35419326130130063,-0.35419326130130063
-0.4201761914556872,-0.4201761914556872
-0.47159146170585853,-0.47159146170585853
-0.496442175660108,-0.496442175660108
-0.5341467071769003,-0.5341467071769003
-0.5727081598645288,-0.5727081598645288
-0.6121265337229935,-0.6121265337229935
-0.6112696125521573,-0.6112696125521573
-0.591560425622925,-0.591560425622925
-0.5727081598645288,-0.5727081598645288
-0.5898465832812526,-0.5898465832812526
-0.6112696125521573,-0.6112696125521573
-0.6206957454313554,-0.6206957454313554
-0.6112696125521573,-0.6112696125521573
-0.5812773715728907,-0.5812773715728907
-0.496442175660108,-0.496442175660108
-0.3807578175972225,-0.3807578175972225
-0.22822584918838085,-0.22822584918838085
0.0999749592418795,0.0999749592418795
0.805221082840063,0.805221082840063
1.798392719839206,1.798392719839206
2.7581444311757375,2.7581444311757375
3.530230406099144,3.530230406099144
4.2131965792555865,4.2131965792555865
4.660509430432078,4.660509430432078
4.443708374210521,4.443708374210521
3.4968104804365323,3.4968104804365323
2.41366212049959,2.41366212049959
1.6570007266512348,1.6570007266512348
0.9971714251073693,0.9971714251073693
0.045988925479199604,0.045988925479199604
-0.9943133759159337,-0.9943133759159337
-1.6678534161931782,-1.6678534161931782
-1.9129328710523283,-1.9129328710523283
-2.002909593990128,-2.002909593990128
-1.9900557764275852,-1.9900557764275852
-1.7518316909351248,-1.7518316909351248
-1.3387956865920818,-1.3387956865920818
-1.0011687452826232,-1.0011687452826232
-0.8409244863362559,-0.8409244863362559
-0.7903661372569208,-0.7903661372569208
-0.7646585021318352,-0.7646585021318352
-0.7663723444735075,-0.7663723444735075
-0.7646585021318352,-0.7646585021318352
-0.7518046845692923,-0.7518046845692923
-0.7260970494442066,-0.7260970494442066
-0.7295247341275514,-0.7295247341275514
-0.7260970494442066,-0.7260970494442066
-0.7029601778316296,-0.7029601778316296
-0.6498310652397858,-0.6498310652397858
-0.6155542184063383,-0.6155542184063383
-0.6112696125521573,-0.6112696125521573
-0.6352634053355706,-0.6352634053355706
-0.6498310652397858,-0.6498310652397858
-0.6421187747022601,-0.6421187747022601
-0.6112696125521573,-0.6112696125521573
-0.5752789233770373,-0.5752789233770373
-0.5350036283477365,-0.5350036283477365
-0.5058683085393061,-0.5058683085393061
-0.496442175660108,-0.496442175660108
-0.5058683085393061,-0.5058683085393061
-0.496442175660108,-0.496442175660108
-0.46302224999749664,-0.46302224999749664
-0.4201761914556872,-0.4201761914556872
-0.3978962410139463,-0.3978962410139463
-0.3816147387680587,-0.3816147387680587
-0.3644763153513349,-0.3644763153513349
-0.3430532860804302,-0.3430532860804302
-0.33019946851788734,-0.33019946851788734
-0.30534875456363786,-0.30534875456363786
-0.2770703559260436,-0.2770703559260436
-0.26678730187600935,-0.26678730187600935
-0.28992417348858646,-0.28992417348858646
-0.30534875456363786,-0.30534875456363786
-0.3036349122219655,-0.3036349122219655
-0.30534875456363786,-0.30534875456363786
-0.33019946851788734,-0.33019946851788734
-0.3430532860804302,-0.3430532860804302
-0.3499086554471197,-0.3499086554471197
-0.3816147387680587,-0.3816147387680587
-0.44588382658077286,-0.44588382658077286
-0.4578807229724795,-0.4578807229724795
-0.40046700452645484,-0.40046700452645484
-0.3430532860804302,-0.3430532860804302
-0.35933478832631777,-0.35933478832631777
-0.3816147387680587,-0.3816147387680587
-0.3430532860804302,-0.3430532860804302
-0.26678730187600935,-0.26678730187600935
-0.25307656314263033,-0.25307656314263033
-0.30534875456363786,-0.30534875456363786
-0.3661901576930073,-0.3661901576930073
-0.3816147387680587,-0.3816147387680587
-0.3627624730096625,-0.3627624730096625
-0.30534875456363786,-0.30534875456363786
-0.22051355865085515,-0.22051355865085515
-0.11339841229633153,-0.11339841229633153
-0.014852477650169808,-0.014852477650169808
0.0776950088001386,0.0776950088001386
0.13853641192950802,0.13853641192950802
0.15481791417539562,0.15481791417539562
0.12653951553780138,0.12653951553780138
0.1162564614877671,0.1162564614877671
0.14282101778368897,0.14282101778368897
0.1925224456921879,0.1925224456921879
0.22937005603814403,0.22937005603814403
0.2696453510674449,0.2696453510674449
0.3030652767300563,0.3030652767300563
0.30734988258423723,0.30734988258423723
0.2559346123340659,0.2559346123340659
0.1925224456921879,0.1925224456921879
0.14624870246703373,0.14624870246703373
0.1162564614877671,0.1162564614877671
0.07255348177512147,0.07255348177512147
0.03999047728334629,0.03999047728334629
0.0314212655749844,0.0314212655749844
0.03999047728334629,0.03999047728334629
0.014282842158260617,0.014282842158260617
-0.03713242809191072,-0.03713242809191072
-0.08083540780455635,-0.08083540780455635
-0.07483695960870303,-0.07483695960870303
-0.05084316682528974,-0.05084316682528974
-0.03713242809191072,-0.03713242809191072
-0.057698536191979254,-0.057698536191979254
-0.07483695960870303,-0.07483695960870303
-0.06969543258368589,-0.06969543258368589
-0.03713242809191072,-0.03713242809191072
-0.02170784701685932,-0.02170784701685932
-0.03713242809191072,-0.03713242809191072
-0.09197538302542681,-0.09197538302542681
-0.15195986498396002,-0.15195986498396002
-0.19651976586744185,-0.19651976586744185
-0.18966439650075234,-0.18966439650075234
-0.1528167861547962,-0.1528167861547962
-0.11339841229633153,-0.11339841229633153
-0.11853993932134867,-0.11853993932134867
-0.15195986498396002,-0.15195986498396002
-0.2008043717216228,-0.2008043717216228
-0.22822584918838085,-0.22822584918838085
-0.21965663748001896,-0.21965663748001896
-0.15195986498396002,-0.15195986498396002
-0.07398003843786684,-0.07398003843786684
-0.03713242809191072,-0.03713242809191072
-0.05255700916696212,-0.05255700916696212
-0.03713242809191072,-0.03713242809191072
0.03484895025832915,0.03484895025832915
0.1162564614877671,0.1162564614877671
0.1316810425628185,0.1316810425628185
0.1162564614877671,0.1162564614877671
0.12739643670863757,0.12739643670863757
0.1925224456921879,0.1925224456921879
0.26707458755493635,0.26707458755493635
0.34591133527186574,0.34591133527186574
0.4444572699180275,0.4444572699180275
0.5755662090559643,0.5755662090559643
0.6852521189229965,0.6852521189229965
0.7289550986356422,0.7289550986356422
0.6989628576563756,0.6989628576563756
0.6526891144312214,0.6526891144312214
0.6184122675977738,0.6184122675977738
0.6141276617435929,0.6141276617435929
0.6329799275019891,0.6329799275019891
0.6903936459480137,0.6903936459480137
0.7452366008815298,0.7452366008815298
0.7289550986356422,0.7289550986356422
0.5909907901310157,0.5909907901310157
0.38447278795949424,0.38447278795949424
0.16595788939626605,0.16595788939626605
-0.03713242809191072,-0.03713242809191072
-0.23508121855507036,-0.23508121855507036
-0.3816147387680587,-0.3816147387680587
-0.4655930135100052,-0.4655930135100052
-0.496442175660108,-0.496442175660108
-0.528148258981047,-0.528148258981047
-0.5350036283477365,-0.5350036283477365
-0.5350036283477365,-0.5350036283477365
-0.5350036283477365,-0.5350036283477365
-0.5538558941061327,-0.5538558941061327
-0.5350036283477365,-0.5350036283477365
-0.4990129391726166,-0.4990129391726166
-0.496442175660108,-0.496442175660108
-0.5410020765435898,-0.5410020765435898
-0.5350036283477365,-0.5350036283477365
-0.45102535360579,-0.45102535360579
-0.3816147387680587,-0.3816147387680587
-0.4098931374056529,-0.4098931374056529
-0.4201761914556872,-0.4201761914556872
-0.2239412433341999,-0.2239412433341999
0.2696453510674449,0.2696453510674449
0.9928868192531883,0.9928868192531883
1.8780863887269716,1.8780863887269716
2.855833444651063,2.855833444651063
3.792448284375018,3.792448284375018
4.418857660256272,4.418857660256272
4.5199743584149426,4.5199743584149426
4.092370694167684,4.092370694167684
3.370843068323613,3.370843068323613
2.574763300616793,2.574763300616793
1.7632589518349222,1.7632589518349222
0.868633249481941,0.868633249481941
-0.07483695960870303,-0.07483695960870303
-0.9197612340531853,-0.9197612340531853
-1.4921845761717596,-1.4921845761717596
-1.752688612105961,-1.752688612105961
-1.7604009026434866,-1.7604009026434866
-1.6250073576513688,-1.6250073576513688
-1.4150616707965025,-1.4150616707965025
-1.1828360334998953,-1.1828360334998953
-0.9557519232283053,-0.9557519232283053
-0.795507664281938,-0.795507664281938
-0.7260970494442066,-0.7260970494442066
-0.7295247341275514,-0.7295247341275514
-0.7260970494442066,-0.7260970494442066
-0.7175278377358447,-0.7175278377358447
-0.7260970494442066,-0.7260970494442066
-0.7698000291568523,-0.7698000291568523
-0.7646585021318352,-0.7646585021318352
-0.7072447836858105,-0.7072447836858105
-0.6498310652397858,-0.6498310652397858
-0.6626848828023286,-0.6626848828023286
-0.6875355967565782,-0.6875355967565782
-0.6798233062190524,-0.6798233062190524
-0.6498310652397858,-0.6498310652397858
-0.6481172228981135,-0.6481172228981135
-0.6498310652397858,-0.6498310652397858
-0.6309787994813897,-0.6309787994813897
-0.6112696125521573,-0.6112696125521573
-0.6198388242605192,-0.6198388242605192
-0.6112696125521573,-0.6112696125521573
-0.5581404999603136,-0.5581404999603136
-0.496442175660108,-0.496442175660108
-0.48701604278090993,-0.48701604278090993
-0.496442175660108,-0.496442175660108
-0.4664499346808414,-0.4664499346808414
-0.3816147387680587,-0.3816147387680587
-0.3036349122219655,-0.3036349122219655
-0.26678730187600935,-0.26678730187600935
-0.27449959241353505,-0.27449959241353505
-0.30534875456363786,-0.30534875456363786
-0.35933478832631777,-0.35933478832631777
-0.4201761914556872,-0.4201761914556872
-0.4733053040475309,-0.4733053040475309
-0.496442175660108,-0.496442175660108
-0.5015837026851251,-0.5015837026851251
-0.496442175660108,-0.496442175660108
-0.4990129391726166,-0.4990129391726166
-0.496442175660108,-0.496442175660108
-0.49472833331843563,-0.49472833331843563
-0.496442175660108,-0.496442175660108
-0.5272913378102108,-0.5272913378102108
-0.5727081598645288,-0.5727081598645288
-0.6121265337229935,-0.6121265337229935
-0.6112696125521573,-0.6112696125521573
-0.5907035044520887,-0.5907035044520887
-0.5727081598645288,-0.5727081598645288
-0.5795635292312183,-0.5795635292312183
-0.5727081598645288,-0.5727081598645288
-0.5324328648352279,-0.5324328648352279
-0.4578807229724795,-0.4578807229724795
-0.4021808468681272,-0.4021808468681272
-0.3816147387680587,-0.3816147387680587
-0.39104087164725676,-0.39104087164725676
-0.3816147387680587,-0.3816147387680587
-0.3404825225679216,-0.3404825225679216
-0.26678730187600935,-0.26678730187600935
-0.18280902713406283,-0.18280902713406283
-0.07483695960870303,-0.07483695960870303
0.053701216016725305,0.053701216016725305
0.1925224456921879,0.1925224456921879
0.2867837744841687,0.2867837744841687
0.30734988258423723,0.30734988258423723
0.2567915335049021,0.2567915335049021
0.1925224456921879,0.1925224456921879
0.15396099300455943,0.15396099300455943
0.15481791417539562,0.15481791417539562
0.14710562363786991,0.14710562363786991
0.1162564614877671,0.1162564614877671
0.08712114167933667,0.08712114167933667
0.1162564614877671,0.1162564614877671
0.16338712588375748,0.16338712588375748
0.15481791417539562,0.15481791417539562
0.07683808762930242,0.07683808762930242
0.03999047728334629,0.03999047728334629
0.0785519299709748,0.0785519299709748
0.1162564614877671,0.1162564614877671
0.05969966421257863,0.05969966421257863
-0.03713242809191072,-0.03713242809191072
-0.09711691005044394,-0.09711691005044394
-0.11339841229633153,-0.11339841229633153
-0.1399629685922534,-0.1399629685922534
-0.15195986498396002,-0.15195986498396002
-0.1236814663463658,-0.1236814663463658
-0.07483695960870303,-0.07483695960870303
-0.07569388077953922,-0.07569388077953922
-0.11339841229633153,-0.11339841229633153
-0.14938910147145146,-0.14938910147145146
-0.15195986498396002,-0.15195986498396002
-0.1536737073256324,-0.1536737073256324
-0.15195986498396002,-0.15195986498396002
-0.1322506780547277,-0.1322506780547277
-0.07483695960870303,-0.07483695960870303
-0.03199090106689358,-0.03199090106689358
-0.03713242809191072,-0.03713242809191072
-0.08597693482957348,-0.08597693482957348
-0.11339841229633153,-0.11339841229633153
-0.1236814663463658,-0.1236814663463658
-0.15195986498396002,-0.15195986498396002
-0.2162289527966742,-0.2162289527966742
-0.22822584918838085,-0.22822584918838085
-0.15024602264228765,-0.15024602264228765
-0.03713242809191072,-0.03713242809191072
-0.0011417389167907846,-0.0011417389167907846
-0.03713242809191072,-0.03713242809191072
-0.07055235375452208,-0.07055235375452208
-0.03713242809191072,-0.03713242809191072
0.022852053866622507,0.022852053866622507
0.0776950088001386,0.0776950088001386
0.1316810425628185,0.1316810425628185
0.2310838983798164,0.2310838983798164
0.3561943893219,0.3561943893219
0.46073877216391507,0.46073877216391507
0.5155817270974311,0.5155817270974311
0.5755662090559643,0.5755662090559643
0.6775398283854709,0.6775398283854709
0.805221082840063,0.805221082840063
0.8797732247028115,0.8797732247028115
0.88234398821532,0.88234398821532
0.8403548508443468,0.8403548508443468
0.805221082840063,0.805221082840063
0.7538058125898917,0.7538058125898917
0.6526891144312214,0.6526891144312214
0.4881602496306731,0.4881602496306731
0.30734988258423723,0.30734988258423723
0.12054106734194804,0.12054106734194804
-0.07483695960870303,-0.07483695960870303
-0.2779272770968798,-0.2779272770968798
-0.4201761914556872,-0.4201761914556872
-0.48615912161007374,-0.48615912161007374
-0.496442175660108,-0.496442175660108
-0.4981560180017804,-0.4981560180017804
-0.4578807229724795,-0.4578807229724795
-0.4124639009181615,-0.4124639009181615
-0.4201761914556872,-0.4201761914556872
-0.5212928896143575,-0.5212928896143575
-0.6112696125521573,-0.6112696125521573
-0.6206957454313554,-0.6206957454313554
-0.5727081598645288,-0.5727081598645288
-0.5598543423019859,-0.5598543423019859
-0.5727081598645288,-0.5727081598645288
-0.5727081598645288,-0.5727081598645288
-0.5350036283477365,-0.5350036283477365
-0.464736092339169,-0.464736092339169
-0.30534875456363786,-0.30534875456363786
-0.00028481774595459565,-0.00028481774595459565
0.46073877216391507,0.46073877216391507
1.035732877794998,1.035732877794998
1.7246974991472936,1.7246974991472936
2.510494212804079,2.510494212804079
3.294577084119192,3.294577084119192
3.8481481604793704,3.8481481604793704
3.983541705471488,3.983541705471488
3.6870469803621666,3.6870469803621666
3.141188194539514,3.141188194539514
2.5156357398290963,2.5156357398290963
1.839524936039343,1.839524936039343
1.0143098485240931,1.0143098485240931
0.03999047728334629,0.03999047728334629
-0.9171904705406767,-0.9171904705406767
-1.6070120130638088,-1.6070120130638088
-1.9292143732982159,-1.9292143732982159
-1.951494323739957,-1.951494323739957
-1.810959251722822,-1.810959251722822
-1.5684505603761802,-1.5684505603761802
-1.2839527316585657,-1.2839527316585657
-1.0328748286035623,-1.0328748286035623
-0.8940535989280997,-0.8940535989280997
-0.8409244863362559,-0.8409244863362559
-0.8160737723820065,-0.8160737723820065
-0.7646585021318352,-0.7646585021318352
-0.6875355967565782,-0.6875355967565782
-0.5727081598645288,-0.5727081598645288
-0.4887298851225823,-0.4887298851225823
-0.496442175660108,-0.496442175660108
-0.6258372724563726,-0.6258372724563726
-0.7646585021318352,-0.7646585021318352
-0.8374968016529112,-0.8374968016529112
-0.8409244863362559,-0.8409244863362559
-0.8452090921904369,-0.8452090921904369
-0.8409244863362559,-0.8409244863362559
-0.8006491913069551,-0.8006491913069551
-0.7260970494442066,-0.7260970494442066
-0.6721110156815268,-0.6721110156815268
-0.6498310652397858,-0.6498310652397858
-0.6292649571397173,-0.6292649571397173
-0.5727081598645288,-0.5727081598645288
-0.5058683085393061,-0.5058683085393061
-0.4578807229724795,-0.4578807229724795
-0.4407422995557557,-0.4407422995557557
-0.4201761914556872,-0.4201761914556872
-0.3936116351597653,-0.3936116351597653
-0.3816147387680587,-0.3816147387680587
-0.405608531551472,-0.405608531551472
-0.4201761914556872,-0.4201761914556872
-0.38504242345140344,-0.38504242345140344
-0.30534875456363786,-0.30534875456363786
-0.26593038070517316,-0.26593038070517316
-0.30534875456363786,-0.30534875456363786
-0.37733013291387774,-0.37733013291387774
-0.3816147387680587,-0.3816147387680587
-0.3173456509553445,-0.3173456509553445
-0.26678730187600935,-0.26678730187600935
-0.3036349122219655,-0.3036349122219655
-0.3816147387680587,-0.3816147387680587
-0.43988537838491953,-0.43988537838491953
-0.4578807229724795,-0.4578807229724795
-0.47844683107254804,-0.47844683107254804
-0.496442175660108,-0.496442175660108
-0.5032975450267975,-0.5032975450267975
-0.496442175660108,-0.496442175660108
-0.5015837026851251,-0.5015837026851251
-0.496442175660108,-0.496442175660108
-0.46816377702251377,-0.46816377702251377
-0.4201761914556872,-0.4201761914556872
-0.39189779281809295,-0.39189779281809295
-0.3816147387680587,-0.3816147387680587
-0.38504242345140344,-0.38504242345140344
-0.3816147387680587,-0.3816147387680587
-0.3644763153513349,-0.3644763153513349
-0.30534875456363786,-0.30534875456363786
-0.22565508567587228,-0.22565508567587228
-0.15195986498396002,-0.15195986498396002
-0.092832304196263,-0.092832304196263
0.0014290245957177823,0.0014290245957177823
0.11797030382943947,0.11797030382943947
0.1925224456921879,0.1925224456921879
0.17367017993379175,0.17367017993379175
0.1162564614877671,0.1162564614877671
0.0699827182626129,0.0699827182626129
0.03999047728334629,0.03999047728334629
0.003999788108226349,0.003999788108226349
0.0014290245957177823,0.0014290245957177823
0.028850502062475827,0.028850502062475827
0.03999047728334629,0.03999047728334629
0.004856709279062538,0.004856709279062538
0.0014290245957177823,0.0014290245957177823
0.061413506554251006,0.061413506554251006
0.1162564614877671,0.1162564614877671
0.0699827182626129,0.0699827182626129
-0.03713242809191072,-0.03713242809191072
-0.12196762400469342,-0.12196762400469342
-0.15195986498396002,-0.15195986498396002
-0.16567060371733905,-0.16567060371733905
-0.15195986498396002,-0.15195986498396002
-0.09454614653793537,-0.09454614653793537
0.0014290245957177823,0.0014290245957177823
0.0785519299709748,0.0785519299709748
0.1162564614877671,0.1162564614877671
0.09911803807104332,0.09911803807104332
0.03999047728334629,0.03999047728334629
-0.04998624565445355,-0.04998624565445355
-0.11339841229633153,-0.11339841229633153
-0.12967991454221914,-0.12967991454221914
-0.11339841229633153,-0.11339841229633153
-0.1322506780547277,-0.1322506780547277
-0.18966439650075234,-0.18966439650075234
-0.24450735143426844,-0.24450735143426844
-0.22822584918838085,-0.22822584918838085
-0.17852442127988188,-0.17852442127988188
-0.15195986498396002,-0.15195986498396002
-0.15967215552148573,-0.15967215552148573
-0.11339841229633153,-0.11339841229633153
-0.006283265941807919,-0.006283265941807919
0.0776950088001386,0.0776950088001386
0.045988925479199604,0.045988925479199604
-0.03713242809191072,-0.03713242809191072
-0.07483695960870303,-0.07483695960870303
-0.03713242809191072,-0.03713242809191072
0.005713630449898727,0.005713630449898727
0.03999047728334629,0.03999047728334629
0.07083963943344909,0.07083963943344909
0.1162564614877671,0.1162564614877671
0.15310407183372324,0.15310407183372324
0.1925224456921879,0.1925224456921879
0.21994392315894595,0.21994392315894595
0.2310838983798164,0.2310838983798164
0.24136695242985068,0.24136695242985068
0.30734988258423723,0.30734988258423723
0.4041819748887266,0.4041819748887266
0.46073877216391507,0.46073877216391507
0.4573110874805703,0.4573110874805703
0.4993002248515436,0.4993002248515436
0.6381214545270062,0.6381214545270062
0.805221082840063,0.805221082840063
0.8909131999236819,0.8909131999236819
0.9200485197321123,0.9200485197321123
0.9543253665655599,0.9543253665655599
0.9971714251073693,0.9971714251073693
0.9663222629572665,0.9663222629572665
0.8437825355276916,0.8437825355276916
0.6595444837979109,0.6595444837979109
0.46073877216391507,0.46073877216391507
0.24479463711319543,0.24479463711319543
0.03999047728334629,0.03999047728334629
-0.12967991454221914,-0.12967991454221914
-0.22822584918838085,-0.22822584918838085
-0.28135496178022457,-0.28135496178022457
-0.30534875456363786,-0.30534875456363786
-0.342196364909594,-0.342196364909594
-0.3816147387680587,-0.3816147387680587
-0.4407422995557557,-0.4407422995557557
-0.496442175660108,-0.496442175660108
-0.5632820269853307,-0.5632820269853307
-0.6112696125521573,-0.6112696125521573
-0.6335495629938982,-0.6335495629938982
-0.6112696125521573,-0.6112696125521573
-0.5855619774270716,-0.5855619774270716
-0.5727081598645288,-0.5727081598645288
-0.5624251058144946,-0.5624251058144946
-0.496442175660108,-0.496442175660108
-0.38504242345140344,-0.38504242345140344
-0.26678730187600935,-0.26678730187600935
-0.14253373210476197,-0.14253373210476197
0.1162564614877671,0.1162564614877671
0.6304091639894804,0.6304091639894804
1.417919719987938,1.417919719987938
2.3433945844910222,2.3433945844910222
3.218311099914771,3.218311099914771
3.836151264087664,3.836151264087664
4.060664610846745,4.060664610846745
3.861001978041913,3.861001978041913
3.370843068323613,3.370843068323613
2.7572875100049012,2.7572875100049012
2.10774126251107,2.10774126251107
1.357935238029405,1.357935238029405
0.46073877216391507,0.46073877216391507
-0.4895868062934185,-0.4895868062934185
-1.262529702387661,-1.262529702387661
-1.7175548441016772,-1.7175548441016772
-1.875228339535536,-1.875228339535536
-1.8366668868479075,-1.8366668868479075
-1.6455734657514374,-1.6455734657514374
-1.3662171640588399,-1.3662171640588399
-1.1091408128079832,-1.1091408128079832
-0.9643211349366672,-0.9643211349366672
-0.8794859390238845,-0.8794859390238845
-0.7869384525735761,-0.7869384525735761
-0.6875355967565782,-0.6875355967565782
-0.650687986410622,-0.650687986410622
-0.6498310652397858,-0.6498310652397858
-0.6455464593856048,-0.6455464593856048
-0.6112696125521573,-0.6112696125521573
-0.6001296373312869,-0.6001296373312869
-0.6112696125521573,-0.6112696125521573
-0.6481172228981135,-0.6481172228981135
-0.6875355967565782,-0.6875355967565782
-0.727810891785879,-0.727810891785879
-0.7260970494442066,-0.7260970494442066
-0.6901063602690867,-0.6901063602690867
-0.6498310652397858,-0.6498310652397858
-0.6326926418230621,-0.6326926418230621
-0.6112696125521573,-0.6112696125521573
-0.573565081035365,-0.573565081035365
-0.5350036283477365,-0.5350036283477365
-0.5187221261018489,-0.5187221261018489
-0.496442175660108,-0.496442175660108
-0.4570238018016433,-0.4570238018016433
-0.4201761914556872,-0.4201761914556872
-0.4287454031640491,-0.4287454031640491
-0.4578807229724795,-0.4578807229724795
-0.46302224999749664,-0.46302224999749664
-0.4201761914556872,-0.4201761914556872
-0.3816147387680587,-0.3816147387680587
-0.3816147387680587,-0.3816147387680587
-0.4030377680389634,-0.4030377680389634
-0.3816147387680587,-0.3816147387680587
-0.32934254734705115,-0.32934254734705115
-0.30534875456363786,-0.30534875456363786
-0.3430532860804302,-0.3430532860804302
-0.3816147387680587,-0.3816147387680587
-0.37475936940136917,-0.37475936940136917
-0.3430532860804302,-0.3430532860804302
-0.3507655766179559,-0.3507655766179559
-0.3816147387680587,-0.3816147387680587
-0.3970393198431101,-0.3970393198431101
-0.3816147387680587,-0.3816147387680587
-0.38504242345140344,-0.38504242345140344
-0.4201761914556872,-0.4201761914556872
-0.47073454053502234,-0.47073454053502234
-0.496442175660108,-0.496442175660108
-0.5032975450267975,-0.5032975450267975
-0.496442175660108,-0.496442175660108
-0.48701604278090993,-0.48701604278090993
-0.4578807229724795,-0.4578807229724795
-0.42960232433488527,-0.42960232433488527
-0.4201761914556872,-0.4201761914556872
-0.44502690540993667,-0.44502690540993667
-0.4578807229724795,-0.4578807229724795
-0.41503466443067005,-0.41503466443067005
-0.30534875456363786,-0.30534875456363786
-0.1999474505507866,-0.1999474505507866
-0.15195986498396002,-0.15195986498396002
-0.15881523435064954,-0.15881523435064954
-0.15195986498396002,-0.15195986498396002
-0.10397227941713345,-0.10397227941713345
-0.03713242809191072,-0.03713242809191072
-0.004569423600135541,-0.004569423600135541
0.0014290245957177823,0.0014290245957177823
0.007427472791571105,0.007427472791571105
0.03999047728334629,0.03999047728334629
0.0699827182626129,0.0699827182626129
0.0776950088001386,0.0776950088001386
0.0391335561125101,0.0391335561125101
-0.03713242809191072,-0.03713242809191072
-0.13910604742141722,-0.13910604742141722
-0.22822584918838085,-0.22822584918838085
-0.2873534099760779,-0.2873534099760779
-0.30534875456363786,-0.30534875456363786
-0.30620567573447405,-0.30620567573447405
-0.30534875456363786,-0.30534875456363786
-0.33105638968872353,-0.33105638968872353
-0.3816147387680587,-0.3816147387680587
-0.4501684324349538,-0.4501684324349538
-0.496442175660108,-0.496442175660108
-0.5110098355643232,-0.5110098355643232
-0.496442175660108,-0.496442175660108
-0.4895868062934185,-0.4895868062934185
-0.496442175660108,-0.496442175660108
-0.510152914393487,-0.510152914393487
-0.496442175660108,-0.496442175660108
-0.4724483828766947,-0.4724483828766947
-0.4578807229724795,-0.4578807229724795
-0.47673298873087566,-0.47673298873087566
-0.496442175660108,-0.496442175660108
-0.5058683085393061,-0.5058683085393061
-0.496442175660108,-0.496442175660108
-0.4758760675600395,-0.4758760675600395
-0.4201761914556872,-0.4201761914556872
-0.36019170949715396,-0.36019170949715396
-0.3430532860804302,-0.3430532860804302
-0.387613186963912,-0.387613186963912
-0.4201761914556872,-0.4201761914556872
-0.40817929506398054,-0.40817929506398054
-0.3816147387680587,-0.3816147387680587
-0.3978962410139463,-0.3978962410139463
-0.4201761914556872,-0.4201761914556872
-0.41589158560150624,-0.41589158560150624
-0.3816147387680587,-0.3816147387680587
-0.3413394437387578,-0.3413394437387578
-0.26678730187600935,-0.26678730187600935
-0.18195210596322664,-0.18195210596322664
-0.15195986498396002,-0.15195986498396002
-0.21194434694249326,-0.21194434694249326
-0.26678730187600935,-0.26678730187600935
-0.2393658244092513,-0.2393658244092513
-0.15195986498396002,-0.15195986498396002
-0.08597693482957348,-0.08597693482957348
-0.03713242809191072,-0.03713242809191072
0.027993580891639638,0.027993580891639638
0.1162564614877671,0.1162564614877671
0.19080860335051553,0.19080860335051553
0.2696453510674449,0.2696453510674449
0.3647636010302619,0.3647636010302619
0.46073877216391507,0.46073877216391507
0.5044417518765607,0.5044417518765607
0.4993002248515436,0.4993002248515436
0.47616335323896647,0.47616335323896647
0.46073877216391507,0.46073877216391507
0.41360810776792467,0.41360810776792467
0.30734988258423723,0.30734988258423723
0.1393933331003442,0.1393933331003442
-0.03713242809191072,-0.03713242809191072
-0.19052131767158853,-0.19052131767158853
-0.30534875456363786,-0.30534875456363786
-0.4107500585764891,-0.4107500585764891
-0.496442175660108,-0.496442175660108
-0.5589974211311498,-0.5589974211311498
-0.5727081598645288,-0.5727081598645288
-0.5847050562562355,-0.5847050562562355
-0.6112696125521573,-0.6112696125521573
-0.6763956215357076,-0.6763956215357076
-0.7260970494442066,-0.7260970494442066
-0.7440923940317666,-0.7440923940317666
-0.7260970494442066,-0.7260970494442066
-0.7200986012483533,-0.7200986012483533
-0.7260970494442066,-0.7260970494442066
-0.7355231823234047,-0.7355231823234047
-0.7260970494442066,-0.7260970494442066
-0.7012463354899572,-0.7012463354899572
-0.6498310652397858,-0.6498310652397858
-0.5709943175228565,-0.5709943175228565
-0.4201761914556872,-0.4201761914556872
-0.09968767356295251,-0.09968767356295251
0.4993002248515436,0.4993002248515436
1.3245153123667934,1.3245153123667934
2.2225686994031193,2.2225686994031193
3.087202160776834,3.087202160776834
3.868714268579439,3.868714268579439
4.333165543172654,4.333165543172654
4.1754920477387945,4.1754920477387945
3.422258338573784,3.422258338573784
2.528489557391639,2.528489557391639
1.8086757738892403,1.8086757738892403
1.1119988619994186,1.1119988619994186
0.17881170695880888,0.17881170695880888
-0.8409244863362559,-0.8409244863362559
-1.5915874319887575,-1.5915874319887575
-1.951494323739957,-1.951494323739957
-2.0808894205362214,-2.0808894205362214
-2.066321760632006,-2.066321760632006
-1.8743714183646998,-1.8743714183646998
-1.529889107688552,-1.529889107688552
-1.208543668624981,-1.208543668624981
-1.0328748286035623,-1.0328748286035623
-0.9857441642075718,-0.9857441642075718
-0.9557519232283053,-0.9557519232283053
-0.9026228106364615,-0.9026228106364615
-0.8409244863362559,-0.8409244863362559
-0.8297845111153855,-0.8297845111153855
-0.8409244863362559,-0.8409244863362559
-0.8443521710196007,-0.8443521710196007
-0.8023630336486275,-0.8023630336486275
-0.7603738962776542,-0.7603738962776542
-0.7260970494442066,-0.7260970494442066
-0.6986755719774486,-0.6986755719774486
-0.6498310652397858,-0.6498310652397858
-0.6112696125521573,-0.6112696125521573
-0.6112696125521573,-0.6112696125521573
-0.6438326170439325,-0.6438326170439325
-0.6498310652397858,-0.6498310652397858
-0.6155542184063383,-0.6155542184063383
-0.5727081598645288,-0.5727081598645288
-0.555569736447805,-0.555569736447805
-0.5350036283477365,-0.5350036283477365
-0.5067252297101422,-0.5067252297101422
-0.496442175660108,-0.496442175660108
-0.5255774954685384,-0.5255774954685384
-0.5350036283477365,-0.5350036283477365
-0.4990129391726166,-0.4990129391726166
-0.4578807229724795,-0.4578807229724795
-0.46902069819334996,-0.46902069819334996
-0.496442175660108,-0.496442175660108
-0.49387141214759944,-0.49387141214759944
-0.4578807229724795,-0.4578807229724795
-0.4261746396515405,-0.4261746396515405
-0.3816147387680587,-0.3816147387680587
-0.31991641446785307,-0.31991641446785307
-0.26678730187600935,-0.26678730187600935
-0.2702149865593541,-0.2702149865593541
-0.30534875456363786,-0.30534875456363786
-0.3353409955429045,-0.3353409955429045
-0.3430532860804302,-0.3430532860804302
-0.35933478832631777,-0.35933478832631777
-0.3816147387680587,-0.3816147387680587
-0.4047516103806358,-0.4047516103806358
-0.4201761914556872,-0.4201761914556872
-0.45445303828913475,-0.45445303828913475
-0.496442175660108,-0.496442175660108
-0.5221498107851936,-0.5221498107851936
-0.496442175660108,-0.496442175660108
-0.4595945653141519,-0.4595945653141519
-0.4578807229724795,-0.4578807229724795
-0.4972990968309442,-0.4972990968309442
-0.496442175660108,-0.496442175660108
-0.419319270284851,-0.419319270284851
-0.30534875456363786,-0.30534875456363786
-0.2393658244092513,-0.2393658244092513
-0.22822584918838085,-0.22822584918838085
-0.2402227455800875,-0.2402227455800875
-0.22822584918838085,-0.22822584918838085
-0.19052131767158853,-0.19052131767158853
-0.11339841229633153,-0.11339841229633153
-0.025992452871040263,-0.025992452871040263
0.03999047728334629,0.03999047728334629
0.05884274304174244,0.05884274304174244
0.0776950088001386,0.0776950088001386
0.12482567319612899,0.12482567319612899
0.1925224456921879,0.1925224456921879
0.22937005603814403,0.22937005603814403
0.2310838983798164,0.2310838983798164
0.21051779027974787,0.21051779027974787
0.1925224456921879,0.1925224456921879
0.1608163623712489,0.1608163623712489
0.1162564614877671,0.1162564614877671
0.054558137187561494,0.054558137187561494
0.0014290245957177823,0.0014290245957177823
-0.03370474340856596,-0.03370474340856596
-0.03713242809191072,-0.03713242809191072
-0.03199090106689358,-0.03199090106689358
-0.03713242809191072,-0.03713242809191072
-0.07226619609619446,-0.07226619609619446
-0.11339841229633153,-0.11339841229633153
-0.1459614167881067,-0.1459614167881067
-0.15195986498396002,-0.15195986498396002
-0.15195986498396002,-0.15195986498396002
-0.15195986498396002,-0.15195986498396002
-0.16995520957152,-0.16995520957152
-0.18966439650075234,-0.18966439650075234
-0.20423205640496755,-0.20423205640496755
-0.18966439650075234,-0.18966439650075234
-0.1690982884006838,-0.1690982884006838
-0.15195986498396002,-0.15195986498396002
-0.15538754966730478,-0.15538754966730478
-0.15195986498396002,-0.15195986498396002
-0.13739220507974484,-0.13739220507974484
-0.11339841229633153,-0.11339841229633153
-0.12282454517552961,-0.12282454517552961
-0.15195986498396002,-0.15195986498396002
-0.1536737073256324,-0.1536737073256324
-0.07483695960870303,-0.07483695960870303
0.02113821152495013,0.02113821152495013
0.03999047728334629,0.03999047728334629
-0.05512777267947069,-0.05512777267947069
-0.15195986498396002,-0.15195986498396002
-0.1690982884006838,-0.1690982884006838
-0.11339841229633153,-0.11339841229633153
-0.0688385114128497,-0.0688385114128497
-0.03713242809191072,-0.03713242809191072
-0.0028555812584631626,-0.0028555812584631626
0.03999047728334629,0.03999047728334629
0.05884274304174244,0.05884274304174244
0.0776950088001386,0.0776950088001386
0.11968414617111185,0.11968414617111185
0.1925224456921879,0.1925224456921879
0.26621766638410016,0.26621766638410016
0.34591133527186574,0.34591133527186574
0.42474808298879513,0.42474808298879513
0.4993002248515436,0.4993002248515436
0.5635693126642577,0.5635693126642577
0.6526891144312214,0.6526891144312214
0.7452366008815298,0.7452366008815298
0.805221082840063,0.805221082840063
0.8172179792317696,0.8172179792317696
0.8437825355276916,0.8437825355276916
0.8857716728986648,0.8857716728986648
0.88234398821532,0.88234398821532
0.782084211227486,0.782084211227486
0.6526891144312214,0.6526891144312214
0.5327201505141549,0.5327201505141549
0.38447278795949424,0.38447278795949424
0.14539178129619754,0.14539178129619754
-0.11339841229633153,-0.11339841229633153
-0.3002072275386207,-0.3002072275386207
-0.3816147387680587,-0.3816147387680587
-0.42960232433488527,-0.42960232433488527
-0.4578807229724795,-0.4578807229724795
-0.48615912161007374,-0.48615912161007374
-0.496442175660108,-0.496442175660108
-0.5118667567351594,-0.5118667567351594
-0.496442175660108,-0.496442175660108
-0.46987761936418615,-0.46987761936418615
-0.4578807229724795,-0.4578807229724795
-0.4878729639517461,-0.4878729639517461
-0.496442175660108,-0.496442175660108
-0.46216532882666045,-0.46216532882666045
-0.4201761914556872,-0.4201761914556872
-0.4107500585764891,-0.4107500585764891
-0.3816147387680587,-0.3816147387680587
-0.2933518581719312,-0.2933518581719312
-0.11339841229633153,-0.11339841229633153
0.24479463711319543,0.24479463711319543
0.9200485197321123,0.9200485197321123
1.848951068918541,1.848951068918541
2.7967058838633663,2.7967058838633663
3.6142086808410907,3.6142086808410907
4.3288809373184725,4.3288809373184725
4.790761448399178,4.790761448399178
4.6733632479946206,4.6733632479946206
3.9141310906337567,3.9141310906337567
2.950094773443044,2.950094773443044
2.13259197646532,2.13259197646532
1.3416537357835172,1.3416537357835172
0.3399128870760124,0.3399128870760124
-0.6875355967565782,-0.6875355967565782
-1.385069429817236,-1.385069429817236
-1.6832779972682297,-1.6832779972682297
-1.7878223801102446,-1.7878223801102446
-1.7604009026434866,-1.7604009026434866
-1.543599846421931,-1.543599846421931
-1.1854067970124038,-1.1854067970124038
-0.8940535989280997,-0.8940535989280997
-0.7646585021318352,-0.7646585021318352
-0.7432354728609304,-0.7432354728609304
-0.7260970494442066,-0.7260970494442066
-0.7063878625149743,-0.7063878625149743
-0.6875355967565782,-0.6875355967565782
-0.6832509909023972,-0.6832509909023972
-0.6498310652397858,-0.6498310652397858
-0.6078419278688125,-0.6078419278688125
-0.5727081598645288,-0.5727081598645288
-0.5787066080603821,-0.5787066080603821
-0.5727081598645288,-0.5727081598645288
-0.5410020765435898,-0.5410020765435898
-0.496442175660108,-0.496442175660108
-0.4904437274642547,-0.4904437274642547
-0.496442175660108,-0.496442175660108
-0.4664499346808414,-0.4664499346808414
-0.3816147387680587,-0.3816147387680587
-0.28906725231775027,-0.28906725231775027
-0.22822584918838085,-0.22822584918838085
-0.2247981645050361,-0.2247981645050361
-0.26678730187600935,-0.26678730187600935
-0.3336271532012321,-0.3336271532012321
-0.3816147387680587,-0.3816147387680587
-0.40817929506398054,-0.40817929506398054
-0.4201761914556872,-0.4201761914556872
-0.4201761914556872,-0.4201761914556872
-0.3816147387680587,-0.3816147387680587
-0.3276287050053788,-0.3276287050053788
-0.30534875456363786,-0.30534875456363786
-0.3336271532012321,-0.3336271532012321
-0.3430532860804302,-0.3430532860804302
-0.29763646402611216,-0.29763646402611216
-0.22822584918838085,-0.22822584918838085
-0.2093735834299847,-0.2093735834299847
-0.22822584918838085,-0.22822584918838085
-0.24622119377594082,-0.24622119377594082
-0.22822584918838085,-0.22822584918838085
-0.19566284469660566,-0.19566284469660566
-0.15195986498396002,-0.15195986498396002
-0.12882299337138295,-0.12882299337138295
-0.15195986498396002,-0.15195986498396002
-0.24279350909259606,-0.24279350909259606
-0.3430532860804302,-0.3430532860804302
-0.39875316218478246,-0.39875316218478246
-0.3816147387680587,-0.3816147387680587
-0.3404825225679216,-0.3404825225679216
-0.30534875456363786,-0.30534875456363786
-0.28906725231775027,-0.28906725231775027
-0.26678730187600935,-0.26678730187600935
-0.2479350361176132,-0.2479350361176132
-0.22822584918838085,-0.22822584918838085
-0.2076597410883123,-0.2076597410883123
-0.15195986498396002,-0.15195986498396002
-0.07398003843786684,-0.07398003843786684
0.0014290245957177823,0.0014290245957177823
0.05198737367505293,0.05198737367505293
0.1162564614877671,0.1162564614877671
0.20623318442556693,0.20623318442556693
0.30734988258423723,0.30734988258423723
0.37418973390946,0.37418973390946
0.42303424064712275,0.42303424064712275
0.4641664568472598,0.4641664568472598
0.4993002248515436,0.4993002248515436
0.4813048802639836,0.4813048802639836
0.42303424064712275,0.42303424064712275
0.3716189703969514,0.3716189703969514
0.38447278795949424,0.38447278795949424
0.42132039830545037,0.42132039830545037
0.42303424064712275,0.42303424064712275
0.35276670463855525,0.35276670463855525
0.2696453510674449,0.2696453510674449
0.21480239613392882,0.21480239613392882
0.1925224456921879,0.1925224456921879
0.156531756517068,0.156531756517068
0.1162564614877671,0.1162564614877671
0.09654727455853475,0.09654727455853475
0.1162564614877671,0.1162564614877671
0.12825335787947376,0.12825335787947376
0.1162564614877671,0.1162564614877671
0.09397651104602618,0.09397651104602618
0.1162564614877671,0.1162564614877671
0.16510096822542986,0.16510096822542986
0.1925224456921879,0.1925224456921879
0.14967638715037848,0.14967638715037848
0.0776950088001386,0.0776950088001386
0.030564344404148205,0.030564344404148205
0.03999047728334629,0.03999047728334629
0.05113045250421674,0.05113045250421674
0.03999047728334629,0.03999047728334629
0.014282842158260617,0.014282842158260617
0.03999047728334629,0.03999047728334629
0.11111493446274996,0.11111493446274996
0.1925224456921879,0.1925224456921879
0.22937005603814403,0.22937005603814403
0.2310838983798164,0.2310838983798164
0.19080860335051553,0.19080860335051553
0.1162564614877671,0.1162564614877671
0.026279738549967263,0.026279738549967263
0.0014290245957177823,0.0014290245957177823
0.04855968899170817,0.04855968899170817
0.1162564614877671,0.1162564614877671
0.12653951553780138,0.12653951553780138
0.1162564614877671,0.1162564614877671
0.1333948849044909,0.1333948849044909
0.1925224456921879,0.1925224456921879
0.23793926774650592,0.23793926774650592
0.2696453510674449,0.2696453510674449
0.3184898578051077,0.3184898578051077
0.42303424064712275,0.42303424064712275
0.5464308892475339,0.5464308892475339
0.6526891144312214,0.6526891144312214
0.714387438731427,0.714387438731427
0.7675165513232707,0.7675165513232707
0.832642560306821,0.832642560306821
0.9200485197321123,0.9200485197321123
0.9817468440323179,0.9817468440323179
0.9971714251073693,0.9971714251073693
0.9826037652031541,0.9826037652031541
0.9971714251073693,0.9971714251073693
1.0194513755491101,1.0194513755491101
0.9971714251073693,0.9971714251073693
0.8934839634361905,0.8934839634361905
0.7675165513232707,0.7675165513232707
0.6424060603811871,0.6424060603811871
0.4993002248515436,0.4993002248515436
0.3039221979008925,0.3039221979008925
0.1162564614877671,0.1162564614877671
-0.025135531700204074,-0.025135531700204074
-0.11339841229633153,-0.11339841229633153
-0.20337513523413137,-0.20337513523413137
-0.26678730187600935,-0.26678730187600935
-0.3010641487094569,-0.3010641487094569
-0.30534875456363786,-0.30534875456363786
-0.33019946851788734,-0.33019946851788734
-0.3430532860804302,-0.3430532860804302
-0.3319133108595597,-0.3319133108595597
-0.30534875456363786,-0.30534875456363786
-0.3276287050053788,-0.3276287050053788
-0.3816147387680587,-0.3816147387680587
-0.4261746396515405,-0.4261746396515405
-0.4201761914556872,-0.4201761914556872
-0.3661901576930073,-0.3661901576930073
-0.26678730187600935,-0.26678730187600935
-0.14853218030061527,-0.14853218030061527
0.03999047728334629,0.03999047728334629
0.46073877216391507,0.46073877216391507
1.2653877515790966,1.2653877515790966
2.2756978119949633,2.2756978119949633
3.141188194539514,3.141188194539514
3.7316068812456487,3.7316068812456487
4.2131965792555865,4.2131965792555865
4.530257412464977,4.530257412464977
4.3288809373184725,4.3288809373184725
3.5053796921448943,3.5053796921448943
2.528489557391639,2.528489557391639
1.789823508130844,1.789823508130844
1.1119988619994186,1.1119988619994186
0.15053330832121467,0.15053330832121467
-0.9171904705406767,-0.9171904705406767
-1.621579672968024,-1.621579672968024
-1.798105434160279,-1.798105434160279
-1.7004164206849535,-1.7004164206849535
-1.529889107688552,-1.529889107688552
-1.308803445612815,-1.308803445612815
-1.0328748286035623,-1.0328748286035623
-0.7972215066236104,-0.7972215066236104
-0.6498310652397858,-0.6498310652397858
-0.5667097116686755,-0.5667097116686755
-0.496442175660108,-0.496442175660108
-0.4578807229724795,-0.4578807229724795
-0.4578807229724795,-0.4578807229724795
-0.5067252297101422,-0.5067252297101422
-0.5350036283477365,-0.5350036283477365
-0.5075821508809785,-0.5075821508809785
-0.4201761914556872,-0.4201761914556872
-0.3653332365221711,-0.3653332365221711
-0.3816147387680587,-0.3816147387680587
-0.44588382658077286,-0.44588382658077286
-0.4578807229724795,-0.4578807229724795
-0.3944685563306015,-0.3944685563306015
-0.30534875456363786,-0.30534875456363786
-0.28221188295106076,-0.28221188295106076
-0.3430532860804302,-0.3430532860804302
-0.43988537838491953,-0.43988537838491953
-0.496442175660108,-0.496442175660108
-0.496442175660108,-0.496442175660108
-0.4578807229724795,-0.4578807229724795
-0.43045924550572146,-0.43045924550572146
-0.4201761914556872,-0.4201761914556872
-0.41589158560150624,-0.41589158560150624
-0.3816147387680587,-0.3816147387680587
-0.3276287050053788,-0.3276287050053788
-0.26678730187600935,-0.26678730187600935
-0.20508897757580374,-0.20508897757580374
-0.11339841229633153,-0.11339841229633153
-0.013995556479333619,-0.013995556479333619
0.03999047728334629,0.03999047728334629
0.0014290245957177823,0.0014290245957177823
-0.07483695960870303,-0.07483695960870303
-0.12282454517552961,-0.12282454517552961
-0.11339841229633153,-0.11339841229633153
-0.1005445947337887,-0.1005445947337887
-0.11339841229633153,-0.11339841229633153
-0.15795831317981335,-0.15795831317981335
-0.18966439650075234,-0.18966439650075234
-0.19052131767158853,-0.19052131767158853
-0.15195986498396002,-0.15195986498396002
-0.12710915102971057,-0.12710915102971057
-0.15195986498396002,-0.15195986498396002
-0.2230843221633637,-0.2230843221633637
-0.26678730187600935,-0.26678730187600935
-0.2702149865593541,-0.2702149865593541
-0.26678730187600935,-0.26678730187600935
-0.2950657005136036,-0.2950657005136036
-0.30534875456363786,-0.30534875456363786
-0.265073459534337,-0.265073459534337
-0.18966439650075234,-0.18966439650075234
-0.1322506780547277,-0.1322506780547277
-0.07483695960870303,-0.07483695960870303
-0.004569423600135541,-0.004569423600135541
0.0776950088001386,0.0776950088001386
0.13853641192950802,0.13853641192950802
0.1925224456921879,0.1925224456921879
0.22851313486730784,0.22851313486730784
0.2310838983798164,0.2310838983798164
0.19595013037553266,0.19595013037553266
0.1925224456921879,0.1925224456921879
0.24222387360068687,0.24222387360068687
0.30734988258423723,0.30734988258423723
0.3399128870760124,0.3399128870760124
0.38447278795949424,0.38447278795949424
0.4641664568472598,0.4641664568472598
0.537861677539172,0.537861677539172
0.5190094117807759,0.5190094117807759
0.42303424064712275,0.42303424064712275
0.2962099073633668,0.2962099073633668
0.1925224456921879,0.1925224456921879
0.1239687520252928,0.1239687520252928
0.1162564614877671,0.1162564614877671
0.13082412139198232,0.13082412139198232
0.1162564614877671,0.1162564614877671
0.05798582187090625,0.05798582187090625
0.03999047728334629,0.03999047728334629
0.0785519299709748,0.0785519299709748
0.1162564614877671,0.1162564614877671
0.08197961465431955,0.08197961465431955
0.03999047728334629,0.03999047728334629
0.05627197952923387,0.05627197952923387
0.1162564614877671,0.1162564614877671
0.11454261914609472,0.11454261914609472
0.03999047728334629,0.03999047728334629
-0.038846270433583095,-0.038846270433583095
-0.03713242809191072,-0.03713242809191072
0.009141315133243483,0.009141315133243483
0.03999047728334629,0.03999047728334629
0.028850502062475827,0.028850502062475827
0.03999047728334629,0.03999047728334629
0.09054882636268143,0.09054882636268143
0.15481791417539562,0.15481791417539562
0.17966862812964507,0.17966862812964507
0.1925224456921879,0.1925224456921879
0.2002347362297136,0.2002347362297136
0.1925224456921879,0.1925224456921879
0.14710562363786991,0.14710562363786991
0.1162564614877671,0.1162564614877671
0.10254572275438807,0.10254572275438807
0.0776950088001386,0.0776950088001386
0.027993580891639638,0.027993580891639638
0.03999047728334629,0.03999047728334629
0.12139798851278423,0.12139798851278423
0.1925224456921879,0.1925224456921879
0.1856670763254984,0.1856670763254984
0.1925224456921879,0.1925224456921879
0.27650072043413443,0.27650072043413443
0.38447278795949424,0.38447278795949424
0.4273188465013037,0.4273188465013037
0.46073877216391507,0.46073877216391507
0.5447170469058615,0.5447170469058615
0.6526891144312214,0.6526891144312214
0.7126735963897546,0.7126735963897546
0.7675165513232707,0.7675165513232707
0.859207116602743,0.859207116602743
0.9586099724197408,0.9586099724197408
0.9937437404240246,0.9937437404240246
0.9971714251073693,0.9971714251073693
1.0117390850115846,1.0117390850115846
1.035732877794998,1.035732877794998
1.0143098485240931,1.0143098485240931
0.9586099724197408,0.9586099724197408
0.8600640377735791,0.8600640377735791
0.6903936459480137,0.6903936459480137
0.4273188465013037,0.4273188465013037
0.15481791417539562,0.15481791417539562
-0.056841615021143065,-0.056841615021143065
-0.18966439650075234,-0.18966439650075234
-0.3019210698802931,-0.3019210698802931
-0.3816147387680587,-0.3816147387680587
-0.4253177184807043,-0.4253177184807043
-0.4201761914556872,-0.4201761914556872
-0.4201761914556872,-0.4201761914556872
-0.4201761914556872,-0.4201761914556872
-0.41674850677234243,-0.41674850677234243
-0.3816147387680587,-0.3816147387680587
-0.35247941895962825,-0.35247941895962825
-0.3430532860804302,-0.3430532860804302
-0.3661901576930073,-0.3661901576930073
-0.3816147387680587,-0.3816147387680587
-0.3858993446222396,-0.3858993446222396
-0.3816147387680587,-0.3816147387680587
-0.37561629057220536,-0.37561629057220536
-0.30534875456363786,-0.30534875456363786
-0.09797383122128013,-0.09797383122128013
0.30734988258423723,0.30734988258423723
0.91833467739044,0.91833467739044
1.7246974991472936,1.7246974991472936
2.6441739154545245,2.6441739154545245
3.524231957903291,3.524231957903291
4.149784412613709,4.149784412613709
4.3665854688352645,4.3665854688352645
4.120649092805278,4.120649092805278
3.524231957903291,3.524231957903291
2.7727120910799528,2.7727120910799528
2.0306183571358134,2.0306183571358134
1.2662446727499326,1.2662446727499326
0.38447278795949424,0.38447278795949424
-0.5598543423019859,-0.5598543423019859
-1.3002342339044533,-1.3002342339044533
-1.6669964950223422,-1.6669964950223422
-1.7218394499558582,-1.7218394499558582
-1.6370042540430754,-1.6370042540430754
-1.453623123484131,-1.453623123484131
-1.1845498758415678,-1.1845498758415678
-0.9171904705406767,-0.9171904705406767
-0.7852246102319037,-0.7852246102319037
-0.7646585021318352,-0.7646585021318352
-0.7535185269109647,-0.7535185269109647
-0.6875355967565782,-0.6875355967565782
-0.6301218783105534,-0.6301218783105534
-0.6112696125521573,-0.6112696125521573
-0.6249803512855363,-0.6249803512855363
-0.6112696125521573,-0.6112696125521573
-0.5907035044520887,-0.5907035044520887
-0.5727081598645288,-0.5727081598645288
-0.5684235540103478,-0.5684235540103478
-0.5350036283477365,-0.5350036283477365
-0.4972990968309442,-0.4972990968309442
-0.496442175660108,-0.496442175660108
-0.537574391860245,-0.537574391860245
-0.5350036283477365,-0.5350036283477365
-0.4587376441433157,-0.4587376441433157
-0.3816147387680587,-0.3816147387680587
-0.38332858110973106,-0.38332858110973106
-0.4201761914556872,-0.4201761914556872
-0.4210331126265234,-0.4210331126265234
-0.3816147387680587,-0.3816147387680587
-0.3576209459846454,-0.3576209459846454
-0.3430532860804302,-0.3430532860804302
-0.324201020322034,-0.324201020322034
-0.30534875456363786,-0.30534875456363786
-0.310490281588655,-0.310490281588655
-0.30534875456363786,-0.30534875456363786
-0.2710719077301903,-0.2710719077301903
-0.22822584918838085,-0.22822584918838085
-0.22137047982169133,-0.22137047982169133
-0.22822584918838085,-0.22822584918838085
-0.23079661270088941,-0.23079661270088941
-0.22822584918838085,-0.22822584918838085
-0.23850890323841512,-0.23850890323841512
-0.22822584918838085,-0.22822584918838085
-0.19137823884242472,-0.19137823884242472
-0.15195986498396002,-0.15195986498396002
-0.15967215552148573,-0.15967215552148573
-0.18966439650075234,-0.18966439650075234
-0.2170858739675104,-0.2170858739675104
-0.22822584918838085,-0.22822584918838085
-0.25993193250931984,-0.25993193250931984
-0.30534875456363786,-0.30534875456363786
-0.34391020725126636,-0.34391020725126636
-0.3430532860804302,-0.3430532860804302
-0.31306104510116356,-0.31306104510116356
-0.26678730187600935,-0.26678730187600935
-0.247078114946777,-0.247078114946777
-0.26678730187600935,-0.26678730187600935
-0.3182025721261807,-0.3182025721261807
-0.3430532860804302,-0.3430532860804302
-0.324201020322034,-0.324201020322034
-0.26678730187600935,-0.26678730187600935
-0.21023050460082088,-0.21023050460082088
-0.15195986498396002,-0.15195986498396002
-0.09711691005044394,-0.09711691005044394
-0.03713242809191072,-0.03713242809191072
0.015996684499932995,0.015996684499932995
0.0776950088001386,0.0776950088001386
0.1402502542711804,0.1402502542711804
0.1925224456921879,0.1925224456921879
0.20366242091305836,0.20366242091305836
0.1925224456921879,0.1925224456921879
0.19166552452135172,0.19166552452135172
0.2310838983798164,0.2310838983798164
0.2696453510674449,0.2696453510674449
0.2696453510674449,0.2696453510674449
0.2242285290131269,0.2242285290131269
0.1925224456921879,0.1925224456921879
0.18909476100884315,0.18909476100884315
0.1925224456921879,0.1925224456921879
0.1608163623712489,0.1608163623712489
0.1162564614877671,0.1162564614877671
0.07683808762930242,0.07683808762930242
0.03999047728334629,0.03999047728334629
-0.031133979896057398,-0.031133979896057398
-0.11339841229633153,-0.11339841229633153
-0.16481368254650286,-0.16481368254650286
-0.15195986498396002,-0.15195986498396002
-0.12282454517552961,-0.12282454517552961
-0.11339841229633153,-0.11339841229633153
-0.12882299337138295,-0.12882299337138295
-0.11339841229633153,-0.11339841229633153
-0.06969543258368589,-0.06969543258368589
-0.03713242809191072,-0.03713242809191072
-0.07398003843786684,-0.07398003843786684
-0.15195986498396002,-0.15195986498396002
-0.22908277035921704,-0.22908277035921704
-0.26678730187600935,-0.26678730187600935
-0.28221188295106076,-0.28221188295106076
-0.26678730187600935,-0.26678730187600935
-0.23422429738423417,-0.23422429738423417
-0.18966439650075234,-0.18966439650075234
-0.16652752488817524,-0.16652752488817524
-0.15195986498396002,-0.15195986498396002
-0.15195986498396002,-0.15195986498396002
-0.15195986498396002,-0.15195986498396002
-0.14938910147145146,-0.14938910147145146
-0.11339841229633153,-0.11339841229633153
-0.06712466907117734,-0.06712466907117734
-0.03713242809191072,-0.03713242809191072
-0.04484471862943642,-0.04484471862943642
-0.03713242809191072,-0.03713242809191072
0.009141315133243483,0.009141315133243483
0.0776950088001386,0.0776950088001386
0.11968414617111185,0.11968414617111185
0.15481791417539562,0.15481791417539562
0.21137471145058406,0.21137471145058406
0.30734988258423723,0.30734988258423723
0.3973266055220371,0.3973266055220371
0.46073877216391507,0.46073877216391507
0.4958725401681988,0.4958725401681988
0.537861677539172,0.537861677539172
0.5995600018393776,0.5995600018393776
0.6903936459480137,0.6903936459480137
0.7683734724941069,0.7683734724941069
0.805221082840063,0.805221082840063
0.8026503193275545,0.8026503193275545
0.805221082840063,0.805221082840063
0.7949380287900287,0.7949380287900287
0.7289550986356422,0.7289550986356422
0.6021307653518863,0.6021307653518863
0.4993002248515436,0.4993002248515436
0.4256050041596313,0.4256050041596313
0.30734988258423723,0.30734988258423723
0.09569035338769856,0.09569035338769856
-0.11339841229633153,-0.11339841229633153
-0.24279350909259606,-0.24279350909259606
-0.30534875456363786,-0.30534875456363786
-0.36704707886384347,-0.36704707886384347
-0.3816147387680587,-0.3816147387680587
-0.34476712842210255,-0.34476712842210255
-0.30534875456363786,-0.30534875456363786
-0.35333634013046444,-0.35333634013046444
-0.4201761914556872,-0.4201761914556872
-0.43045924550572146,-0.43045924550572146
-0.3816147387680587,-0.3816147387680587
-0.3653332365221711,-0.3653332365221711
-0.3816147387680587,-0.3816147387680587
-0.3961823986722739,-0.3961823986722739
-0.3816147387680587,-0.3816147387680587
-0.34648097076377493,-0.34648097076377493
-0.26678730187600935,-0.26678730187600935
-0.1536737073256324,-0.1536737073256324
0.0014290245957177823,0.0014290245957177823
0.3022083555592201,0.3022083555592201
0.9200485197321123,0.9200485197321123
1.8052480892058955,1.8052480892058955
2.7204398996589454,2.7204398996589454
3.514805825024093,3.514805825024093
4.2131965792555865,4.2131965792555865
4.6390864011611725,4.6390864011611725
4.443708374210521,4.443708374210521
3.6090671538160737,3.6090671538160737
2.6433169942836883,2.6433169942836883
1.893510969802023,1.893510969802023
1.1505603146870471,1.1505603146870471
0.1393933331003442,0.1393933331003442
-0.8794859390238845,-0.8794859390238845
-1.5007537878801214,-1.5007537878801214
-1.7218394499558582,-1.7218394499558582
-1.8135300152353304,-1.8135300152353304
-1.798105434160279,-1.798105434160279
-1.5633090333511632,-1.5633090333511632
-1.1854067970124038,-1.1854067970124038
-0.9026228106364615,-0.9026228106364615
-0.7646585021318352,-0.7646585021318352
-0.682394069731561,-0.682394069731561
-0.6112696125521573,-0.6112696125521573
-0.5932742679645974,-0.5932742679645974
-0.5727081598645288,-0.5727081598645288
-0.4981560180017804,-0.4981560180017804
-0.3816147387680587,-0.3816147387680587
-0.3396256013970854,-0.3396256013970854
-0.3816147387680587,-0.3816147387680587
-0.46045148648498807,-0.46045148648498807
-0.496442175660108,-0.496442175660108
-0.500726781514289,-0.500726781514289
-0.496442175660108,-0.496442175660108
-0.5050113873684698,-0.5050113873684698
-0.496442175660108,-0.496442175660108
-0.46302224999749664,-0.46302224999749664
-0.4201761914556872,-0.4201761914556872
-0.3978962410139463,-0.3978962410139463
-0.3816147387680587,-0.3816147387680587
-0.35162249778879207,-0.35162249778879207
-0.30534875456363786,-0.30534875456363786
-0.2847826464635693,-0.2847826464635693
-0.30534875456363786,-0.30534875456363786
-0.35419326130130063,-0.35419326130130063
-0.3816147387680587,-0.3816147387680587
-0.36704707886384347,-0.36704707886384347
-0.30534875456363786,-0.30534875456363786
-0.23850890323841512,-0.23850890323841512
-0.18966439650075234,-0.18966439650075234
-0.17081213074235618,-0.17081213074235618
-0.15195986498396002,-0.15195986498396002
-0.14339065327559816,-0.14339065327559816
-0.15195986498396002,-0.15195986498396002
-0.1690982884006838,-0.1690982884006838
-0.15195986498396002,-0.15195986498396002
-0.12625222985887438,-0.12625222985887438
-0.15195986498396002,-0.15195986498396002
-0.24536427260510463,-0.24536427260510463
-0.30534875456363786,-0.30534875456363786
-0.27364267124269886,-0.27364267124269886
-0.18966439650075234,-0.18966439650075234
-0.15024602264228765,-0.15024602264228765
-0.15195986498396002,-0.15195986498396002
-0.1690982884006838,-0.1690982884006838
-0.18966439650075234,-0.18966439650075234
-0.23508121855507036,-0.23508121855507036
-0.26678730187600935,-0.26678730187600935
-0.2719288289010265,-0.2719288289010265
-0.26678730187600935,-0.26678730187600935
-0.2804980406093884,-0.2804980406093884
-0.26678730187600935,-0.26678730187600935
-0.21365818928416563,-0.21365818928416563
-0.15195986498396002,-0.15195986498396002
-0.1236814663463658,-0.1236814663463658
-0.07483695960870303,-0.07483695960870303
0.03484895025832915,0.03484895025832915
0.1925224456921879,0.1925224456921879
0.3270590695134696,0.3270590695134696
0.42303424064712275,0.42303424064712275
0.46845106270144077,0.46845106270144077
0.46073877216391507,0.46073877216391507
0.39818352669287327,0.39818352669287327
0.34591133527186574,0.34591133527186574
0.34419749293019336,0.34419749293019336
0.38447278795949424,0.38447278795949424
0.39904044786370946,0.39904044786370946
0.38447278795949424,0.38447278795949424
0.36904820688444284,0.36904820688444284
0.38447278795949424,0.38447278795949424
0.3861866303011666,0.3861866303011666
0.34591133527186574,0.34591133527186574
0.28249916862998775,0.28249916862998775
0.2696453510674449,0.2696453510674449
0.29792374970503915,0.29792374970503915
0.30734988258423723,0.30734988258423723
0.25079308530904876,0.25079308530904876
0.1925224456921879,0.1925224456921879
0.17966862812964507,0.17966862812964507
0.1925224456921879,0.1925224456921879
0.16510096822542986,0.16510096822542986
0.1162564614877671,0.1162564614877671
0.08197961465431955,0.08197961465431955
0.0776950088001386,0.0776950088001386
0.061413506554251006,0.061413506554251006
0.03999047728334629,0.03999047728334629
0.025422817379131074,0.025422817379131074
0.03999047728334629,0.03999047728334629
0.05798582187090625,0.05798582187090625
0.0776950088001386,0.0776950088001386
0.07255348177512147,0.07255348177512147
0.03999047728334629,0.03999047728334629
-0.016566319991842184,-0.016566319991842184
-0.03713242809191072,-0.03713242809191072
-0.01313863530849743,-0.01313863530849743
0.03999047728334629,0.03999047728334629
0.07598116645846623,0.07598116645846623
0.1162564614877671,0.1162564614877671
0.156531756517068,0.156531756517068
0.1925224456921879,0.1925224456921879
0.20537626325473074,0.20537626325473074
0.2310838983798164,0.2310838983798164
0.2687884298966087,0.2687884298966087
0.30734988258423723,0.30734988258423723
0.3322005965384867,0.3322005965384867
0.38447278795949424,0.38447278795949424
0.4444572699180275,0.4444572699180275
0.46073877216391507,0.46073877216391507
0.40846658074290754,0.40846658074290754
0.38447278795949424,0.38447278795949424
0.451312639284717,0.451312639284717
0.5755662090559643,0.5755662090559643
0.6655429319937642,0.6655429319937642
0.7289550986356422,0.7289550986356422
0.8103626098650801,0.8103626098650801
0.9200485197321123,0.9200485197321123
0.9886022133990074,0.9886022133990074
0.9971714251073693,0.9971714251073693
0.9800330016906456,0.9800330016906456
0.9971714251073693,0.9971714251073693
1.0194513755491101,1.0194513755491101
0.9971714251073693,0.9971714251073693
0.8977685692903714,0.8977685692903714
0.7675165513232707,0.7675165513232707
0.6226968734519548,0.6226968734519548
0.46073877216391507,0.46073877216391507
0.2722161145799535,0.2722161145799535
0.1162564614877671,0.1162564614877671
0.006570551620734916,0.006570551620734916
-0.07483695960870303,-0.07483695960870303
-0.17423981542570094,-0.17423981542570094
-0.22822584918838085,-0.22822584918838085
-0.215372031625838,-0.215372031625838
-0.15195986498396002,-0.15195986498396002
-0.1322506780547277,-0.1322506780547277
-0.15195986498396002,-0.15195986498396002
-0.1922351600132609,-0.1922351600132609
-0.22822584918838085,-0.22822584918838085
-0.2873534099760779,-0.2873534099760779
-0.3430532860804302,-0.3430532860804302
-0.3807578175972225,-0.3807578175972225
-0.3816147387680587,-0.3816147387680587
-0.3413394437387578,-0.3413394437387578
-0.22822584918838085,-0.22822584918838085
-0.07312311726703065,-0.07312311726703065
0.1162564614877671,0.1162564614877671
0.4590249298222427,0.4590249298222427
1.1505603146870471,1.1505603146870471
2.1257366070986303,2.1257366070986303
3.103483663022722,3.103483663022722
3.9089895636087397,3.9089895636087397
4.596240342619363,4.596240342619363
5.010990189304079,5.010990189304079
4.788190684886669,4.788190684886669
3.8952788248753607,3.8952788248753607
2.8729718680677867,2.8729718680677867
2.116310474219432,2.116310474219432
1.417919719987938,1.417919719987938
0.4598818509930789,0.4598818509930789
-0.5350036283477365,-0.5350036283477365
-1.1554145560331373,-1.1554145560331373
-1.3773571392797102,-1.3773571392797102
-1.475903073925872,-1.475903073925872
-1.4921845761717596,-1.4921845761717596
-1.3019480762461255,-1.3019480762461255
-0.9557519232283053,-0.9557519232283053
-0.6995324931482848,-0.6995324931482848
-0.6112696125521573,-0.6112696125521573
-0.5804204504020545,-0.5804204504020545
-0.496442175660108,-0.496442175660108
-0.41417774325983386,-0.41417774325983386
-0.3816147387680587,-0.3816147387680587
-0.39875316218478246,-0.39875316218478246
-0.3816147387680587,-0.3816147387680587
-0.32934254734705115,-0.32934254734705115
-0.26678730187600935,-0.26678730187600935
-0.24622119377594082,-0.24622119377594082
-0.22822584918838085,-0.22822584918838085
-0.19566284469660566,-0.19566284469660566
-0.15195986498396002,-0.15195986498396002
-0.14424757444643435,-0.14424757444643435
-0.15195986498396002,-0.15195986498396002
-0.1545306284964686,-0.1545306284964686
-0.15195986498396002,-0.15195986498396002
-0.16481368254650286,-0.16481368254650286
-0.15195986498396002,-0.15195986498396002
-0.07826464429204778,-0.07826464429204778
0.03999047728334629,0.03999047728334629
0.10683032860856902,0.10683032860856902
0.0776950088001386,0.0776950088001386
-0.026849374041876452,-0.026849374041876452
-0.11339841229633153,-0.11339841229633153
-0.12967991454221914,-0.12967991454221914
-0.07483695960870303,-0.07483695960870303
-0.031133979896057398,-0.031133979896057398
-0.03713242809191072,-0.03713242809191072
-0.06712466907117734,-0.06712466907117734
-0.03713242809191072,-0.03713242809191072
0.04684584665003579,0.04684584665003579
0.1162564614877671,0.1162564614877671
0.11797030382943947,0.11797030382943947
0.1162564614877671,0.1162564614877671
0.15995944120041275,0.15995944120041275
0.2310838983798164,0.2310838983798164
0.24393771594235925,0.24393771594235925
0.1925224456921879,0.1925224456921879
0.11968414617111185,0.11968414617111185
0.0776950088001386,0.0776950088001386
0.053701216016725305,0.053701216016725305
0.03999047728334629,0.03999047728334629
0.028850502062475827,0.028850502062475827
0.03999047728334629,0.03999047728334629
0.04855968899170817,0.04855968899170817
0.03999047728334629,0.03999047728334629
-0.0011417389167907846,-0.0011417389167907846
-0.03713242809191072,-0.03713242809191072
-0.0542708515086345,-0.0542708515086345
-0.03713242809191072,-0.03713242809191072
0.00314286693739016,0.00314286693739016
0.0776950088001386,0.0776950088001386
0.15224715066288705,0.15224715066288705
0.1925224456921879,0.1925224456921879
0.1848101551546622,0.1848101551546622
0.1925224456921879,0.1925224456921879
0.2405100312590145,0.2405100312590145
0.30734988258423723,0.30734988258423723
0.3467682564427019,0.3467682564427019
0.38447278795949424,0.38447278795949424
0.4264619253304675,0.4264619253304675
0.46073877216391507,0.46073877216391507
0.4573110874805703,0.4573110874805703
0.46073877216391507,0.46073877216391507
0.49330177665569025,0.49330177665569025
0.537861677539172,0.537861677539172
0.5430032045641892,0.5430032045641892
0.537861677539172,0.537861677539172
0.5481447315892063,0.5481447315892063
0.5755662090559643,0.5755662090559643
0.5618554703225853,0.5618554703225853
0.4993002248515436,0.4993002248515436
0.4101804230845799,0.4101804230845799
0.34591133527186574,0.34591133527186574
0.3116344884384182,0.3116344884384182
0.30734988258423723,0.30734988258423723
0.2962099073633668,0.2962099073633668
0.2696453510674449,0.2696453510674449
0.2319408195506526,0.2319408195506526
0.2310838983798164,0.2310838983798164
0.2645038240424278,0.2645038240424278
0.30734988258423723,0.30734988258423723
0.30649296141340104,0.30649296141340104
0.2696453510674449,0.2696453510674449
0.20709010559640312,0.20709010559640312
0.15481791417539562,0.15481791417539562
0.11539954031693091,0.11539954031693091
0.1162564614877671,0.1162564614877671
0.14453486012536135,0.14453486012536135
0.1925224456921879,0.1925224456921879
0.21994392315894595,0.21994392315894595
0.2310838983798164,0.2310838983798164
0.22594237135479928,0.22594237135479928
0.2310838983798164,0.2310838983798164
0.22765621369647165,0.22765621369647165
0.2310838983798164,0.2310838983798164
0.25764845467573827,0.25764845467573827
0.34591133527186574,0.34591133527186574
0.44702803343053604,0.44702803343053604
0.4993002248515436,0.4993002248515436
0.4573110874805703,0.4573110874805703
0.38447278795949424,0.38447278795949424
0.32877291185514196,0.32877291185514196
0.30734988258423723,0.30734988258423723
0.29021145916751345,0.29021145916751345
0.30734988258423723,0.30734988258423723
0.39047123615534757,0.39047123615534757
0.537861677539172,0.537861677539172
0.6741121437021261,0.6741121437021261
0.7675165513232707,0.7675165513232707
0.8300717967943125,0.8300717967943125
0.9200485197321123,0.9200485197321123
1.0280205872574721,1.0280205872574721
1.1119988619994186,1.1119988619994186
1.1257096007327976,1.1257096007327976
1.1119988619994186,1.1119988619994186
1.1248526795619616,1.1248526795619616
1.1882648462038394,1.1882648462038394
1.2114017178164165,1.2114017178164165
1.1119988619994186,1.1119988619994186
0.8789163035319753,0.8789163035319753
0.6141276617435929,0.6141276617435929
0.3819020244469857,0.3819020244469857
0.1925224456921879,0.1925224456921879
0.015996684499932995,0.015996684499932995
-0.11339841229633153,-0.11339841229633153
-0.1922351600132609,-0.1922351600132609
-0.22822584918838085,-0.22822584918838085
-0.27535651358437124,-0.27535651358437124
-0.30534875456363786,-0.30534875456363786
-0.3173456509553445,-0.3173456509553445
-0.30534875456363786,-0.30534875456363786
-0.3087764392469826,-0.3087764392469826
-0.30534875456363786,-0.30534875456363786
-0.3027779910511293,-0.3027779910511293
-0.30534875456363786,-0.30534875456363786
-0.3344840743720683,-0.3344840743720683
-0.3430532860804302,-0.3430532860804302
-0.2950657005136036,-0.2950657005136036
-0.18966439650075234,-0.18966439650075234
-0.10225843707546108,-0.10225843707546108
-0.03713242809191072,-0.03713242809191072
0.10597340743773283,0.10597340743773283
0.4993002248515436,0.4993002248515436
1.1822663980079862,1.1822663980079862
2.0691798098234417,2.0691798098234417
3.018648467109939,3.018648467109939
3.9072757212670672,3.9072757212670672
4.510548225535745,4.510548225535745
4.596240342619363,4.596240342619363
4.13607367388033,4.13607367388033
3.409404521011241,3.409404521011241
2.678450762287972,2.678450762287972
1.9543523729313923,1.9543523729313923
1.0888619903868415,1.0888619903868415
0.1162564614877671,0.1162564614877671
-0.7560892904234733,-0.7560892904234733
-1.3387956865920818,-1.3387956865920818
-1.626721199993041,-1.626721199993041
-1.6832779972682297,-1.6832779972682297
-1.5753059297428698,-1.5753059297428698
-1.3387956865920818,-1.3387956865920818
-1.0654378330953373,-1.0654378330953373
-0.8409244863362559,-0.8409244863362559
-0.7175278377358447,-0.7175278377358447
-0.6498310652397858,-0.6498310652397858
-0.5958450314771059,-0.5958450314771059
-0.5350036283477365,-0.5350036283477365
-0.5084390720518146,-0.5084390720518146
-0.496442175660108,-0.496442175660108
-0.46987761936418615,-0.46987761936418615
-0.3816147387680587,-0.3816147387680587
-0.29677954285527597,-0.29677954285527597
-0.26678730187600935,-0.26678730187600935
-0.3190594932970169,-0.3190594932970169
-0.3816147387680587,-0.3816147387680587
-0.41674850677234243,-0.41674850677234243
-0.4201761914556872,-0.4201761914556872
-0.4338869301890662,-0.4338869301890662
-0.4578807229724795,-0.4578807229724795
-0.482731436926729,-0.482731436926729
-0.496442175660108,-0.496442175660108
-0.5084390720518146,-0.5084390720518146
-0.496442175660108,-0.496442175660108
-0.4518822747766262,-0.4518822747766262
-0.3816147387680587,-0.3816147387680587
-0.33019946851788734,-0.33019946851788734
-0.30534875456363786,-0.30534875456363786
-0.2847826464635693,-0.2847826464635693
-0.22822584918838085,-0.22822584918838085
-0.15795831317981335,-0.15795831317981335
-0.11339841229633153,-0.11339841229633153
-0.1253953086880382,-0.1253953086880382
-0.15195986498396002,-0.15195986498396002
-0.16395676137566667,-0.16395676137566667
-0.15195986498396002,-0.15195986498396002
-0.13824912625058103,-0.13824912625058103
-0.11339841229633153,-0.11339841229633153
-0.09711691005044394,-0.09711691005044394
-0.11339841229633153,-0.11339841229633153
-0.1853797906465714,-0.1853797906465714
-0.26678730187600935,-0.26678730187600935
-0.3336271532012321,-0.3336271532012321
-0.3816147387680587,-0.3816147387680587
-0.4210331126265234,-0.4210331126265234
-0.4201761914556872,-0.4201761914556872
-0.3944685563306015,-0.3944685563306015
-0.3816147387680587,-0.3816147387680587
-0.39961008335561865,-0.39961008335561865
-0.3816147387680587,-0.3816147387680587
-0.3182025721261807,-0.3182025721261807
-0.26678730187600935,-0.26678730187600935
-0.2864964888052417,-0.2864964888052417
-0.30534875456363786,-0.30534875456363786
-0.24107966675092368,-0.24107966675092368
-0.11339841229633153,-0.11339841229633153
-0.057698536191979254,-0.057698536191979254
-0.11339841229633153,-0.11339841229633153
-0.18280902713406283,-0.18280902713406283
-0.11339841229633153,-0.11339841229633153
0.08197961465431955,0.08197961465431955
0.2696453510674449,0.2696453510674449
0.32962983302597815,0.32962983302597815
0.30734988258423723,0.30734988258423723
0.28935453799667726,0.28935453799667726
0.30734988258423723,0.30734988258423723
0.31506217312176293,0.31506217312176293
0.30734988258423723,0.30734988258423723
0.29021145916751345,0.29021145916751345
0.2696453510674449,0.2696453510674449
0.22594237135479928,0.22594237135479928
0.1925224456921879,0.1925224456921879
0.18395323398382601,0.18395323398382601
0.1925224456921879,0.1925224456921879
0.18823783983800696,0.18823783983800696
0.1925224456921879,0.1925224456921879
0.19852089388804123,0.19852089388804123
0.1925224456921879,0.1925224456921879
0.17367017993379175,0.17367017993379175
0.1925224456921879,0.1925224456921879
0.21994392315894595,0.21994392315894595
0.1925224456921879,0.1925224456921879
0.11797030382943947,0.11797030382943947
0.1162564614877671,0.1162564614877671
0.18823783983800696,0.18823783983800696
0.1925224456921879,0.1925224456921879
0.03999047728334629,0.03999047728334629
-0.11339841229633153,-0.11339841229633153
-0.10225843707546108,-0.10225843707546108
0.03999047728334629,0.03999047728334629
0.11711338265860329,0.11711338265860329
0.0776950088001386,0.0776950088001386
-0.0019986600876269736,-0.0019986600876269736
-0.03713242809191072,-0.03713242809191072
-0.0542708515086345,-0.0542708515086345
-0.07483695960870303,-0.07483695960870303
-0.10654304292964202,-0.10654304292964202
-0.11339841229633153,-0.11339841229633153
-0.09368922536709919,-0.09368922536709919
-0.03713242809191072,-0.03713242809191072
0.015996684499932995,0.015996684499932995
0.03999047728334629,0.03999047728334629
0.021995132695786318,0.021995132695786318
0.0014290245957177823,0.0014290245957177823
-0.04141703394609166,-0.04141703394609166
-0.11339841229633153,-0.11339841229633153
-0.1853797906465714,-0.1853797906465714
-0.15195986498396002,-0.15195986498396002
-0.016566319991842184,-0.016566319991842184
0.1162564614877671,0.1162564614877671
0.14196409661285278,0.14196409661285278
0.1162564614877671,0.1162564614877671
0.1239687520252928,0.1239687520252928
0.1925224456921879,0.1925224456921879
0.26793150872577254,0.26793150872577254
0.34591133527186574,0.34591133527186574
0.4256050041596313,0.4256050041596313
0.4993002248515436,0.4993002248515436
0.5370047563683359,0.5370047563683359
0.5755662090559643,0.5755662090559643
0.641549139210351,0.641549139210351
0.7289550986356422,0.7289550986356422
0.7829411323983221,0.7829411323983221
0.805221082840063,0.805221082840063
0.8172179792317696,0.8172179792317696
0.8437825355276916,0.8437825355276916
0.8480671413818724,0.8480671413818724
0.805221082840063,0.805221082840063
0.7049613058522289,0.7049613058522289
0.5755662090559643,0.5755662090559643
0.41532195010959705,0.41532195010959705
0.2310838983798164,0.2310838983798164
0.033992029087492964,0.033992029087492964
-0.11339841229633153,-0.11339841229633153
-0.19480592352576948,-0.19480592352576948
-0.22822584918838085,-0.22822584918838085
-0.2942087793427674,-0.2942087793427674
-0.3816147387680587,-0.3816147387680587
-0.4484545900932814,-0.4484545900932814
-0.4201761914556872,-0.4201761914556872
-0.3490517342762835,-0.3490517342762835
-0.30534875456363786,-0.30534875456363786
-0.34562404959293874,-0.34562404959293874
-0.4201761914556872,-0.4201761914556872
-0.4904437274642547,-0.4904437274642547
-0.5350036283477365,-0.5350036283477365
-0.5701373963520202,-0.5701373963520202
-0.5727081598645288,-0.5727081598645288
-0.5264344166393746,-0.5264344166393746
-0.4201761914556872,-0.4201761914556872
-0.28392572529273313,-0.28392572529273313
-0.07483695960870303,-0.07483695960870303
0.3399128870760124,0.3399128870760124
1.0734374093117902,1.0734374093117902
1.9886292197648399,1.9886292197648399
2.8352673365509946,2.8352673365509946
3.5268027214157995,3.5268027214157995
4.136930595051166,4.136930595051166
4.4959805656315295,4.4959805656315295
4.251758031943215,4.251758031943215
3.398264545790371,3.398264545790371
2.452223573187218,2.452223573187218
1.7538328189557242,1.7538328189557242
1.0734374093117902,1.0734374093117902
0.11197185563358615,0.11197185563358615
-0.8794859390238845,-0.8794859390238845
-1.4724753892425273,-1.4724753892425273
-1.6455734657514374,-1.6455734657514374
-1.7004164206849535,-1.7004164206849535
-1.7218394499558582,-1.7218394499558582
-1.599299722526283,-1.599299722526283
-1.3387956865920818,-1.3387956865920818
-1.117710024516345,-1.117710024516345
-0.9943133759159337,-0.9943133759159337
-0.9163335493698406,-0.9163335493698406
-0.8409244863362559,-0.8409244863362559
-0.8015061124777912,-0.8015061124777912
-0.7646585021318352,-0.7646585021318352
-0.7141001530525,-0.7141001530525
-0.6498310652397858,-0.6498310652397858
-0.6241234301147002,-0.6241234301147002
-0.6112696125521573,-0.6112696125521573
-0.600986558502123,-0.600986558502123
-0.5727081598645288,-0.5727081598645288
-0.5444297612269345,-0.5444297612269345
-0.496442175660108,-0.496442175660108
-0.44674074775160905,-0.44674074775160905
-0.4201761914556872,-0.4201761914556872
-0.44759766892244524,-0.44759766892244524
-0.496442175660108,-0.496442175660108
-0.5212928896143575,-0.5212928896143575
-0.496442175660108,-0.496442175660108
-0.4655930135100052,-0.4655930135100052
-0.4578807229724795,-0.4578807229724795
-0.4595945653141519,-0.4595945653141519
-0.4201761914556872,-0.4201761914556872
-0.3627624730096625,-0.3627624730096625
-0.3430532860804302,-0.3430532860804302
-0.37733013291387774,-0.37733013291387774
-0.3816147387680587,-0.3816147387680587
-0.3267717838345426,-0.3267717838345426
-0.26678730187600935,-0.26678730187600935
-0.27535651358437124,-0.27535651358437124
-0.30534875456363786,-0.30534875456363786
-0.28906725231775027,-0.28906725231775027
-0.22822584918838085,-0.22822584918838085
-0.20337513523413137,-0.20337513523413137
-0.22822584918838085,-0.22822584918838085
-0.26593038070517316,-0.26593038070517316
-0.26678730187600935,-0.26678730187600935
-0.2479350361176132,-0.2479350361176132
-0.22822584918838085,-0.22822584918838085
-0.23850890323841512,-0.23850890323841512
-0.26678730187600935,-0.26678730187600935
-0.3002072275386207,-0.3002072275386207
-0.30534875456363786,-0.30534875456363786
-0.29935030636778454,-0.29935030636778454
-0.30534875456363786,-0.30534875456363786
-0.33619791671374066,-0.33619791671374066
-0.3430532860804302,-0.3430532860804302
-0.31477488744283594,-0.31477488744283594
-0.26678730187600935,-0.26678730187600935
-0.24365043026343225,-0.24365043026343225
-0.22822584918838085,-0.22822584918838085
-0.20251821406329518,-0.20251821406329518
-0.15195986498396002,-0.15195986498396002
-0.10911380644215059,-0.10911380644215059
-0.07483695960870303,-0.07483695960870303
-0.047415482141944985,-0.047415482141944985
0.0014290245957177823,0.0014290245957177823
0.06826887592094052,0.06826887592094052
0.15481791417539562,0.15481791417539562
0.23708234657566973,0.23708234657566973
0.30734988258423723,0.30734988258423723
0.3399128870760124,0.3399128870760124
0.34591133527186574,0.34591133527186574
0.33819904473434004,0.33819904473434004
0.34591133527186574,0.34591133527186574
0.35362362580939144,0.35362362580939144
0.34591133527186574,0.34591133527186574
0.3176329366342715,0.3176329366342715
0.30734988258423723,0.30734988258423723
0.31420525195092674,0.31420525195092674
0.30734988258423723,0.30734988258423723
0.2550776911632297,0.2550776911632297
0.1925224456921879,0.1925224456921879
0.14539178129619754,0.14539178129619754
0.1162564614877671,0.1162564614877671
0.07512424528763004,0.07512424528763004
0.03999047728334629,0.03999047728334629
0.003999788108226349,0.003999788108226349
-0.03713242809191072,-0.03713242809191072
-0.092832304196263,-0.092832304196263
-0.11339841229633153,-0.11339841229633153
-0.09540306770877156,-0.09540306770877156
-0.07483695960870303,-0.07483695960870303
-0.10568612175880583,-0.10568612175880583
-0.15195986498396002,-0.15195986498396002
-0.17166905191319237,-0.17166905191319237
-0.15195986498396002,-0.15195986498396002
-0.14424757444643435,-0.14424757444643435
-0.15195986498396002,-0.15195986498396002
-0.16309984020483048,-0.16309984020483048
-0.15195986498396002,-0.15195986498396002
-0.1451044956172705,-0.1451044956172705
-0.15195986498396002,-0.15195986498396002
-0.16738444605901143,-0.16738444605901143
-0.15195986498396002,-0.15195986498396002
-0.1236814663463658,-0.1236814663463658
-0.11339841229633153,-0.11339841229633153
-0.15024602264228765,-0.15024602264228765
-0.18966439650075234,-0.18966439650075234
-0.2162289527966742,-0.2162289527966742
-0.22822584918838085,-0.22822584918838085
-0.2565042478259751,-0.2565042478259751
-0.26678730187600935,-0.26678730187600935
-0.23336737621339798,-0.23336737621339798
-0.15195986498396002,-0.15195986498396002
-0.08083540780455635,-0.08083540780455635
-0.03713242809191072,-0.03713242809191072
-0.02170784701685932,-0.02170784701685932
0.0014290245957177823,0.0014290245957177823
0.041704319625018665,0.041704319625018665
0.1162564614877671,0.1162564614877671
0.2088039479380755,0.2088039479380755
0.30734988258423723,0.30734988258423723
0.387900472642839,0.387900472642839
0.46073877216391507,0.46073877216391507
0.5310063081724825,0.5310063081724825
0.6141276617435929,0.6141276617435929
0.7049613058522289,0.7049613058522289
0.805221082840063,0.805221082840063
0.872917855336122,0.872917855336122
0.88234398821532,0.88234398821532
0.8309287179651487,0.8309287179651487
0.7675165513232707,0.7675165513232707
0.6912505671188499,0.6912505671188499
0.5755662090559643,0.5755662090559643
0.39304199966785613,0.39304199966785613
0.1925224456921879,0.1925224456921879
0.008284393962407294,0.008284393962407294
-0.15195986498396002,-0.15195986498396002
-0.29849338519694835,-0.29849338519694835
-0.3816147387680587,-0.3816147387680587
-0.3978962410139463,-0.3978962410139463
-0.3816147387680587,-0.3816147387680587
-0.4124639009181615,-0.4124639009181615
-0.4578807229724795,-0.4578807229724795
-0.48444527926840136,-0.48444527926840136
-0.4578807229724795,-0.4578807229724795
-0.43045924550572146,-0.43045924550572146
-0.4201761914556872,-0.4201761914556872
-0.4415992207265919,-0.4415992207265919
-0.4578807229724795,-0.4578807229724795
-0.44502690540993667,-0.44502690540993667
-0.3816147387680587,-0.3816147387680587
-0.3087764392469826,-0.3087764392469826
-0.26678730187600935,-0.26678730187600935
-0.2719288289010265,-0.2719288289010265
-0.22822584918838085,-0.22822584918838085
0.015996684499932995,0.015996684499932995
0.5755662090559643,0.5755662090559643
1.3656475285669305,1.3656475285669305
2.2225686994031193,2.2225686994031193
3.054639156285059,3.054639156285059
3.8310097370626464,3.8310097370626464
4.318597883268438,4.318597883268438
4.2131965792555865,4.2131965792555865
3.5345150119533253,3.5345150119533253
2.7204398996589454,2.7204398996589454
2.056325992260899,2.056325992260899
1.3802151884711458,1.3802151884711458
0.4564541663097341,0.4564541663097341
-0.5350036283477365,-0.5350036283477365
-1.2591020177043162,-1.2591020177043162
-1.6455734657514374,-1.6455734657514374
-1.8538053102646312,-1.8538053102646312
-1.9129328710523283,-1.9129328710523283
-1.7629716661559953,-1.7629716661559953
-1.453623123484131,-1.453623123484131
-1.163126846570663,-1.163126846570663
-0.9557519232283053,-0.9557519232283053
-0.8152168512111703,-0.8152168512111703
-0.7260970494442066,-0.7260970494442066
-0.7158139953941723,-0.7158139953941723
-0.7260970494442066,-0.7260970494442066
-0.7089586260274828,-0.7089586260274828
-0.6498310652397858,-0.6498310652397858
-0.6164111395771744,-0.6164111395771744
-0.6112696125521573,-0.6112696125521573
-0.6241234301147002,-0.6241234301147002
-0.6112696125521573,-0.6112696125521573
-0.591560425622925,-0.591560425622925
-0.5727081598645288,-0.5727081598645288
-0.5744220022062012,-0.5744220022062012
-0.5727081598645288,-0.5727081598645288
-0.5607112634728222,-0.5607112634728222
-0.5350036283477365,-0.5350036283477365
-0.5127236779059956,-0.5127236779059956
-0.496442175660108,-0.496442175660108
-0.49301449097676325,-0.49301449097676325
-0.496442175660108,-0.496442175660108
-0.5050113873684698,-0.5050113873684698
-0.496442175660108,-0.496442175660108
-0.4758760675600395,-0.4758760675600395
-0.4578807229724795,-0.4578807229724795
-0.47159146170585853,-0.47159146170585853
-0.496442175660108,-0.496442175660108
-0.5127236779059956,-0.5127236779059956
-0.496442175660108,-0.496442175660108
-0.46216532882666045,-0.46216532882666045
-0.4201761914556872,-0.4201761914556872
-0.4038946892097996,-0.4038946892097996
-0.4201761914556872,-0.4201761914556872
-0.45445303828913475,-0.45445303828913475
-0.4578807229724795,-0.4578807229724795
-0.4253177184807043,-0.4253177184807043
-0.3816147387680587,-0.3816147387680587
-0.3713316847180244,-0.3713316847180244
-0.3816147387680587,-0.3816147387680587
-0.39104087164725676,-0.39104087164725676
-0.3816147387680587,-0.3816147387680587
-0.37733013291387774,-0.37733013291387774
-0.3816147387680587,-0.3816147387680587
-0.4030377680389634,-0.4030377680389634
-0.4201761914556872,-0.4201761914556872
-0.43131616667655764,-0.43131616667655764
-0.4201761914556872,-0.4201761914556872
-0.40046700452645484,-0.40046700452645484
-0.3816147387680587,-0.3816147387680587
-0.39104087164725676,-0.39104087164725676
-0.4201761914556872,-0.4201761914556872
-0.45445303828913475,-0.45445303828913475
-0.4578807229724795,-0.4578807229724795
-0.42274695496819575,-0.42274695496819575
-0.3430532860804302,-0.3430532860804302
-0.247078114946777,-0.247078114946777
-0.15195986498396002,-0.15195986498396002
-0.08340617131706492,-0.08340617131706492
-0.03713242809191072,-0.03713242809191072
-0.007140187112644107,-0.007140187112644107
0.03999047728334629,0.03999047728334629
0.1076872497794052,0.1076872497794052
0.1925224456921879,0.1925224456921879
0.24308079477152306,0.24308079477152306
0.2310838983798164,0.2310838983798164
0.15738867768790418,0.15738867768790418
0.0776950088001386,0.0776950088001386
0.023708975037458696,0.023708975037458696
0.0014290245957177823,0.0014290245957177823
-0.01999400467518694,-0.01999400467518694
-0.03713242809191072,-0.03713242809191072
-0.04484471862943642,-0.04484471862943642
-0.03713242809191072,-0.03713242809191072
-0.04398779745860023,-0.04398779745860023
-0.07483695960870303,-0.07483695960870303
-0.1253953086880382,-0.1253953086880382
-0.15195986498396002,-0.15195986498396002
-0.14424757444643435,-0.14424757444643435
-0.11339841229633153,-0.11339841229633153
-0.11254149112549534,-0.11254149112549534
-0.15195986498396002,-0.15195986498396002
-0.21108742577165707,-0.21108742577165707
-0.22822584918838085,-0.22822584918838085
-0.2008043717216228,-0.2008043717216228
-0.15195986498396002,-0.15195986498396002
-0.12625222985887438,-0.12625222985887438
-0.11339841229633153,-0.11339841229633153
-0.11168456995465915,-0.11168456995465915
-0.11339841229633153,-0.11339841229633153
-0.13482144156723627,-0.13482144156723627
-0.15195986498396002,-0.15195986498396002
-0.15967215552148573,-0.15967215552148573
-0.15195986498396002,-0.15195986498396002
-0.15195986498396002,-0.15195986498396002
-0.15195986498396002,-0.15195986498396002
-0.15538754966730478,-0.15538754966730478
-0.15195986498396002,-0.15195986498396002
-0.15624447083814097,-0.15624447083814097
-0.15195986498396002,-0.15195986498396002
-0.15110294381312384,-0.15110294381312384
-0.15195986498396002,-0.15195986498396002
-0.16395676137566667,-0.16395676137566667
-0.15195986498396002,-0.15195986498396002
-0.10911380644215059,-0.10911380644215059
-0.03713242809191072,-0.03713242809191072
0.02713665972080345,0.02713665972080345
0.0776950088001386,0.0776950088001386
0.10340264392522426,0.10340264392522426
0.1162564614877671,0.1162564614877671
0.12225490968362042,0.12225490968362042
0.15481791417539562,0.15481791417539562
0.21823008081727358,0.21823008081727358
0.30734988258423723,0.30734988258423723
0.3870435514720028,0.3870435514720028
0.46073877216391507,0.46073877216391507
0.5438601257350254,0.5438601257350254
0.6526891144312214,0.6526891144312214
0.7306689409773146,0.7306689409773146
0.7289550986356422,0.7289550986356422
0.6569737202854024,0.6569737202854024
0.6141276617435929,0.6141276617435929
0.6329799275019891,0.6329799275019891
0.6526891144312214,0.6526891144312214
0.5695677608601111,0.5695677608601111
0.38447278795949424,0.38447278795949424
0.1479625448087061,0.1479625448087061
-0.07483695960870303,-0.07483695960870303
-0.2633596171926646,-0.2633596171926646
-0.3816147387680587,-0.3816147387680587
-0.4493115112641176,-0.4493115112641176
-0.496442175660108,-0.496442175660108
-0.5667097116686755,-0.5667097116686755
-0.6112696125521573,-0.6112696125521573
-0.6129834548938297,-0.6129834548938297
-0.5727081598645288,-0.5727081598645288
-0.5624251058144946,-0.5624251058144946
-0.5727081598645288,-0.5727081598645288
-0.5864188985979079,-0.5864188985979079
-0.5727081598645288,-0.5727081598645288
-0.5667097116686755,-0.5667097116686755
-0.5727081598645288,-0.5727081598645288
-0.5958450314771059,-0.5958450314771059
-0.6112696125521573,-0.6112696125521573
-0.591560425622925,-0.591560425622925
-0.496442175660108,-0.496442175660108
-0.34562404959293874,-0.34562404959293874
-0.11339841229633153,-0.11339841229633153
0.3467682564427019,0.3467682564427019
1.1882648462038394,1.1882648462038394
2.2499901768698773,2.2499901768698773
3.1797496472271427,3.1797496472271427
3.847291239308534,3.847291239308534
4.405146921522893,4.405146921522893
4.7444877051740235,4.7444877051740235
4.443708374210521,4.443708374210521
3.41197528452375,3.41197528452375
2.2225686994031193,2.2225686994031193
1.3613629227127497,1.3613629227127497
0.6526891144312214,0.6526891144312214
-0.2796411194385522,-0.2796411194385522
-1.262529702387661,-1.262529702387661
-1.8366668868479075,-1.8366668868479075
-1.9129328710523283,-1.9129328710523283
-1.80239004001446,-1.80239004001446
-1.6832779972682297,-1.6832779972682297
-1.5136076054426644,-1.5136076054426644
-1.262529702387661,-1.262529702387661
-1.0328748286035623,-1.0328748286035623
-0.8794859390238845,-0.8794859390238845
-0.804933797161136,-0.804933797161136
-0.8023630336486275,-0.8023630336486275
-0.8786290178530483,-0.8786290178530483
-0.9557519232283053,-0.9557519232283053
-0.9977410605992785,-0.9977410605992785
-0.9943133759159337,-0.9943133759159337
-0.9900287700617528,-0.9900287700617528
-0.9557519232283053,-0.9557519232283053
-0.9009089682947892,-0.9009089682947892
-0.8409244863362559,-0.8409244863362559
-0.8169306935528426,-0.8169306935528426
-0.8023630336486275,-0.8023630336486275
-0.7852246102319037,-0.7852246102319037
-0.7646585021318352,-0.7646585021318352
-0.7629446597901628,-0.7629446597901628
-0.7646585021318352,-0.7646585021318352
-0.755232369252637,-0.755232369252637
-0.7260970494442066,-0.7260970494442066
-0.6926771237815953,-0.6926771237815953
-0.6498310652397858,-0.6498310652397858
-0.6181249819188468,-0.6181249819188468
-0.6112696125521573,-0.6112696125521573
-0.6275511147980449,-0.6275511147980449
-0.6112696125521573,-0.6112696125521573
-0.5538558941061327,-0.5538558941061327
-0.496442175660108,-0.496442175660108
-0.4990129391726166,-0.4990129391726166
-0.5350036283477365,-0.5350036283477365
-0.5452866823977708,-0.5452866823977708
-0.496442175660108,-0.496442175660108
-0.43902845721408335,-0.43902845721408335
-0.4201761914556872,-0.4201761914556872
-0.44502690540993667,-0.44502690540993667
-0.4578807229724795,-0.4578807229724795
-0.43217308784739383,-0.43217308784739383
-0.3816147387680587,-0.3816147387680587
-0.3713316847180244,-0.3713316847180244
