ECG,PPG
0.5841164451637655,0.5841164451637655
1.4546949964443978,1.4546949964443978
0.8613155858700364,0.8613155858700364
0.5263666241832923,0.5263666241832923
0.9537152994387934,0.9537152994387934
1.3132079350422388,1.3132079350422388
1.2316363129073205,1.2316363129073205
1.1688333825910557,1.1688333825910557
1.4164357400448344,1.4164357400448344
1.6669255885476366,1.6669255885476366
1.6936348807511055,1.6936348807511055
1.6366069325328882,1.6366069325328882
1.6936348807511055,1.6936348807511055
1.815631377572355,1.815631377572355
1.8784343078886194,1.8784343078886194
1.8423406697758238,1.8423406697758238
1.7860345943198623,1.7860345943198623
1.7492190834448107,1.7492190834448107
1.6936348807511055,1.6936348807511055
1.5615321652582732,1.5615321652582732
1.4164357400448344,1.4164357400448344
1.31826104437803,1.31826104437803
1.2316363129073205,1.2316363129073205
1.032399430524688,1.032399430524688
0.7689158723012794,0.7689158723012794
0.5350290973303633,0.5350290973303633
0.3993170180262514,0.3993170180262514
0.2996985768349353,0.2996985768349353
0.21379571812648152,0.21379571812648152
0.0903554757807202,0.0903554757807202
-0.0634034225797895,-0.0634034225797895
-0.2121092116045078,-0.2121092116045078
-0.2482028497173035,-0.2482028497173035
-0.22438104856285834,-0.22438104856285834
-0.2482028497173035,-0.2482028497173035
-0.37019934653855296,-0.37019934653855296
-0.4330022768548175,-0.4330022768548175
-0.3904117838817186,-0.3904117838817186
-0.34060256328606053,-0.34060256328606053
-0.42000856713421103,-0.42000856713421103
-0.5254019904235745,-0.5254019904235745
-0.5564425192005789,-0.5564425192005789
-0.5254019904235745,-0.5254019904235745
-0.5614956285363703,-0.5614956285363703
-0.6178017039923315,-0.6178017039923315
-0.6127485946565401,-0.6127485946565401
-0.5254019904235745,-0.5254019904235745
-0.48642086126175516,-0.48642086126175516
-0.5254019904235745,-0.5254019904235745
-0.6019205032227014,-0.6019205032227014
-0.6178017039923315,-0.6178017039923315
-0.5845955569285595,-0.5845955569285595
-0.5254019904235745,-0.5254019904235745
-0.5116864079407122,-0.5116864079407122
-0.5254019904235745,-0.5254019904235745
-0.5225144993745509,-0.5225144993745509
-0.4330022768548175,-0.4330022768548175
-0.34349005433508417,-0.34349005433508417
-0.34060256328606053,-0.34060256328606053
-0.4221741854209788,-0.4221741854209788
-0.4330022768548175,-0.4330022768548175
-0.36803372825178526,-0.36803372825178526
-0.34060256328606053,-0.34060256328606053
-0.42000856713421103,-0.42000856713421103
-0.4330022768548175,-0.4330022768548175
-0.2792433784943078,-0.2792433784943078
-0.0634034225797895,-0.0634034225797895
0.0008432532609868528,0.0008432532609868528
-0.0634034225797895,-0.0634034225797895
-0.11321264317544757,-0.11321264317544757
-0.0634034225797895,-0.0634034225797895
-0.0034879833125486316,-0.0034879833125486316
0.028996290988967503,0.028996290988967503
0.05137434661890084,0.05137434661890084
0.12139600455772451,0.12139600455772451
0.21235197260196967,0.21235197260196967
0.30691730445749443,0.30691730445749443
0.36611087096247935,0.36611087096247935
0.3993170180262514,0.3993170180262514
0.377660835158574,0.377660835158574
0.30691730445749443,0.30691730445749443
0.15027091504796106,0.15027091504796106
-0.0634034225797895,-0.0634034225797895
-0.28646210611686695,-0.28646210611686695
-0.4330022768548175,-0.4330022768548175
-0.5290113542348541,-0.5290113542348541
-0.6178017039923315,-0.6178017039923315
-0.7102014175610886,-0.7102014175610886
-0.7109232903233444,-0.7109232903233444
-0.6524515965806154,-0.6524515965806154
-0.6178017039923315,-0.6178017039923315
-0.6798827615463401,-0.6798827615463401
-0.7109232903233444,-0.7109232903233444
-0.6647234335389659,-0.6647234335389659
-0.6178017039923315,-0.6178017039923315
-0.6668890518257337,-0.6668890518257337
-0.7109232903233444,-0.7109232903233444
-0.6769952704973164,-0.6769952704973164
-0.6178017039923315,-0.6178017039923315
-0.6510078510561036,-0.6510078510561036
-0.7109232903233444,-0.7109232903233444
-0.7665074930170498,-0.7665074930170498
-0.8957227174608584,-0.8957227174608584
-1.2068498779931573,-1.2068498779931573
-1.5425207124421574,-1.5425207124421574
-1.614707988667749,-1.614707988667749
-1.0805221445983724,-1.0805221445983724
0.26288306595988364,0.26288306595988364
2.248755034925903,2.248755034925903
3.967534081857235,3.967534081857235
4.282992478963069,4.282992478963069
2.839246954451241,2.839246954451241
0.5841164451637655,0.5841164451637655
-1.192412422748039,-1.192412422748039
-1.9128414394794413,-1.9128414394794413
-1.882522783464693,-1.882522783464693
-1.5425207124421574,-1.5425207124421574
-1.1498219297749401,-1.1498219297749401
-0.8033230038921014,-0.8033230038921014
-0.6069736125584928,-0.6069736125584928
-0.5254019904235745,-0.5254019904235745
-0.48642086126175516,-0.48642086126175516
-0.4330022768548175,-0.4330022768548175
-0.4171210760851874,-0.4171210760851874
-0.4330022768548175,-0.4330022768548175
-0.4575459507715186,-0.4575459507715186
-0.4330022768548175,-0.4330022768548175
-0.3860805473081831,-0.3860805473081831
-0.34060256328606053,-0.34060256328606053
-0.34204630881057235,-0.34204630881057235
-0.34060256328606053,-0.34060256328606053
-0.32111199870515084,-0.32111199870515084
-0.2482028497173035,-0.2482028497173035
-0.19045302873683037,-0.19045302873683037
-0.1558031361485465,-0.1558031361485465
-0.16013437272208197,-0.16013437272208197
-0.1558031361485465,-0.1558031361485465
-0.12909384394507767,-0.12909384394507767
-0.0634034225797895,-0.0634034225797895
-0.03452851208955294,-0.03452851208955294
-0.0634034225797895,-0.0634034225797895
-0.11610013422447123,-0.11610013422447123
-0.0634034225797895,-0.0634034225797895
0.07952738434688149,0.07952738434688149
0.21379571812648152,0.21379571812648152
0.23112066442062346,0.23112066442062346
0.21379571812648152,0.21379571812648152
0.234730028231903,0.234730028231903
0.30691730445749443,0.30691730445749443
0.34878592466833747,0.34878592466833747
0.3993170180262514,0.3993170180262514
0.4996573319798235,0.4996573319798235
0.6765161587325225,0.6765161587325225
0.8367719119533353,0.8367719119533353
0.9537152994387934,0.9537152994387934
1.0316775577624322,1.0316775577624322
1.1385147265763074,1.1385147265763074
1.268451823782372,1.268451823782372
1.4164357400448344,1.4164357400448344
1.5254385271454773,1.5254385271454773
1.6012351671823484,1.6012351671823484
1.6416600418686795,1.6416600418686795
1.6936348807511055,1.6936348807511055
1.7420003558222517,1.7420003558222517
1.7860345943198623,1.7860345943198623
1.7932533219424216,1.7932533219424216
1.7860345943198623,1.7860345943198623
1.748497210682555,1.748497210682555
1.6936348807511055,1.6936348807511055
1.6041226582313721,1.6041226582313721
1.5088354536135913,1.5088354536135913
1.3839514657433183,1.3839514657433183
1.2316363129073205,1.2316363129073205
1.0374525398604795,1.0374525398604795
0.8613155858700364,0.8613155858700364
0.7090004330340386,0.7090004330340386
0.5841164451637655,0.5841164451637655
0.4419075109993504,0.4419075109993504
0.30691730445749443,0.30691730445749443
0.16470837029307936,0.16470837029307936
0.028996290988967503,0.028996290988967503
-0.12692822565830994,-0.12692822565830994
-0.2482028497173035,-0.2482028497173035
-0.3232776169919186,-0.3232776169919186
-0.34060256328606053,-0.34060256328606053
-0.3759743286366003,-0.3759743286366003
-0.4330022768548175,-0.4330022768548175
-0.504467680318153,-0.504467680318153
-0.5254019904235745,-0.5254019904235745
-0.5268457359480864,-0.5268457359480864
-0.5254019904235745,-0.5254019904235745
-0.547058173291252,-0.547058173291252
-0.5254019904235745,-0.5254019904235745
-0.47487089706566055,-0.47487089706566055
-0.4330022768548175,-0.4330022768548175
-0.46981778772986915,-0.46981778772986915
-0.5254019904235745,-0.5254019904235745
-0.5535550281515552,-0.5535550281515552
-0.5254019904235745,-0.5254019904235745
-0.5145738989897358,-0.5145738989897358
-0.5254019904235745,-0.5254019904235745
-0.5485019188157637,-0.5485019188157637
-0.5254019904235745,-0.5254019904235745
-0.48208962468821964,-0.48208962468821964
-0.4330022768548175,-0.4330022768548175
-0.42578354923225836,-0.42578354923225836
-0.4330022768548175,-0.4330022768548175
-0.4474397320999358,-0.4474397320999358
-0.4330022768548175,-0.4330022768548175
-0.4272272947567702,-0.4272272947567702
-0.4330022768548175,-0.4330022768548175
-0.45682407800926267,-0.45682407800926267
-0.4330022768548175,-0.4330022768548175
-0.3608150006292261,-0.3608150006292261
-0.2482028497173035,-0.2482028497173035
-0.1507500268127551,-0.1507500268127551
-0.0634034225797895,-0.0634034225797895
-0.007097347123828202,-0.007097347123828202
0.028996290988967503,0.028996290988967503
0.05137434661890084,0.05137434661890084
0.12139600455772451,0.12139600455772451
0.22173631851129655,0.22173631851129655
0.30691730445749443,0.30691730445749443
0.31846726865358904,0.31846726865358904
0.30691730445749443,0.30691730445749443
0.29825483131042346,0.29825483131042346
0.30691730445749443,0.30691730445749443
0.2975329585481675,0.2975329585481675
0.30691730445749443,0.30691730445749443
0.32279850522712455,0.32279850522712455
0.30691730445749443,0.30691730445749443
0.1668739885798471,0.1668739885798471
-0.0634034225797895,-0.0634034225797895
-0.29584645202619386,-0.29584645202619386
-0.4330022768548175,-0.4330022768548175
-0.5232363721368067,-0.5232363721368067
-0.6178017039923315,-0.6178017039923315
-0.7195857634704154,-0.7195857634704154
-0.7109232903233444,-0.7109232903233444
-0.6156360857055637,-0.6156360857055637
-0.5254019904235745,-0.5254019904235745
-0.5578862647250906,-0.5578862647250906
-0.6178017039923315,-0.6178017039923315
-0.6076954853207487,-0.6076954853207487
-0.5254019904235745,-0.5254019904235745
-0.4943614616465702,-0.4943614616465702
-0.5254019904235745,-0.5254019904235745
-0.5853174296908153,-0.5853174296908153
-0.6178017039923315,-0.6178017039923315
-0.6322391592374498,-0.6322391592374498
-0.6178017039923315,-0.6178017039923315
-0.7022608171762734,-0.7022608171762734
-0.9881224310296154,-0.9881224310296154
-1.369271249500738,-1.369271249500738
-1.4501209988734005,-1.4501209988734005
-0.975128721309009,-0.975128721309009
0.12139600455772451,0.12139600455772451
1.8127438865233312,1.8127438865233312
3.8202720383570283,3.8202720383570283
5.07777439020683,5.07777439020683
4.375392192531826,4.375392192531826
1.7983064312782129,1.7983064312782129
-0.8957227174608584,-0.8957227174608584
-2.1142439401488415,-2.1142439401488415
-1.9128414394794413,-1.9128414394794413
-1.4147492335228606,-1.4147492335228606
-1.1729218581671295,-1.1729218581671295
-0.9975067769389423,-0.9975067769389423
-0.7109232903233444,-0.7109232903233444
-0.5008583165068734,-0.5008583165068734
-0.4330022768548175,-0.4330022768548175
-0.403405493602325,-0.403405493602325
-0.34060256328606053,-0.34060256328606053
-0.32905259908996587,-0.32905259908996587
-0.34060256328606053,-0.34060256328606053
-0.3182245076561272,-0.3182245076561272
-0.2482028497173035,-0.2482028497173035
-0.22582479408737016,-0.22582479408737016
-0.2482028497173035,-0.2482028497173035
-0.27996525125656374,-0.27996525125656374
-0.2482028497173035,-0.2482028497173035
-0.2005592474084132,-0.2005592474084132
-0.1558031361485465,-0.1558031361485465
-0.16013437272208197,-0.16013437272208197
-0.1558031361485465,-0.1558031361485465
-0.12259698908477445,-0.12259698908477445
-0.0634034225797895,-0.0634034225797895
-0.04752222181015939,-0.04752222181015939
-0.0634034225797895,-0.0634034225797895
-0.08794709649649057,-0.08794709649649057
-0.0634034225797895,-0.0634034225797895
-0.021534802368946483,-0.021534802368946483
0.028996290988967503,0.028996290988967503
0.060036819765971805,0.060036819765971805
0.12139600455772451,0.12139600455772451
0.20441137221715464,0.20441137221715464
0.30691730445749443,0.30691730445749443
0.36611087096247935,0.36611087096247935
0.3993170180262514,0.3993170180262514
0.4188075826071611,0.4188075826071611
0.49171673159500845,0.49171673159500845
0.6079382463182106,0.6079382463182106
0.7689158723012794,0.7689158723012794
0.9161779158014859,0.9161779158014859
1.0461150130075505,1.0461150130075505
1.1385147265763074,1.1385147265763074
1.2316363129073205,1.2316363129073205
1.31826104437803,1.31826104437803
1.4164357400448344,1.4164357400448344
1.5023385987532882,1.5023385987532882
1.6012351671823484,1.6012351671823484
1.6936348807511055,1.6936348807511055
1.7860345943198623,1.7860345943198623
1.8437844153003355,1.8437844153003355
1.8784343078886194,1.8784343078886194
1.85533437949643,1.85533437949643
1.7860345943198623,1.7860345943198623
1.6791974255059872,1.6791974255059872
1.6012351671823484,1.6012351671823484
1.5261603999077333,1.5261603999077333
1.4164357400448344,1.4164357400448344
1.2301925673828085,1.2301925673828085
1.0461150130075505,1.0461150130075505
0.8952436056960644,0.8952436056960644
0.7689158723012794,0.7689158723012794
0.5920570455485805,0.5920570455485805
0.3993170180262514,0.3993170180262514
0.22751130060934388,0.22751130060934388
0.12139600455772451,0.12139600455772451
0.02827441822671159,0.02827441822671159
-0.0634034225797895,-0.0634034225797895
-0.1702405913936648,-0.1702405913936648
-0.2482028497173035,-0.2482028497173035
-0.31172765279582393,-0.31172765279582393
-0.34060256328606053,-0.34060256328606053
-0.3579275095802024,-0.3579275095802024
-0.34060256328606053,-0.34060256328606053
-0.3348275811880132,-0.3348275811880132
-0.34060256328606053,-0.34060256328606053
-0.36298061891599387,-0.36298061891599387
-0.34060256328606053,-0.34060256328606053
-0.3189463804183831,-0.3189463804183831
-0.34060256328606053,-0.34060256328606053
-0.41784294884744333,-0.41784294884744333
-0.4330022768548175,-0.4330022768548175
-0.37886181968562394,-0.37886181968562394
-0.34060256328606053,-0.34060256328606053
-0.4236179309454906,-0.4236179309454906
-0.5254019904235745,-0.5254019904235745
-0.5347863363329014,-0.5347863363329014
-0.4330022768548175,-0.4330022768548175
-0.3557618912934347,-0.3557618912934347
-0.34060256328606053,-0.34060256328606053
-0.361536873391482,-0.361536873391482
-0.34060256328606053,-0.34060256328606053
-0.2987339430752175,-0.2987339430752175
-0.2482028497173035,-0.2482028497173035
-0.2373747582834648,-0.2373747582834648
-0.2482028497173035,-0.2482028497173035
-0.2684152870604691,-0.2684152870604691
-0.2482028497173035,-0.2482028497173035
-0.2323216489476734,-0.2323216489476734
-0.2482028497173035,-0.2482028497173035
-0.2907933426904024,-0.2907933426904024
-0.2482028497173035,-0.2482028497173035
-0.11682200698672714,-0.11682200698672714
0.028996290988967503,0.028996290988967503
0.09179922130523202,0.09179922130523202
0.12139600455772451,0.12139600455772451
0.15893338819503203,0.15893338819503203
0.21379571812648152,0.21379571812648152
0.24844561071476537,0.24844561071476537
0.30691730445749443,0.30691730445749443
0.3733295985850385,0.3733295985850385
0.3993170180262514,0.3993170180262514
0.33940157875901056,0.33940157875901056
0.30691730445749443,0.30691730445749443
0.3718858530605267,0.3718858530605267
0.49171673159500845,0.49171673159500845
0.5097635506514063,0.5097635506514063
0.3993170180262514,0.3993170180262514
0.20802073602843418,0.20802073602843418
0.028996290988967503,0.028996290988967503
-0.12909384394507767,-0.12909384394507767
-0.2482028497173035,-0.2482028497173035
-0.3514306547198992,-0.3514306547198992
-0.4330022768548175,-0.4330022768548175
-0.5059114258426648,-0.5059114258426648
-0.5254019904235745,-0.5254019904235745
-0.5282894814725981,-0.5282894814725981
-0.5254019904235745,-0.5254019904235745
-0.5759330837814886,-0.5759330837814886
-0.6178017039923315,-0.6178017039923315
-0.6084173580830047,-0.6084173580830047
-0.5254019904235745,-0.5254019904235745
-0.4532147141979831,-0.4532147141979831
-0.4330022768548175,-0.4330022768548175
-0.4806458791637078,-0.4806458791637078
-0.5254019904235745,-0.5254019904235745
-0.5434488094799723,-0.5434488094799723
-0.5254019904235745,-0.5254019904235745
-0.588204920739839,-0.588204920739839
-0.8033230038921014,-0.8033230038921014
-1.1361063472920778,-1.1361063472920778
-1.3577212853046434,-1.3577212853046434
-1.244387261630465,-1.244387261630465
-0.5254019904235745,-0.5254019904235745
0.9883651920270773,0.9883651920270773
3.0803524570447163,3.0803524570447163
4.685075607539614,4.685075607539614
4.56019161966934,4.56019161966934
2.531007284967966,2.531007284967966
-0.0634034225797895,-0.0634034225797895
-1.70638582947425,-1.70638582947425
-2.0052411530481984,-2.0052411530481984
-1.6508016267805445,-1.6508016267805445
-1.2653215717358866,-1.2653215717358866
-0.983069321693824,-0.983069321693824
-0.7109232903233444,-0.7109232903233444
-0.5152957717519917,-0.5152957717519917
-0.4330022768548175,-0.4330022768548175
-0.4113460939871401,-0.4113460939871401
-0.34060256328606053,-0.34060256328606053
-0.2662496687737014,-0.2662496687737014
-0.2482028497173035,-0.2482028497173035
-0.2842964878300992,-0.2842964878300992
-0.2482028497173035,-0.2482028497173035
-0.1406438081411723,-0.1406438081411723
-0.0634034225797895,-0.0634034225797895
-0.109603279364168,-0.109603279364168
-0.1558031361485465,-0.1558031361485465
-0.13125946223184543,-0.13125946223184543
-0.0634034225797895,-0.0634034225797895
-0.06484716810430133,-0.06484716810430133
-0.0634034225797895,-0.0634034225797895
-0.015759820270899172,-0.015759820270899172
0.028996290988967503,0.028996290988967503
-0.018647311319922828,-0.018647311319922828
-0.0634034225797895,-0.0634034225797895
-0.012872329221875515,-0.012872329221875515
0.12139600455772451,0.12139600455772451
0.19719264459459548,0.19719264459459548
0.21379571812648152,0.21379571812648152
0.23256440994513528,0.23256440994513528
0.30691730445749443,0.30691730445749443
0.3386797059967546,0.3386797059967546
0.30691730445749443,0.30691730445749443
0.2780423939672579,0.2780423939672579
0.3993170180262514,0.3993170180262514
0.6115476101294902,0.6115476101294902
0.7689158723012794,0.7689158723012794
0.773247108874815,0.773247108874815
0.7689158723012794,0.7689158723012794
0.8663686952058278,0.8663686952058278
1.0461150130075505,1.0461150130075505
1.1630584004930085,1.1630584004930085
1.2316363129073205,1.2316363129073205
1.3298110085741246,1.3298110085741246
1.5088354536135913,1.5088354536135913
1.6503225150157506,1.6503225150157506
1.6936348807511055,1.6936348807511055
1.6662037157853806,1.6662037157853806
1.6936348807511055,1.6936348807511055
1.7824252305085828,1.7824252305085828
1.8784343078886194,1.8784343078886194
1.897924872469529,1.897924872469529
1.8784343078886194,1.8784343078886194
1.8394531787268,1.8394531787268
1.7860345943198623,1.7860345943198623
1.6633162247363569,1.6633162247363569
1.5088354536135913,1.5088354536135913
1.35363280972857,1.35363280972857
1.2316363129073205,1.2316363129073205
1.0944804880786967,1.0944804880786967
0.9537152994387934,0.9537152994387934
0.8050095104140751,0.8050095104140751
0.6765161587325225,0.6765161587325225
0.5357509700926192,0.5357509700926192
0.3993170180262514,0.3993170180262514
0.252054974526045,0.252054974526045
0.12139600455772451,0.12139600455772451
-0.02081292960669057,-0.02081292960669057
-0.1558031361485465,-0.1558031361485465
-0.28140899678107556,-0.28140899678107556
-0.34060256328606053,-0.34060256328606053
-0.3557618912934347,-0.3557618912934347
-0.34060256328606053,-0.34060256328606053
-0.344933799859596,-0.344933799859596
-0.34060256328606053,-0.34060256328606053
-0.36803372825178526,-0.36803372825178526
-0.4330022768548175,-0.4330022768548175
-0.521792626612295,-0.521792626612295
-0.5254019904235745,-0.5254019904235745
-0.46693029668084546,-0.46693029668084546
-0.4330022768548175,-0.4330022768548175
-0.4921958433598025,-0.4921958433598025
-0.5254019904235745,-0.5254019904235745
-0.48642086126175516,-0.48642086126175516
-0.4330022768548175,-0.4330022768548175
-0.47342715154114867,-0.47342715154114867
-0.5254019904235745,-0.5254019904235745
-0.5102426624162003,-0.5102426624162003
-0.4330022768548175,-0.4330022768548175
-0.4135117122739078,-0.4135117122739078
-0.4330022768548175,-0.4330022768548175
-0.42578354923225836,-0.42578354923225836
-0.34060256328606053,-0.34060256328606053
-0.2662496687737014,-0.2662496687737014
-0.2482028497173035,-0.2482028497173035
-0.29584645202619386,-0.29584645202619386
-0.34060256328606053,-0.34060256328606053
-0.3889680383572067,-0.3889680383572067
-0.4330022768548175,-0.4330022768548175
-0.4741490243034046,-0.4741490243034046
-0.4330022768548175,-0.4330022768548175
-0.3095620345090562,-0.3095620345090562
-0.1558031361485465,-0.1558031361485465
-0.07567525953814004,-0.07567525953814004
-0.0634034225797895,-0.0634034225797895
-0.08217211439844327,-0.08217211439844327
-0.0634034225797895,-0.0634034225797895
0.002286998785498681,0.002286998785498681
0.12139600455772451,0.12139600455772451
0.21090822707745785,0.21090822707745785
0.21379571812648152,0.21379571812648152
0.13872095085186645,0.13872095085186645
0.12139600455772451,0.12139600455772451
0.2029676266926428,0.2029676266926428
0.30691730445749443,0.30691730445749443
0.29825483131042346,0.29825483131042346
0.21379571812648152,0.21379571812648152
0.14088656913863418,0.14088656913863418
0.12139600455772451,0.12139600455772451
0.04271187347182987,0.04271187347182987
-0.1558031361485465,-0.1558031361485465
-0.4265054219945143,-0.4265054219945143
-0.6178017039923315,-0.6178017039923315
-0.6950420895537143,-0.6950420895537143
-0.7109232903233444,-0.7109232903233444
-0.7628981292057703,-0.7628981292057703
-0.8033230038921014,-0.8033230038921014
-0.7924949124582628,-0.7924949124582628
-0.7109232903233444,-0.7109232903233444
-0.6697765428747573,-0.6697765428747573
-0.7109232903233444,-0.7109232903233444
-0.7939386579827745,-0.7939386579827745
-0.8033230038921014,-0.8033230038921014
-0.7513481650096756,-0.7513481650096756
-0.7109232903233444,-0.7109232903233444
-0.7275263638552305,-0.7275263638552305
-0.7109232903233444,-0.7109232903233444
-0.6683327973502455,-0.6683327973502455
-0.7109232903233444,-0.7109232903233444
-0.966466248161938,-0.966466248161938
-1.3577212853046434,-1.3577212853046434
-1.7179357936703445,-1.7179357936703445
-1.7280420123419273,-1.7280420123419273
-0.9765724668335208,-0.9765724668335208
0.7689158723012794,0.7689158723012794
2.9280373042087184,2.9280373042087184
4.282992478963069,4.282992478963069
3.9256654616463917,3.9256654616463917
2.1556334485948905,2.1556334485948905
0.04993060109438901,0.04993060109438901
-1.4501209988734005,-1.4501209988734005
-2.0846471568963487,-2.0846471568963487
-2.0052411530481984,-2.0052411530481984
-1.5598456587362994,-1.5598456587362994
-1.0805221445983724,-1.0805221445983724
-0.8098198587524047,-0.8098198587524047
-0.7109232903233444,-0.7109232903233444
-0.647398487244824,-0.647398487244824
-0.5254019904235745,-0.5254019904235745
-0.43372414961707345,-0.43372414961707345
-0.4330022768548175,-0.4330022768548175
-0.5073551713671767,-0.5073551713671767
-0.5254019904235745,-0.5254019904235745
-0.4524928414357272,-0.4524928414357272
-0.34060256328606053,-0.34060256328606053
-0.3088401617468003,-0.3088401617468003
-0.34060256328606053,-0.34060256328606053
-0.37886181968562394,-0.37886181968562394
-0.34060256328606053,-0.34060256328606053
-0.2886277244036347,-0.2886277244036347
-0.2482028497173035,-0.2482028497173035
-0.2518122135285831,-0.2518122135285831
-0.2482028497173035,-0.2482028497173035
-0.22149355751383468,-0.22149355751383468
-0.1558031361485465,-0.1558031361485465
-0.10238455174160886,-0.10238455174160886
-0.0634034225797895,-0.0634034225797895
-0.03741600313857659,-0.03741600313857659
0.028996290988967503,0.028996290988967503
0.09324296682974385,0.09324296682974385
0.12139600455772451,0.12139600455772451
0.09829607616553525,0.09829607616553525
0.12139600455772451,0.12139600455772451
0.2036894994548987,0.2036894994548987
0.30691730445749443,0.30691730445749443
0.3531171612418729,0.3531171612418729
0.3993170180262514,0.3993170180262514
0.47366991253861057,0.47366991253861057
0.5841164451637655,0.5841164451637655
0.6700193038722192,0.6700193038722192
0.7689158723012794,0.7689158723012794
0.8945217329338084,0.8945217329338084
1.0461150130075505,1.0461150130075505
1.1529521818214257,1.1529521818214257
1.2316363129073205,1.2316363129073205
1.3052673346574235,1.3052673346574235
1.4164357400448344,1.4164357400448344
1.518941672285174,1.518941672285174
1.6012351671823484,1.6012351671823484
1.6474350239667268,1.6474350239667268
1.6936348807511055,1.6936348807511055
1.7102379542829913,1.7102379542829913
1.6936348807511055,1.6936348807511055
1.6358850597706323,1.6358850597706323
1.6012351671823484,1.6012351671823484
1.5709165111676,1.5709165111676
1.5088354536135913,1.5088354536135913
1.3724015015472235,1.3724015015472235
1.2316363129073205,1.2316363129073205
1.0980898518899762,1.0980898518899762
0.9537152994387934,0.9537152994387934
0.7580877808674408,0.7580877808674408
0.5841164451637655,0.5841164451637655
0.4440731292861181,0.4440731292861181
0.30691730445749443,0.30691730445749443
0.1105679131238858,0.1105679131238858
-0.0634034225797895,-0.0634034225797895
-0.17745931901622392,-0.17745931901622392
-0.2482028497173035,-0.2482028497173035
-0.352874400244411,-0.352874400244411
-0.4330022768548175,-0.4330022768548175
-0.45538033248475085,-0.45538033248475085
-0.4330022768548175,-0.4330022768548175
-0.4633209328695659,-0.4633209328695659
-0.5254019904235745,-0.5254019904235745
-0.5918142845511186,-0.5918142845511186
-0.6178017039923315,-0.6178017039923315
-0.6344047775242175,-0.6344047775242175
-0.6178017039923315,-0.6178017039923315
-0.6091392308452606,-0.6091392308452606
-0.6178017039923315,-0.6178017039923315
-0.6495641055315917,-0.6495641055315917
-0.6178017039923315,-0.6178017039923315
-0.5521112826270433,-0.5521112826270433
-0.5254019904235745,-0.5254019904235745
-0.5874830479775831,-0.5874830479775831
-0.6178017039923315,-0.6178017039923315
-0.5759330837814886,-0.5759330837814886
-0.5254019904235745,-0.5254019904235745
-0.5672706106344175,-0.5672706106344175
-0.6178017039923315,-0.6178017039923315
-0.6011986304604455,-0.6011986304604455
-0.5254019904235745,-0.5254019904235745
-0.504467680318153,-0.504467680318153
-0.5254019904235745,-0.5254019904235745
-0.5448925550044842,-0.5448925550044842
-0.5254019904235745,-0.5254019904235745
-0.5246801176613186,-0.5246801176613186
-0.5254019904235745,-0.5254019904235745
-0.5051895530804089,-0.5051895530804089
-0.4330022768548175,-0.4330022768548175
-0.3723649648253207,-0.3723649648253207
-0.34060256328606053,-0.34060256328606053
-0.3232776169919186,-0.3232776169919186
-0.2482028497173035,-0.2482028497173035
-0.14353129919019597,-0.14353129919019597
-0.0634034225797895,-0.0634034225797895
-0.05907218600625402,-0.05907218600625402
-0.0634034225797895,-0.0634034225797895
-0.03380663932729702,-0.03380663932729702
0.028996290988967503,0.028996290988967503
0.044877491758597614,0.044877491758597614
0.028996290988967503,0.028996290988967503
0.03693689137378256,0.03693689137378256
0.12139600455772451,0.12139600455772451
0.18131144382496536,0.18131144382496536
0.12139600455772451,0.12139600455772451
-0.06556904086655724,-0.06556904086655724
-0.2482028497173035,-0.2482028497173035
-0.3860805473081831,-0.3860805473081831
-0.5254019904235745,-0.5254019904235745
-0.7268044910929745,-0.7268044910929745
-0.8957227174608584,-0.8957227174608584
-0.9484194291055401,-0.9484194291055401
-0.8957227174608584,-0.8957227174608584
-0.8740665345931811,-0.8740665345931811
-0.8957227174608584,-0.8957227174608584
-0.9260413734756068,-0.9260413734756068
-0.8957227174608584,-0.8957227174608584
-0.8711790435441573,-0.8711790435441573
-0.8957227174608584,-0.8957227174608584
-0.941922574245237,-0.941922574245237
-0.8957227174608584,-0.8957227174608584
-0.7802230754999122,-0.7802230754999122
-0.7109232903233444,-0.7109232903233444
-0.7585668926322348,-0.7585668926322348
-0.8033230038921014,-0.8033230038921014
-0.8119854770391725,-0.8119854770391725
-0.8957227174608584,-0.8957227174608584
-1.176531221978409,-1.176531221978409
-1.5425207124421574,-1.5425207124421574
-1.8211635986729402,-1.8211635986729402
-1.7280420123419273,-1.7280420123419273
-0.8466353696274562,-0.8466353696274562
1.0461150130075505,1.0461150130075505
3.200183335579198,3.200183335579198
4.190592765394312,4.190592765394312
3.2471050651258326,3.2471050651258326
1.1385147265763074,1.1385147265763074
-0.8040448766543573,-0.8040448766543573
-1.9128414394794413,-1.9128414394794413
-2.3142026952937296,-2.3142026952937296
-2.1900405801857126,-2.1900405801857126
-1.7078295749987618,-1.7078295749987618
-1.1729218581671295,-1.1729218581671295
-0.899332081272138,-0.899332081272138
-0.8033230038921014,-0.8033230038921014
-0.6820483798331078,-0.6820483798331078
-0.5254019904235745,-0.5254019904235745
-0.4907520978352906,-0.4907520978352906
-0.5254019904235745,-0.5254019904235745
-0.5109645351784562,-0.5109645351784562
-0.4330022768548175,-0.4330022768548175
-0.4106242212248842,-0.4106242212248842
-0.4330022768548175,-0.4330022768548175
-0.4524928414357272,-0.4524928414357272
-0.4330022768548175,-0.4330022768548175
-0.4106242212248842,-0.4106242212248842
-0.34060256328606053,-0.34060256328606053
-0.27346839639626047,-0.27346839639626047
-0.2482028497173035,-0.2482028497173035
-0.277799632969796,-0.277799632969796
-0.2482028497173035,-0.2482028497173035
-0.1709624641559207,-0.1709624641559207
-0.1558031361485465,-0.1558031361485465
-0.26985903258498095,-0.26985903258498095
-0.34060256328606053,-0.34060256328606053
-0.25109034076632714,-0.25109034076632714
-0.0634034225797895,-0.0634034225797895
0.02827441822671159,0.02827441822671159
0.028996290988967503,0.028996290988967503
0.03621501861152664,0.03621501861152664
0.12139600455772451,0.12139600455772451
0.19141766249654818,0.19141766249654818
0.21379571812648152,0.21379571812648152
0.2188488274622729,0.2188488274622729
0.30691730445749443,0.30691730445749443
0.44623874757288584,0.44623874757288584
0.5841164451637655,0.5841164451637655
0.6678536855854514,0.6678536855854514
0.7689158723012794,0.7689158723012794
0.8995748422695999,0.8995748422695999
1.0461150130075505,1.0461150130075505
1.1688333825910557,1.1688333825910557
1.3240360264760773,1.3240360264760773
1.486457397983658,1.486457397983658
1.6012351671823484,1.6012351671823484
1.6344413142461205,1.6344413142461205
1.6936348807511055,1.6936348807511055
1.7766502484105355,1.7766502484105355
1.7860345943198623,1.7860345943198623
1.6676474613098924,1.6676474613098924
1.6012351671823484,1.6012351671823484
1.680641171030499,1.680641171030499
1.7860345943198623,1.7860345943198623
1.7109598270452473,1.7109598270452473
1.5088354536135913,1.5088354536135913
1.326923517525101,1.326923517525101
1.2316363129073205,1.2316363129073205
1.1146929254218623,1.1146929254218623
0.9537152994387934,0.9537152994387934
0.7631408902032322,0.7631408902032322
0.5841164451637655,0.5841164451637655
0.3892107993546686,0.3892107993546686
0.21379571812648152,0.21379571812648152
0.05859307424145998,0.05859307424145998
-0.0634034225797895,-0.0634034225797895
-0.17890306454073576,-0.17890306454073576
-0.2482028497173035,-0.2482028497173035
-0.2972901975507057,-0.2972901975507057
-0.34060256328606053,-0.34060256328606053
-0.4084586029381164,-0.4084586029381164
-0.4330022768548175,-0.4330022768548175
-0.4301147858057939,-0.4301147858057939
-0.4330022768548175,-0.4330022768548175
-0.4907520978352906,-0.4907520978352906
-0.5254019904235745,-0.5254019904235745
-0.5275676087103423,-0.5275676087103423
-0.5254019904235745,-0.5254019904235745
-0.5817080658795358,-0.5817080658795358
-0.6178017039923315,-0.6178017039923315
-0.5954236483623981,-0.5954236483623981
-0.5254019904235745,-0.5254019904235745
-0.5080770441294326,-0.5080770441294326
-0.5254019904235745,-0.5254019904235745
-0.5448925550044842,-0.5448925550044842
-0.5254019904235745,-0.5254019904235745
-0.521070753850039,-0.521070753850039
-0.5254019904235745,-0.5254019904235745
-0.5138520262274799,-0.5138520262274799
-0.4330022768548175,-0.4330022768548175
-0.3564837640556906,-0.3564837640556906
-0.34060256328606053,-0.34060256328606053
-0.3759743286366003,-0.3759743286366003
-0.34060256328606053,-0.34060256328606053
-0.26191843220016586,-0.26191843220016586
-0.2482028497173035,-0.2482028497173035
-0.3579275095802024,-0.3579275095802024
-0.4330022768548175,-0.4330022768548175
-0.4019617480778132,-0.4019617480778132
-0.34060256328606053,-0.34060256328606053
-0.3564837640556906,-0.3564837640556906
-0.34060256328606053,-0.34060256328606053
-0.2171623209402992,-0.2171623209402992
-0.0634034225797895,-0.0634034225797895
-0.03452851208955294,-0.03452851208955294
-0.0634034225797895,-0.0634034225797895
-0.022256675131202396,-0.022256675131202396
0.12139600455772451,0.12139600455772451
0.2441143741412299,0.2441143741412299
0.30691730445749443,0.30691730445749443
0.3141360320800536,0.3141360320800536
0.30691730445749443,0.30691730445749443
0.28237363054079334,0.28237363054079334
0.30691730445749443,0.30691730445749443
0.38848892659241274,0.38848892659241274
0.49171673159500845,0.49171673159500845
0.5039885685533589,0.5039885685533589
0.3993170180262514,0.3993170180262514
0.18419893487398903,0.18419893487398903
-0.0634034225797895,-0.0634034225797895
-0.2922370882149143,-0.2922370882149143
-0.4330022768548175,-0.4330022768548175
-0.5001364437446175,-0.5001364437446175
-0.5254019904235745,-0.5254019904235745
-0.5759330837814886,-0.5759330837814886
-0.6178017039923315,-0.6178017039923315
-0.647398487244824,-0.647398487244824
-0.6178017039923315,-0.6178017039923315
-0.5766549565437444,-0.5766549565437444
-0.5254019904235745,-0.5254019904235745
-0.5073551713671767,-0.5073551713671767
-0.5254019904235745,-0.5254019904235745
-0.5860393024530713,-0.5860393024530713
-0.6178017039923315,-0.6178017039923315
-0.6228548133281229,-0.6228548133281229
-0.6178017039923315,-0.6178017039923315
-0.6286297954261703,-0.6286297954261703
-0.6178017039923315,-0.6178017039923315
-0.6993733261272498,-0.6993733261272498
-0.9881224310296154,-0.9881224310296154
-1.3764899771232972,-1.3764899771232972
-1.4501209988734005,-1.4501209988734005
-0.9599693933016348,-0.9599693933016348
0.12139600455772451,0.12139600455772451
1.7571596838296257,1.7571596838296257
3.7278723247882715,3.7278723247882715
5.0387932610450115,5.0387932610450115
4.467791906100583,4.467791906100583
1.9946558226118216,1.9946558226118216
-0.7109232903233444,-0.7109232903233444
-2.0290629542026437,-2.0290629542026437
-1.9128414394794413,-1.9128414394794413
-1.4342397981037704,-1.4342397981037704
-1.1729218581671295,-1.1729218581671295
-0.9621350115884025,-0.9621350115884025
-0.6178017039923315,-0.6178017039923315
-0.36370249167824975,-0.36370249167824975
-0.34060256328606053,-0.34060256328606053
-0.4322804040925616,-0.4322804040925616
-0.4330022768548175,-0.4330022768548175
-0.34854316367087557,-0.34854316367087557
-0.2482028497173035,-0.2482028497173035
-0.1969498835971336,-0.1969498835971336
-0.1558031361485465,-0.1558031361485465
-0.11393451593770348,-0.11393451593770348
-0.0634034225797895,-0.0634034225797895
-0.05762844048174219,-0.05762844048174219
-0.0634034225797895,-0.0634034225797895
-0.07784087782490778,-0.07784087782490778
-0.0634034225797895,-0.0634034225797895
-0.06701278639106907,-0.06701278639106907
-0.0634034225797895,-0.0634034225797895
-0.06268154981753359,-0.06268154981753359
-0.0634034225797895,-0.0634034225797895
-0.08505960544746692,-0.08505960544746692
-0.0634034225797895,-0.0634034225797895
0.010227599170313736,0.010227599170313736
0.12139600455772451,0.12139600455772451
0.18492080763624494,0.18492080763624494
0.21379571812648152,0.21379571812648152
0.23617377375641485,0.23617377375641485
0.30691730445749443,0.30691730445749443
0.3675546164869912,0.3675546164869912
0.3993170180262514,0.3993170180262514
0.40653574564881056,0.40653574564881056
0.49171673159500845,0.49171673159500845
0.6317600474726558,0.6317600474726558
0.7689158723012794,0.7689158723012794
0.8454343851004064,0.8454343851004064
0.9537152994387934,0.9537152994387934
1.1024210884635117,1.1024210884635117
1.2316363129073205,1.2316363129073205
1.2698955693068839,1.2698955693068839
1.3240360264760773,1.3240360264760773
1.443866905010559,1.443866905010559
1.6012351671823484,1.6012351671823484
1.7253972822903656,1.7253972822903656
1.8784343078886194,1.8784343078886194
2.0278619696755937,2.0278619696755937
2.063233735026133,2.063233735026133
1.9448466020161634,1.9448466020161634
1.8784343078886194,1.8784343078886194
1.9600059300235377,1.9600059300235377
2.063233735026133,2.063233735026133
2.006205786807916,2.006205786807916
1.8784343078886194,1.8784343078886194
1.7860345943198623,1.7860345943198623
1.6936348807511055,1.6936348807511055
1.4777949248365871,1.4777949248365871
1.2316363129073205,1.2316363129073205
1.0598305954904128,1.0598305954904128
0.9537152994387934,0.9537152994387934
0.7847970730709095,0.7847970730709095
0.5841164451637655,0.5841164451637655
0.41664196432039335,0.41664196432039335
0.30691730445749443,0.30691730445749443
0.16903960686661484,0.16903960686661484
0.028996290988967503,0.028996290988967503
-0.06412529534204542,-0.06412529534204542
-0.0634034225797895,-0.0634034225797895
-0.04896596733467122,-0.04896596733467122
-0.0634034225797895,-0.0634034225797895
-0.14858440852598737,-0.14858440852598737
-0.2482028497173035,-0.2482028497173035
-0.33266196290124544,-0.33266196290124544
-0.34060256328606053,-0.34060256328606053
-0.30595267069777665,-0.30595267069777665
-0.2482028497173035,-0.2482028497173035
-0.23015603066090565,-0.23015603066090565
-0.2482028497173035,-0.2482028497173035
-0.3297744718522218,-0.3297744718522218
-0.4330022768548175,-0.4330022768548175
-0.5261238631858304,-0.5261238631858304
-0.5254019904235745,-0.5254019904235745
-0.4474397320999358,-0.4474397320999358
-0.34060256328606053,-0.34060256328606053
-0.3095620345090562,-0.3095620345090562
-0.34060256328606053,-0.34060256328606053
-0.37886181968562394,-0.37886181968562394
-0.34060256328606053,-0.34060256328606053
-0.2792433784943078,-0.2792433784943078
-0.2482028497173035,-0.2482028497173035
-0.26985903258498095,-0.26985903258498095
-0.2482028497173035,-0.2482028497173035
-0.1868436649255508,-0.1868436649255508
-0.1558031361485465,-0.1558031361485465
-0.23954037657023253,-0.23954037657023253
-0.34060256328606053,-0.34060256328606053
-0.352874400244411,-0.352874400244411
-0.2482028497173035,-0.2482028497173035
-0.16013437272208197,-0.16013437272208197
-0.1558031361485465,-0.1558031361485465
-0.22510292132511425,-0.22510292132511425
-0.2482028497173035,-0.2482028497173035
-0.16302186377110564,-0.16302186377110564
0.028996290988967503,0.028996290988967503
0.18636455316075679,0.18636455316075679
0.21379571812648152,0.21379571812648152
0.13511158704058687,0.13511158704058687
0.12139600455772451,0.12139600455772451
0.20874260879069012,0.20874260879069012
0.30691730445749443,0.30691730445749443
0.30980479550651807,0.30980479550651807
0.30691730445749443,0.30691730445749443
0.37405147134729444,0.37405147134729444
0.49171673159500845,0.49171673159500845
0.5328634790435955,0.5328634790435955
0.49171673159500845,0.49171673159500845
0.4043701273620428,0.4043701273620428
0.30691730445749443,0.30691730445749443
0.14521780571216966,0.14521780571216966
-0.0634034225797895,-0.0634034225797895
-0.277799632969796,-0.277799632969796
-0.4330022768548175,-0.4330022768548175
-0.5477800460535078,-0.5477800460535078
-0.6178017039923315,-0.6178017039923315
-0.656060960391895,-0.656060960391895
-0.6178017039923315,-0.6178017039923315
-0.563661246823138,-0.563661246823138
-0.5254019904235745,-0.5254019904235745
-0.5658268651099057,-0.5658268651099057
-0.6178017039923315,-0.6178017039923315
-0.6394578868600089,-0.6394578868600089
-0.6178017039923315,-0.6178017039923315
-0.6156360857055637,-0.6156360857055637
-0.6178017039923315,-0.6178017039923315
-0.6257423043771466,-0.6257423043771466
-0.6178017039923315,-0.6178017039923315
-0.6149142129433078,-0.6149142129433078
-0.6178017039923315,-0.6178017039923315
-0.7766137116886326,-0.7766137116886326
-1.1729218581671295,-1.1729218581671295
-1.5973830423736068,-1.5973830423736068
-1.5425207124421574,-1.5425207124421574
-0.7773355844508886,-0.7773355844508886
0.5841164451637655,0.5841164451637655
2.3382672574456365,2.3382672574456365
4.190592765394312,4.190592765394312
5.197605268741312,5.197605268741312
4.282992478963069,4.282992478963069
1.6019570399446044,1.6019570399446044
-1.0805221445983724,-1.0805221445983724
-2.210974890291134,-2.210974890291134
-1.9128414394794413,-1.9128414394794413
-1.353390048731108,-1.353390048731108
-1.0805221445983724,-1.0805221445983724
-0.8899477353628111,-0.8899477353628111
-0.6178017039923315,-0.6178017039923315
-0.4561022052470068,-0.4561022052470068
-0.4330022768548175,-0.4330022768548175
-0.41423358503616375,-0.41423358503616375
-0.34060256328606053,-0.34060256328606053
-0.3247213625164304,-0.3247213625164304
-0.34060256328606053,-0.34060256328606053
-0.3182245076561272,-0.3182245076561272
-0.2482028497173035,-0.2482028497173035
-0.22943415789864974,-0.22943415789864974
-0.2482028497173035,-0.2482028497173035
-0.27346839639626047,-0.27346839639626047
-0.2482028497173035,-0.2482028497173035
-0.21644044817804328,-0.21644044817804328
-0.1558031361485465,-0.1558031361485465
-0.10527204279063251,-0.10527204279063251
-0.0634034225797895,-0.0634034225797895
-0.05907218600625402,-0.05907218600625402
-0.0634034225797895,-0.0634034225797895
-0.07423151401362821,-0.07423151401362821
-0.0634034225797895,-0.0634034225797895
-0.0634034225797895,-0.0634034225797895
-0.0634034225797895,-0.0634034225797895
-0.08000649611167553,-0.08000649611167553
-0.0634034225797895,-0.0634034225797895
-0.004209856074804546,-0.004209856074804546
0.12139600455772451,0.12139600455772451
0.2390612648054385,0.2390612648054385
0.30691730445749443,0.30691730445749443
0.29897670407267934,0.29897670407267934
0.30691730445749443,0.30691730445749443
0.3668327437247353,0.3668327437247353
0.49171673159500845,0.49171673159500845
0.5971101548843719,0.5971101548843719
0.6765161587325225,0.6765161587325225
0.7422065800978106,0.7422065800978106
0.8613155858700364,0.8613155858700364
1.0035245200344516,1.0035245200344516
1.1385147265763074,1.1385147265763074
1.2280269490960407,1.2280269490960407
1.3240360264760773,1.3240360264760773
1.4186013583316022,1.4186013583316022
1.5088354536135913,1.5088354536135913
1.5817446026014388,1.5817446026014388
1.6936348807511055,1.6936348807511055
1.788922085368886,1.788922085368886
1.7860345943198623,1.7860345943198623
1.6712568251211721,1.6712568251211721
1.6012351671823484,1.6012351671823484
1.614228876902955,1.614228876902955
1.6012351671823484,1.6012351671823484
1.437370050150256,1.437370050150256
1.2316363129073205,1.2316363129073205
1.0800430328335784,1.0800430328335784
0.9537152994387934,0.9537152994387934
0.7357097252375074,0.7357097252375074
0.49171673159500845,0.49171673159500845
0.31197041379328583,0.31197041379328583
0.21379571812648152,0.21379571812648152
0.08891173025620837,0.08891173025620837
-0.0634034225797895,-0.0634034225797895
-0.21932793922706695,-0.21932793922706695
-0.34060256328606053,-0.34060256328606053
-0.4575459507715186,-0.4575459507715186
-0.5254019904235745,-0.5254019904235745
-0.5441706822422283,-0.5441706822422283
-0.5254019904235745,-0.5254019904235745
-0.5542769009138111,-0.5542769009138111
-0.6178017039923315,-0.6178017039923315
-0.6907108529801789,-0.6907108529801789
-0.7109232903233444,-0.7109232903233444
-0.7130889086101122,-0.7130889086101122
-0.7109232903233444,-0.7109232903233444
-0.7268044910929745,-0.7268044910929745
-0.7109232903233444,-0.7109232903233444
-0.6704984156370133,-0.6704984156370133
-0.6178017039923315,-0.6178017039923315
-0.6098611036075164,-0.6098611036075164
-0.6178017039923315,-0.6178017039923315
-0.630795413712938,-0.630795413712938
-0.6178017039923315,-0.6178017039923315
-0.6178017039923315,-0.6178017039923315
-0.6178017039923315,-0.6178017039923315
-0.6271860499016584,-0.6271860499016584
-0.6178017039923315,-0.6178017039923315
-0.6185235767545875,-0.6185235767545875
-0.6178017039923315,-0.6178017039923315
-0.630795413712938,-0.630795413712938
-0.6178017039923315,-0.6178017039923315
-0.5853174296908153,-0.5853174296908153
-0.5254019904235745,-0.5254019904235745
-0.5030239347936412,-0.5030239347936412
-0.5254019904235745,-0.5254019904235745
-0.5651049923476498,-0.5651049923476498
-0.5254019904235745,-0.5254019904235745
-0.428671040281282,-0.428671040281282
-0.34060256328606053,-0.34060256328606053
-0.30811828898454435,-0.30811828898454435
-0.2482028497173035,-0.2482028497173035
-0.14714066300147555,-0.14714066300147555
-0.0634034225797895,-0.0634034225797895
-0.06268154981753359,-0.06268154981753359
-0.0634034225797895,-0.0634034225797895
-0.02081292960669057,-0.02081292960669057
0.028996290988967503,0.028996290988967503
0.016724454030616964,0.016724454030616964
0.028996290988967503,0.028996290988967503
0.13799907808961054,0.13799907808961054
0.30691730445749443,0.30691730445749443
0.3769389623963181,0.3769389623963181
0.30691730445749443,0.30691730445749443
0.1307803504670514,0.1307803504670514
-0.0634034225797895,-0.0634034225797895
-0.26191843220016586,-0.26191843220016586
-0.4330022768548175,-0.4330022768548175
-0.5860393024530713,-0.5860393024530713
-0.7109232903233444,-0.7109232903233444
-0.8249791867597789,-0.8249791867597789
-0.8957227174608584,-0.8957227174608584
-0.924597627951095,-0.924597627951095
-0.8957227174608584,-0.8957227174608584
-0.8841727532647639,-0.8841727532647639
-0.8957227174608584,-0.8957227174608584
-0.9209882641398154,-0.9209882641398154
-0.8957227174608584,-0.8957227174608584
-0.8430260058161767,-0.8430260058161767
-0.8033230038921014,-0.8033230038921014
-0.8105417315146606,-0.8105417315146606
-0.8033230038921014,-0.8033230038921014
-0.7621762564435143,-0.7621762564435143
-0.7109232903233444,-0.7109232903233444
-0.7513481650096756,-0.7513481650096756
-0.8957227174608584,-0.8957227174608584
-1.11805952823568,-1.11805952823568
-1.3577212853046434,-1.3577212853046434
-1.587276823702024,-1.587276823702024
-1.5425207124421574,-1.5425207124421574
-0.7506262922474197,-0.7506262922474197
1.0461150130075505,1.0461150130075505
3.186467753096336,3.186467753096336
4.375392192531826,4.375392192531826
3.7589128535652754,3.7589128535652754
1.7860345943198623,1.7860345943198623
-0.35215252748215514,-0.35215252748215514
-1.7280420123419273,-1.7280420123419273
-2.192928071234736,-2.192928071234736
-2.0052411530481984,-2.0052411530481984
-1.537467603106366,-1.537467603106366
-1.0805221445983724,-1.0805221445983724
-0.8228135684730111,-0.8228135684730111
-0.7109232903233444,-0.7109232903233444
-0.6329610319997057,-0.6329610319997057
-0.5254019904235745,-0.5254019904235745
-0.4561022052470068,-0.4561022052470068
-0.4330022768548175,-0.4330022768548175
-0.44238662276414437,-0.44238662276414437
-0.4330022768548175,-0.4330022768548175
-0.42939291304353794,-0.42939291304353794
-0.4330022768548175,-0.4330022768548175
-0.4532147141979831,-0.4532147141979831
-0.4330022768548175,-0.4330022768548175
-0.3925774021684863,-0.3925774021684863
-0.34060256328606053,-0.34060256328606053
-0.3413244360483164,-0.3413244360483164
-0.34060256328606053,-0.34060256328606053
-0.3138932710825917,-0.3138932710825917
-0.2482028497173035,-0.2482028497173035
-0.22149355751383468,-0.22149355751383468
-0.2482028497173035,-0.2482028497173035
-0.29151521545265835,-0.29151521545265835
-0.2482028497173035,-0.2482028497173035
-0.14930628128824328,-0.14930628128824328
-0.0634034225797895,-0.0634034225797895
-0.06051593153076584,-0.06051593153076584
-0.0634034225797895,-0.0634034225797895
-0.03452851208955294,-0.03452851208955294
0.028996290988967503,0.028996290988967503
0.06653367462627503,0.06653367462627503
0.12139600455772451,0.12139600455772451
0.20152388116813097,0.20152388116813097
0.30691730445749443,0.30691730445749443
0.3877670538301568,0.3877670538301568
0.49171673159500845,0.49171673159500845
0.6223757015633289,0.6223757015633289
0.7689158723012794,0.7689158723012794
0.8649249496813161,0.8649249496813161
0.9537152994387934,0.9537152994387934
1.0706586869242516,1.0706586869242516
1.2316363129073205,1.2316363129073205
1.3500234459172902,1.3500234459172902
1.4164357400448344,1.4164357400448344
1.4727418155007956,1.4727418155007956
1.6012351671823484,1.6012351671823484
1.7355035009619484,1.7355035009619484
1.7860345943198623,1.7860345943198623
1.7261191550526216,1.7261191550526216
1.6936348807511055,1.6936348807511055
1.7383909920109721,1.7383909920109721
1.7860345943198623,1.7860345943198623
1.6958004990378732,1.6958004990378732
1.5088354536135913,1.5088354536135913
1.3312547540986366,1.3312547540986366
1.2316363129073205,1.2316363129073205
1.1204679075199095,1.1204679075199095
0.9537152994387934,0.9537152994387934
0.7458159439090902,0.7458159439090902
0.5841164451637655,0.5841164451637655
0.4505699841464213,0.4505699841464213
0.30691730445749443,0.30691730445749443
0.1105679131238858,0.1105679131238858
-0.0634034225797895,-0.0634034225797895
-0.18539991940103898,-0.18539991940103898
-0.2482028497173035,-0.2482028497173035
-0.30667454346003253,-0.30667454346003253
-0.34060256328606053,-0.34060256328606053
-0.37813994692336805,-0.37813994692336805
-0.4330022768548175,-0.4330022768548175
-0.5398394456686928,-0.5398394456686928
-0.6178017039923315,-0.6178017039923315
-0.6423453779090326,-0.6423453779090326
-0.6178017039923315,-0.6178017039923315
-0.6178017039923315,-0.6178017039923315
-0.6178017039923315,-0.6178017039923315
-0.6192454495168433,-0.6192454495168433
-0.6178017039923315,-0.6178017039923315
-0.6654453063012219,-0.6654453063012219
-0.7109232903233444,-0.7109232903233444
-0.7065920537498089,-0.7065920537498089
-0.6178017039923315,-0.6178017039923315
-0.5391175729064369,-0.5391175729064369
-0.5254019904235745,-0.5254019904235745
-0.5845955569285595,-0.5845955569285595
-0.6178017039923315,-0.6178017039923315
-0.6206891950413552,-0.6206891950413552
-0.6178017039923315,-0.6178017039923315
-0.6416235051467767,-0.6416235051467767
-0.6178017039923315,-0.6178017039923315
-0.5593300102496025,-0.5593300102496025
-0.5254019904235745,-0.5254019904235745
-0.5780987020682562,-0.5780987020682562
-0.6178017039923315,-0.6178017039923315
-0.5918142845511186,-0.5918142845511186
-0.5254019904235745,-0.5254019904235745
-0.5189051355632713,-0.5189051355632713
-0.5254019904235745,-0.5254019904235745
-0.4741490243034046,-0.4741490243034046
-0.34060256328606053,-0.34060256328606053
-0.22654666684962607,-0.22654666684962607
-0.1558031361485465,-0.1558031361485465
-0.09083458754551424,-0.09083458754551424
0.028996290988967503,0.028996290988967503
0.12428349560674816,0.12428349560674816
0.12139600455772451,0.12139600455772451
0.0391025096605503,0.0391025096605503
0.028996290988967503,0.028996290988967503
0.12139600455772451,0.12139600455772451
0.21379571812648152,0.21379571812648152
0.18419893487398903,0.18419893487398903
0.12139600455772451,0.12139600455772451
0.15893338819503203,0.15893338819503203
0.30691730445749443,0.30691730445749443
0.36466712543796753,0.36466712543796753
0.21379571812648152,0.21379571812648152
-0.08794709649649057,-0.08794709649649057
-0.34060256328606053,-0.34060256328606053
-0.4950833344088261,-0.4950833344088261
-0.6178017039923315,-0.6178017039923315
-0.7795012027376562,-0.7795012027376562
-0.8957227174608584,-0.8957227174608584
-0.924597627951095,-0.924597627951095
-0.8957227174608584,-0.8957227174608584
-0.9058289361324412,-0.9058289361324412
-0.8957227174608584,-0.8957227174608584
-0.8545759700122714,-0.8545759700122714
-0.8033230038921014,-0.8033230038921014
-0.8018792583675896,-0.8018792583675896
-0.8033230038921014,-0.8033230038921014
-0.7961042762695423,-0.7961042762695423
-0.8033230038921014,-0.8033230038921014
-0.8668478069706219,-0.8668478069706219
-0.8957227174608584,-0.8957227174608584
-0.8257010595220348,-0.8257010595220348
-0.7109232903233444,-0.7109232903233444
-0.7968261490317982,-0.7968261490317982
-1.1729218581671295,-1.1729218581671295
-1.5988267878981188,-1.5988267878981188
-1.6356422987731705,-1.6356422987731705
-1.1411594566278693,-1.1411594566278693
-0.1558031361485465,-0.1558031361485465
1.3745671198339913,1.3745671198339913
3.358273470513243,3.358273470513243
4.780362812157394,4.780362812157394
4.282992478963069,4.282992478963069
1.8033595406140044,1.8033595406140044
-0.8957227174608584,-0.8957227174608584
-2.148893832737125,-2.148893832737125
-2.0052411530481984,-2.0052411530481984
-1.5843893326530005,-1.5843893326530005
-1.3577212853046434,-1.3577212853046434
-1.0891846177454434,-1.0891846177454434
-0.7109232903233444,-0.7109232903233444
-0.5420050639554606,-0.5420050639554606
-0.6178017039923315,-0.6178017039923315
-0.6899889802179229,-0.6899889802179229
-0.6178017039923315,-0.6178017039923315
-0.5441706822422283,-0.5441706822422283
-0.5254019904235745,-0.5254019904235745
-0.5333425908083895,-0.5333425908083895
-0.5254019904235745,-0.5254019904235745
-0.5362300818574133,-0.5362300818574133
-0.5254019904235745,-0.5254019904235745
-0.49291771612205837,-0.49291771612205837
-0.4330022768548175,-0.4330022768548175
-0.3976305115042777,-0.3976305115042777
-0.34060256328606053,-0.34060256328606053
-0.285740233354611,-0.285740233354611
-0.2482028497173035,-0.2482028497173035
-0.2828527423055874,-0.2828527423055874
-0.34060256328606053,-0.34060256328606053
-0.3514306547198992,-0.3514306547198992
-0.2482028497173035,-0.2482028497173035
-0.12259698908477445,-0.12259698908477445
-0.0634034225797895,-0.0634034225797895
-0.08794709649649057,-0.08794709649649057
-0.0634034225797895,-0.0634034225797895
0.03044003651347933,0.03044003651347933
0.12139600455772451,0.12139600455772451
0.11923038627095676,0.11923038627095676
0.12139600455772451,0.12139600455772451
0.19141766249654818,0.19141766249654818
0.30691730445749443,0.30691730445749443
0.35889214333992026,0.35889214333992026
0.3993170180262514,0.3993170180262514
0.49388234988177615,0.49388234988177615
0.6765161587325225,0.6765161587325225
0.8670905679680837,0.8670905679680837
1.0461150130075505,1.0461150130075505
1.1695552553533117,1.1695552553533117
1.2316363129073205,1.2316363129073205
1.2453518953901828,1.2453518953901828
1.3240360264760773,1.3240360264760773
1.4669668334027484,1.4669668334027484
1.6012351671823484,1.6012351671823484
1.6474350239667268,1.6474350239667268
1.6936348807511055,1.6936348807511055
1.7845908487953506,1.7845908487953506
1.8784343078886194,1.8784343078886194
1.8639968526435011,1.8639968526435011
1.7860345943198623,1.7860345943198623
1.7174566819055506,1.7174566819055506
1.6936348807511055,1.6936348807511055
1.6286663321480732,1.6286663321480732
1.5088354536135913,1.5088354536135913
1.3572421735398494,1.3572421735398494
1.2316363129073205,1.2316363129073205
1.0764336690222989,1.0764336690222989
0.8613155858700364,0.8613155858700364
0.5963882821221159,0.5963882821221159
0.3993170180262514,0.3993170180262514
0.28742673987658474,0.28742673987658474
0.21379571812648152,0.21379571812648152
0.08385862092041697,0.08385862092041697
-0.0634034225797895,-0.0634034225797895
-0.18612179216329489,-0.18612179216329489
-0.2482028497173035,-0.2482028497173035
-0.30306517964875296,-0.30306517964875296
-0.34060256328606053,-0.34060256328606053
-0.386802420070439,-0.386802420070439
-0.4330022768548175,-0.4330022768548175
-0.5001364437446175,-0.5001364437446175
-0.5254019904235745,-0.5254019904235745
-0.5239582448990627,-0.5239582448990627
-0.5254019904235745,-0.5254019904235745
-0.5831518114040476,-0.5831518114040476
-0.6178017039923315,-0.6178017039923315
-0.5961455211246541,-0.5961455211246541
-0.5254019904235745,-0.5254019904235745
-0.5030239347936412,-0.5030239347936412
-0.5254019904235745,-0.5254019904235745
-0.5838736841663036,-0.5838736841663036
-0.6178017039923315,-0.6178017039923315
-0.6105829763697723,-0.6105829763697723
-0.5254019904235745,-0.5254019904235745
-0.44238662276414437,-0.44238662276414437
-0.4330022768548175,-0.4330022768548175
-0.5095207896539444,-0.5095207896539444
-0.5254019904235745,-0.5254019904235745
-0.4416647500018885,-0.4416647500018885
-0.34060256328606053,-0.34060256328606053
-0.3600931278669702,-0.3600931278669702
-0.4330022768548175,-0.4330022768548175
-0.44238662276414437,-0.44238662276414437
-0.34060256328606053,-0.34060256328606053
-0.2532559590530949,-0.2532559590530949
-0.2482028497173035,-0.2482028497173035
-0.3146151438448476,-0.3146151438448476
-0.34060256328606053,-0.34060256328606053
-0.28501836059235514,-0.28501836059235514
-0.1558031361485465,-0.1558031361485465
-0.06629091362881316,-0.06629091362881316
-0.0634034225797895,-0.0634034225797895
-0.10599391555288844,-0.10599391555288844
-0.0634034225797895,-0.0634034225797895
0.04559936452085352,0.04559936452085352
0.12139600455772451,0.12139600455772451
0.10695854931260622,0.10695854931260622
0.12139600455772451,0.12139600455772451
0.21163009983971376,0.21163009983971376
0.30691730445749443,0.30691730445749443
0.3141360320800536,0.3141360320800536
0.30691730445749443,0.30691730445749443
0.2996985768349353,0.2996985768349353
0.21379571812648152,0.21379571812648152
-0.017925438557666915,-0.017925438557666915
-0.2482028497173035,-0.2482028497173035
-0.36875560101404115,-0.36875560101404115
-0.4330022768548175,-0.4330022768548175
-0.5694362289211853,-0.5694362289211853
-0.7109232903233444,-0.7109232903233444
-0.7585668926322348,-0.7585668926322348
-0.7109232903233444,-0.7109232903233444
-0.6957639623159703,-0.6957639623159703
-0.7109232903233444,-0.7109232903233444
-0.7520700377719315,-0.7520700377719315
-0.8033230038921014,-0.8033230038921014
-0.8791196439289725,-0.8791196439289725
-0.8957227174608584,-0.8957227174608584
-0.8228135684730111,-0.8228135684730111
-0.7109232903233444,-0.7109232903233444
-0.6755515249728047,-0.6755515249728047
-0.7109232903233444,-0.7109232903233444
-0.7686731113038175,-0.7686731113038175
-0.8033230038921014,-0.8033230038921014
-0.8892258626005553,-0.8892258626005553
-1.0805221445983724,-1.0805221445983724
-1.3837087047458563,-1.3837087047458563
-1.6356422987731705,-1.6356422987731705
-1.5851112054152563,-1.5851112054152563
-0.8957227174608584,-0.8957227174608584
0.5783414630657181,0.5783414630657181
2.525954175632174,2.525954175632174
4.015177684166125,4.015177684166125
4.098193051825556,4.098193051825556
2.593088342521974,2.593088342521974
0.3993170180262514,0.3993170180262514
-1.3223495199541038,-1.3223495199541038
-2.0052411530481984,-2.0052411530481984
-1.9142851850039533,-1.9142851850039533
-1.5425207124421574,-1.5425207124421574
-1.2183998421892521,-1.2183998421892521
-0.9881224310296154,-0.9881224310296154
-0.8379728964803853,-0.8379728964803853
-0.7109232903233444,-0.7109232903233444
-0.6098611036075164,-0.6098611036075164
-0.5254019904235745,-0.5254019904235745
-0.47703651535242825,-0.47703651535242825
-0.4330022768548175,-0.4330022768548175
-0.4214523126587229,-0.4214523126587229
-0.4330022768548175,-0.4330022768548175
-0.4322804040925616,-0.4322804040925616
-0.34060256328606053,-0.34060256328606053
-0.23954037657023253,-0.23954037657023253
-0.2482028497173035,-0.2482028497173035
-0.4106242212248842,-0.4106242212248842
-0.5254019904235745,-0.5254019904235745
-0.4871427340240111,-0.4871427340240111
-0.34060256328606053,-0.34060256328606053
-0.2575871956266304,-0.2575871956266304
-0.2482028497173035,-0.2482028497173035
-0.2597528139133981,-0.2597528139133981
-0.2482028497173035,-0.2482028497173035
-0.2575871956266304,-0.2575871956266304
-0.2482028497173035,-0.2482028497173035
-0.18973115597457446,-0.18973115597457446
-0.0634034225797895,-0.0634034225797895
0.04632123728310944,0.04632123728310944
0.12139600455772451,0.12139600455772451
0.15965526095728796,0.15965526095728796
0.21379571812648152,0.21379571812648152
0.26071744767311594,0.26071744767311594
0.30691730445749443,0.30691730445749443
0.335792214947731,0.335792214947731
0.3993170180262514,0.3993170180262514
0.4816105129234256,0.4816105129234256
0.5841164451637655,0.5841164451637655
0.6664099400609397,0.6664099400609397
0.7689158723012794,0.7689158723012794
0.8959654784583203,0.8959654784583203
1.0461150130075505,1.0461150130075505
1.151508436296914,1.151508436296914
1.2316363129073205,1.2316363129073205
1.3290891358118688,1.3290891358118688
1.5088354536135913,1.5088354536135913
1.6943567535133612,1.6943567535133612
1.7860345943198623,1.7860345943198623
1.7196223001923183,1.7196223001923183
1.6012351671823484,1.6012351671823484
1.5449290917263871,1.5449290917263871
1.6012351671823484,1.6012351671823484
1.6488787694912388,1.6488787694912388
1.6012351671823484,1.6012351671823484
1.453251250919886,1.453251250919886
1.3240360264760773,1.3240360264760773
1.2330800584318322,1.2330800584318322
1.1385147265763074,1.1385147265763074
0.9681527546839117,0.9681527546839117
0.7689158723012794,0.7689158723012794
0.5718446082054149,0.5718446082054149
0.3993170180262514,0.3993170180262514
0.23112066442062346,0.23112066442062346
0.12139600455772451,0.12139600455772451
0.041990000709573955,0.041990000709573955
-0.0634034225797895,-0.0634034225797895
-0.25542157733986265,-0.25542157733986265
-0.4330022768548175,-0.4330022768548175
-0.5232363721368067,-0.5232363721368067
-0.5254019904235745,-0.5254019904235745
-0.554998773676067,-0.554998773676067
-0.6178017039923315,-0.6178017039923315
-0.6899889802179229,-0.6899889802179229
-0.7109232903233444,-0.7109232903233444
-0.7166982724213917,-0.7166982724213917
-0.7109232903233444,-0.7109232903233444
-0.7174201451836476,-0.7174201451836476
-0.7109232903233444,-0.7109232903233444
-0.7138107813723681,-0.7138107813723681
-0.7109232903233444,-0.7109232903233444
-0.7188638907081595,-0.7188638907081595
-0.7109232903233444,-0.7109232903233444
-0.7109232903233444,-0.7109232903233444
-0.7109232903233444,-0.7109232903233444
-0.7253607455684628,-0.7253607455684628
-0.7109232903233444,-0.7109232903233444
-0.6733859066860369,-0.6733859066860369
-0.6178017039923315,-0.6178017039923315
-0.6019205032227014,-0.6019205032227014
-0.6178017039923315,-0.6178017039923315
-0.6690546701125014,-0.6690546701125014
-0.7109232903233444,-0.7109232903233444
-0.7361888370023014,-0.7361888370023014
-0.7109232903233444,-0.7109232903233444
-0.6654453063012219,-0.6654453063012219
-0.6178017039923315,-0.6178017039923315
-0.614192340181052,-0.614192340181052
-0.6178017039923315,-0.6178017039923315
-0.6026423759849573,-0.6026423759849573
-0.5254019904235745,-0.5254019904235745
-0.428671040281282,-0.428671040281282
-0.34060256328606053,-0.34060256328606053
-0.29295896097717017,-0.29295896097717017
-0.2482028497173035,-0.2482028497173035
-0.20561235674420458,-0.20561235674420458
-0.1558031361485465,-0.1558031361485465
-0.11826575251123897,-0.11826575251123897
-0.0634034225797895,-0.0634034225797895
-0.011428583697363687,-0.011428583697363687
0.028996290988967503,0.028996290988967503
0.05209621938115675,0.05209621938115675
0.12139600455772451,0.12139600455772451
0.22751130060934388,0.22751130060934388
0.30691730445749443,0.30691730445749443
0.26288306595988364,0.26288306595988364
0.12139600455772451,0.12139600455772451
-0.06701278639106907,-0.06701278639106907
-0.2482028497173035,-0.2482028497173035
-0.4394991317151207,-0.4394991317151207
-0.6178017039923315,-0.6178017039923315
-0.7787793299754003,-0.7787793299754003
-0.8957227174608584,-0.8957227174608584
-0.9772943395957767,-0.9772943395957767
-0.9881224310296154,-0.9881224310296154
-0.9549162839658434,-0.9549162839658434
-0.8957227174608584,-0.8957227174608584
-0.9087164271814648,-0.9087164271814648
-0.9881224310296154,-0.9881224310296154
-1.0812440173606284,-1.0812440173606284
-1.0805221445983724,-1.0805221445983724
-0.9953411586521745,-0.9953411586521745
-0.8957227174608584,-0.8957227174608584
-0.8726227890686692,-0.8726227890686692
-0.8957227174608584,-0.8957227174608584
-0.91665702756628,-0.91665702756628
-0.8957227174608584,-0.8957227174608584
-0.9231538824265831,-0.9231538824265831
-1.0805221445983724,-1.0805221445983724
-1.401755523802254,-1.401755523802254
-1.7280420123419273,-1.7280420123419273
-1.7792949784620973,-1.7792949784620973
-1.1729218581671295,-1.1729218581671295
0.2729892846314665,0.2729892846314665
2.248755034925903,2.248755034925903
3.788509636817768,3.788509636817768
3.912671751925785,3.912671751925785
2.445826299021768,2.445826299021768
0.30691730445749443,0.30691730445749443
-1.3512244304443402,-1.3512244304443402
-2.0052411530481984,-2.0052411530481984
-1.9453257137809574,-1.9453257137809574
-1.6356422987731705,-1.6356422987731705
-1.3403963390105016,-1.3403963390105016
-1.0805221445983724,-1.0805221445983724
-0.8704571707819014,-0.8704571707819014
-0.7109232903233444,-0.7109232903233444
-0.6344047775242175,-0.6344047775242175
-0.6178017039923315,-0.6178017039923315
-0.6365703958109853,-0.6365703958109853
-0.6178017039923315,-0.6178017039923315
-0.5730455927324648,-0.5730455927324648
-0.5254019904235745,-0.5254019904235745
-0.521792626612295,-0.521792626612295
-0.5254019904235745,-0.5254019904235745
-0.5333425908083895,-0.5333425908083895
-0.5254019904235745,-0.5254019904235745
-0.537673827381925,-0.537673827381925
-0.5254019904235745,-0.5254019904235745
-0.49652707993333794,-0.49652707993333794
-0.4330022768548175,-0.4330022768548175
-0.3803055652101358,-0.3803055652101358
-0.34060256328606053,-0.34060256328606053
-0.336271326712525,-0.336271326712525
-0.34060256328606053,-0.34060256328606053
-0.35720563681794654,-0.35720563681794654
-0.34060256328606053,-0.34060256328606053
-0.30595267069777665,-0.30595267069777665
-0.2482028497173035,-0.2482028497173035
-0.20561235674420458,-0.20561235674420458
-0.1558031361485465,-0.1558031361485465
-0.1146563886999594,-0.1146563886999594
-0.0634034225797895,-0.0634034225797895
-0.02658791170473788,-0.02658791170473788
0.028996290988967503,0.028996290988967503
0.10190543997681482,0.10190543997681482
0.21379571812648152,0.21379571812648152
0.3141360320800536,0.3141360320800536
0.3993170180262514,0.3993170180262514
0.4686168032028192,0.4686168032028192
0.5841164451637655,0.5841164451637655
0.721994142754645,0.721994142754645
0.8613155858700364,0.8613155858700364
0.9797027188800064,0.9797027188800064
1.1385147265763074,1.1385147265763074
1.3074329529441913,1.3074329529441913
1.4164357400448344,1.4164357400448344
1.4149919945203226,1.4149919945203226
1.4164357400448344,1.4164357400448344
1.48790114350817,1.48790114350817
1.6012351671823484,1.6012351671823484
1.6380506780574,1.6380506780574
1.6012351671823484,1.6012351671823484
1.5146104357116388,1.5146104357116388
1.4164357400448344,1.4164357400448344
1.3031017163706557,1.3031017163706557
1.2316363129073205,1.2316363129073205
1.1681115098288,1.1681115098288
1.0461150130075505,1.0461150130075505
0.814393856323402,0.814393856323402
0.5841164451637655,0.5841164451637655
0.4224169464184407,0.4224169464184407
0.30691730445749443,0.30691730445749443
0.1315022232293073,0.1315022232293073
-0.0634034225797895,-0.0634034225797895
-0.20561235674420458,-0.20561235674420458
-0.2482028497173035,-0.2482028497173035
-0.2792433784943078,-0.2792433784943078
-0.34060256328606053,-0.34060256328606053
-0.4445522410509121,-0.4445522410509121
-0.5254019904235745,-0.5254019904235745
-0.5874830479775831,-0.5874830479775831
-0.6178017039923315,-0.6178017039923315
-0.638736014097753,-0.638736014097753
-0.6178017039923315,-0.6178017039923315
-0.6033642487472133,-0.6033642487472133
-0.6178017039923315,-0.6178017039923315
-0.6834921253576197,-0.6834921253576197
-0.7109232903233444,-0.7109232903233444
-0.6806046343085961,-0.6806046343085961
-0.6178017039923315,-0.6178017039923315
-0.6069736125584928,-0.6069736125584928
-0.6178017039923315,-0.6178017039923315
-0.630073540950682,-0.630073540950682
-0.6178017039923315,-0.6178017039923315
-0.6228548133281229,-0.6228548133281229
-0.6178017039923315,-0.6178017039923315
-0.6170798312300756,-0.6170798312300756
-0.6178017039923315,-0.6178017039923315
-0.6380141413354972,-0.6380141413354972
-0.6178017039923315,-0.6178017039923315
-0.5701581016834412,-0.5701581016834412
-0.5254019904235745,-0.5254019904235745
-0.5318988452838778,-0.5318988452838778
-0.5254019904235745,-0.5254019904235745
-0.487864606786267,-0.487864606786267
-0.4330022768548175,-0.4330022768548175
-0.4272272947567702,-0.4272272947567702
-0.4330022768548175,-0.4330022768548175
-0.412067966749396,-0.412067966749396
-0.34060256328606053,-0.34060256328606053
-0.285740233354611,-0.285740233354611
-0.2482028497173035,-0.2482028497173035
-0.19117490149908628,-0.19117490149908628
-0.0634034225797895,-0.0634034225797895
0.0391025096605503,0.0391025096605503
0.028996290988967503,0.028996290988967503
-0.06629091362881316,-0.06629091362881316
-0.0634034225797895,-0.0634034225797895
0.07230865672432235,0.07230865672432235
0.21379571812648152,0.21379571812648152
0.23039879165836752,0.23039879165836752
0.21379571812648152,0.21379571812648152
0.25710808386183637,0.25710808386183637
0.30691730445749443,0.30691730445749443
0.19286140802106,0.19286140802106
-0.0634034225797895,-0.0634034225797895
-0.31317139832033575,-0.31317139832033575
-0.4330022768548175,-0.4330022768548175
-0.504467680318153,-0.504467680318153
-0.6178017039923315,-0.6178017039923315
-0.7845543120734476,-0.7845543120734476
-0.8957227174608584,-0.8957227174608584
-0.9253195007133509,-0.9253195007133509
-0.8957227174608584,-0.8957227174608584
-0.8971664629853703,-0.8971664629853703
-0.8957227174608584,-0.8957227174608584
-0.8719009163064133,-0.8719009163064133
-0.8033230038921014,-0.8033230038921014
-0.7744480934018648,-0.7744480934018648
-0.8033230038921014,-0.8033230038921014
-0.8170385863749638,-0.8170385863749638
-0.7109232903233444,-0.7109232903233444
-0.6185235767545875,-0.6185235767545875
-0.7109232903233444,-0.7109232903233444
-0.9108820454682326,-0.9108820454682326
-0.8957227174608584,-0.8957227174608584
-0.7217513817571831,-0.7217513817571831
-0.8033230038921014,-0.8033230038921014
-1.267487190022654,-1.267487190022654
-1.5425207124421574,-1.5425207124421574
-1.0891846177454434,-1.0891846177454434
0.12139600455772451,0.12139600455772451
1.8336781966287528,1.8336781966287528
3.7278723247882715,3.7278723247882715
4.893696835831572,4.893696835831572
4.190592765394312,4.190592765394312
1.6286663321480732,1.6286663321480732
-1.0805221445983724,-1.0805221445983724
-2.309871458720194,-2.309871458720194
-2.0976408666169553,-2.0976408666169553
-1.5937736785623273,-1.5937736785623273
-1.3577212853046434,-1.3577212853046434
-1.1837499496009682,-1.1837499496009682
-0.8957227174608584,-0.8957227174608584
-0.6878233619311552,-0.6878233619311552
-0.6178017039923315,-0.6178017039923315
-0.5831518114040476,-0.5831518114040476
-0.5254019904235745,-0.5254019904235745
-0.5225144993745509,-0.5225144993745509
-0.5254019904235745,-0.5254019904235745
-0.4885864795485229,-0.4885864795485229
-0.4330022768548175,-0.4330022768548175
-0.43516789514158527,-0.43516789514158527
-0.4330022768548175,-0.4330022768548175
-0.3976305115042777,-0.3976305115042777
-0.34060256328606053,-0.34060256328606053
-0.34421192709734005,-0.34421192709734005
-0.34060256328606053,-0.34060256328606053
-0.30811828898454435,-0.30811828898454435
-0.2482028497173035,-0.2482028497173035
-0.2330435217099293,-0.2330435217099293
-0.2482028497173035,-0.2482028497173035
-0.2684152870604691,-0.2684152870604691
-0.2482028497173035,-0.2482028497173035
-0.21427482989127555,-0.21427482989127555
-0.1558031361485465,-0.1558031361485465
-0.10527204279063251,-0.10527204279063251
-0.0634034225797895,-0.0634034225797895
-0.06773465915332498,-0.06773465915332498
-0.0634034225797895,-0.0634034225797895
-0.012872329221875515,-0.012872329221875515
0.12139600455772451,0.12139600455772451
0.24627999242799764,0.24627999242799764
0.30691730445749443,0.30691730445749443
0.3126922865555417,0.3126922865555417
0.3993170180262514,0.3993170180262514
0.5776195903034622,0.5776195903034622
0.7689158723012794,0.7689158723012794
0.8706999317793633,0.8706999317793633
0.9537152994387934,0.9537152994387934
1.074989923497787,1.074989923497787
1.2316363129073205,1.2316363129073205
1.3363078634344279,1.3363078634344279
1.4164357400448344,1.4164357400448344
1.4980073621797527,1.4980073621797527
1.6012351671823484,1.6012351671823484
1.687859898653058,1.687859898653058
1.7860345943198623,1.7860345943198623
1.8639968526435011,1.8639968526435011
1.8784343078886194,1.8784343078886194
1.7903658308933978,1.7903658308933978
1.6936348807511055,1.6936348807511055
1.6380506780574,1.6380506780574
1.6012351671823484,1.6012351671823484
1.487179270745914,1.487179270745914
1.3240360264760773,1.3240360264760773
1.1616146549684967,1.1616146549684967
1.0461150130075505,1.0461150130075505
0.9190654068505095,0.9190654068505095
0.7689158723012794,0.7689158723012794
0.57978520859023,0.57978520859023
0.3993170180262514,0.3993170180262514
0.2340081554696471,0.2340081554696471
0.12139600455772451,0.12139600455772451
0.02538692717768793,0.02538692717768793
-0.0634034225797895,-0.0634034225797895
-0.1716843369181766,-0.1716843369181766
-0.2482028497173035,-0.2482028497173035
-0.3045089251732648,-0.3045089251732648
-0.34060256328606053,-0.34060256328606053
-0.3976305115042777,-0.3976305115042777
-0.4330022768548175,-0.4330022768548175
-0.44599598657542394,-0.44599598657542394
-0.4330022768548175,-0.4330022768548175
-0.4662084239185896,-0.4662084239185896
-0.5254019904235745,-0.5254019904235745
-0.5701581016834412,-0.5701581016834412
-0.5254019904235745,-0.5254019904235745
-0.45682407800926267,-0.45682407800926267
-0.4330022768548175,-0.4330022768548175
-0.4907520978352906,-0.4907520978352906
-0.5254019904235745,-0.5254019904235745
-0.4986926982201057,-0.4986926982201057
-0.4330022768548175,-0.4330022768548175
-0.4214523126587229,-0.4214523126587229
-0.4330022768548175,-0.4330022768548175
-0.41784294884744333,-0.41784294884744333
-0.34060256328606053,-0.34060256328606053
-0.30089956136198526,-0.30089956136198526
-0.34060256328606053,-0.34060256328606053
-0.42578354923225836,-0.42578354923225836
-0.4330022768548175,-0.4330022768548175
-0.3810274379723917,-0.3810274379723917
-0.34060256328606053,-0.34060256328606053
-0.3600931278669702,-0.3600931278669702
-0.34060256328606053,-0.34060256328606053
-0.27707776020754005,-0.27707776020754005
-0.2482028497173035,-0.2482028497173035
-0.3153370166071035,-0.3153370166071035
-0.34060256328606053,-0.34060256328606053
-0.2380966310457207,-0.2380966310457207
-0.0634034225797895,-0.0634034225797895
0.047764982807621266,0.047764982807621266
0.12139600455772451,0.12139600455772451
0.18564268039850085,0.18564268039850085
0.21379571812648152,0.21379571812648152
0.15532402438375248,0.15532402438375248
0.12139600455772451,0.12139600455772451
0.18564268039850085,0.18564268039850085
0.30691730445749443,0.30691730445749443
0.3668327437247353,0.3668327437247353
0.3993170180262514,0.3993170180262514
0.44623874757288584,0.44623874757288584
0.49171673159500845,0.49171673159500845
0.4390200199503267,0.4390200199503267
0.30691730445749443,0.30691730445749443
0.1271709866557718,0.1271709866557718
-0.0634034225797895,-0.0634034225797895
-0.2727465236340046,-0.2727465236340046
-0.4330022768548175,-0.4330022768548175
-0.5145738989897358,-0.5145738989897358
-0.5254019904235745,-0.5254019904235745
-0.5333425908083895,-0.5333425908083895
-0.5254019904235745,-0.5254019904235745
-0.5254019904235745,-0.5254019904235745
-0.5254019904235745,-0.5254019904235745
-0.5744893382569767,-0.5744893382569767
-0.6178017039923315,-0.6178017039923315
-0.6351266502864734,-0.6351266502864734
-0.6178017039923315,-0.6178017039923315
-0.6170798312300756,-0.6170798312300756
-0.6178017039923315,-0.6178017039923315
-0.6235766860903789,-0.6235766860903789
-0.6178017039923315,-0.6178017039923315
-0.6228548133281229,-0.6228548133281229
-0.6178017039923315,-0.6178017039923315
-0.6856577436443875,-0.6856577436443875
-0.8957227174608584,-0.8957227174608584
-1.228506060860835,-1.228506060860835
-1.4501209988734005,-1.4501209988734005
-1.326680756527639,-1.326680756527639
-0.6178017039923315,-0.6178017039923315
0.8208907111837053,0.8208907111837053
2.8031533163384452,2.8031533163384452
4.3992139936862715,4.3992139936862715
4.467791906100583,4.467791906100583
2.7352972766863894,2.7352972766863894
0.30691730445749443,0.30691730445749443
-1.4161929790473724,-1.4161929790473724
-1.9128414394794413,-1.9128414394794413
-1.6724578096482219,-1.6724578096482219
-1.2653215717358866,-1.2653215717358866
-0.9188226458530477,-0.9188226458530477
-0.6178017039923315,-0.6178017039923315
-0.42073043989646697,-0.42073043989646697
-0.34060256328606053,-0.34060256328606053
-0.3492650364331315,-0.3492650364331315
-0.34060256328606053,-0.34060256328606053
-0.2785215057320519,-0.2785215057320519
-0.1558031361485465,-0.1558031361485465
-0.06773465915332498,-0.06773465915332498
-0.0634034225797895,-0.0634034225797895
-0.13053758946958952,-0.13053758946958952
-0.1558031361485465,-0.1558031361485465
-0.12404073460928629,-0.12404073460928629
-0.0634034225797895,-0.0634034225797895
-0.056906567719486274,-0.056906567719486274
-0.0634034225797895,-0.0634034225797895
-0.07495338677588413,-0.07495338677588413
-0.0634034225797895,-0.0634034225797895
-0.06917840467783681,-0.06917840467783681
-0.0634034225797895,-0.0634034225797895
-0.010706710935107772,-0.010706710935107772
0.12139600455772451,0.12139600455772451
0.22173631851129655,0.22173631851129655
0.21379571812648152,0.21379571812648152
0.12283975008223633,0.12283975008223633
0.12139600455772451,0.12139600455772451
0.2188488274622729,0.2188488274622729
0.30691730445749443,0.30691730445749443
0.29320172197463207,0.29320172197463207
0.30691730445749443,0.30691730445749443
0.39570765421497184,0.39570765421497184
0.49171673159500845,0.49171673159500845
0.5090416778891503,0.5090416778891503
0.5841164451637655,0.5841164451637655
0.7681939995390236,0.7681939995390236
0.9537152994387934,0.9537152994387934
1.0028026472721956,1.0028026472721956
1.0461150130075505,1.0461150130075505
1.2013176568925719,1.2013176568925719
1.4164357400448344,1.4164357400448344
1.5333791275302924,1.5333791275302924
1.6012351671823484,1.6012351671823484
1.6871380258908022,1.6871380258908022
1.7860345943198623,1.7860345943198623
1.82357197795717,1.82357197795717
1.8784343078886194,1.8784343078886194
1.982383985653471,1.982383985653471
2.063233735026133,2.063233735026133
2.001152677472125,2.001152677472125
1.8784343078886194,1.8784343078886194
1.8004720495649806,1.8004720495649806
1.7860345943198623,1.7860345943198623
1.721787918479086,1.721787918479086
1.6012351671823484,1.6012351671823484
1.4539731236821418,1.4539731236821418
1.3240360264760773,1.3240360264760773
1.1558396728704494,1.1558396728704494
0.9537152994387934,0.9537152994387934
0.7378753435242751,0.7378753435242751
0.5841164451637655,0.5841164451637655
0.47872302187440197,0.47872302187440197
0.3993170180262514,0.3993170180262514
0.2758767756804901,0.2758767756804901
0.12139600455772451,0.12139600455772451
-0.07206589572686047,-0.07206589572686047
-0.2482028497173035,-0.2482028497173035
-0.36225874615373793,-0.36225874615373793
-0.34060256328606053,-0.34060256328606053
-0.26552779601144544,-0.26552779601144544
-0.2482028497173035,-0.2482028497173035
-0.34854316367087557,-0.34854316367087557
-0.4330022768548175,-0.4330022768548175
-0.4467178593376799,-0.4467178593376799
-0.4330022768548175,-0.4330022768548175
-0.48497711573724334,-0.48497711573724334
-0.5254019904235745,-0.5254019904235745
-0.5268457359480864,-0.5268457359480864
-0.5254019904235745,-0.5254019904235745
-0.5896486662643509,-0.5896486662643509
-0.6178017039923315,-0.6178017039923315
-0.5759330837814886,-0.5759330837814886
-0.5254019904235745,-0.5254019904235745
-0.5701581016834412,-0.5701581016834412
-0.6178017039923315,-0.6178017039923315
-0.5954236483623981,-0.5954236483623981
-0.5254019904235745,-0.5254019904235745
-0.5181832628010153,-0.5181832628010153
-0.5254019904235745,-0.5254019904235745
-0.49652707993333794,-0.49652707993333794
-0.4330022768548175,-0.4330022768548175
-0.4221741854209788,-0.4221741854209788
-0.4330022768548175,-0.4330022768548175
-0.44094287723963255,-0.44094287723963255
-0.4330022768548175,-0.4330022768548175
-0.4496053503867035,-0.4496053503867035
-0.4330022768548175,-0.4330022768548175
-0.36298061891599387,-0.36298061891599387
-0.2482028497173035,-0.2482028497173035
-0.15363751786177876,-0.15363751786177876
-0.0634034225797895,-0.0634034225797895
0.003008871547754595,0.003008871547754595
0.028996290988967503,0.028996290988967503
0.008061980883545993,0.008061980883545993
0.028996290988967503,0.028996290988967503
0.08818985749395246,0.08818985749395246
0.12139600455772451,0.12139600455772451
0.09396483959199976,0.09396483959199976
0.12139600455772451,0.12139600455772451
0.2231800640358084,0.2231800640358084
0.30691730445749443,0.30691730445749443
0.2960892130236557,0.2960892130236557
0.30691730445749443,0.30691730445749443
0.35456090676638474,0.35456090676638474
0.30691730445749443,0.30691730445749443
0.0492087283321331,0.0492087283321331
-0.2482028497173035,-0.2482028497173035
-0.428671040281282,-0.428671040281282
-0.5254019904235745,-0.5254019904235745
-0.6704984156370133,-0.6704984156370133
-0.8033230038921014,-0.8033230038921014
-0.8415822602916648,-0.8415822602916648
-0.8033230038921014,-0.8033230038921014
-0.8076542404656369,-0.8076542404656369
-0.8033230038921014,-0.8033230038921014
-0.7614543836812584,-0.7614543836812584
-0.7109232903233444,-0.7109232903233444
-0.7448513101493724,-0.7448513101493724
-0.8033230038921014,-0.8033230038921014
-0.7968261490317982,-0.7968261490317982
-0.7109232903233444,-0.7109232903233444
-0.6697765428747573,-0.6697765428747573
-0.7109232903233444,-0.7109232903233444
-0.7600106381567466,-0.7600106381567466
-0.7109232903233444,-0.7109232903233444
-0.6914327257424348,-0.6914327257424348
-0.8957227174608584,-0.8957227174608584
-1.3252370110031273,-1.3252370110031273
-1.6356422987731705,-1.6356422987731705
-1.4948771101332672,-1.4948771101332672
-0.7109232903233444,-0.7109232903233444
0.7616971446787203,0.7616971446787203
2.7107536027696884,2.7107536027696884
4.254839441235089,4.254839441235089
4.282992478963069,4.282992478963069
2.531007284967966,2.531007284967966
0.12139600455772451,0.12139600455772451
-1.5454082034911811,-1.5454082034911811
-2.0052411530481984,-2.0052411530481984
-1.7908449426581918,-1.7908449426581918
-1.4501209988734005,-1.4501209988734005
-1.160650021208779,-1.160650021208779
-0.8957227174608584,-0.8957227174608584
-0.71525452689688,-0.71525452689688
-0.6178017039923315,-0.6178017039923315
-0.570879974445697,-0.570879974445697
-0.5254019904235745,-0.5254019904235745
-0.5160176445142476,-0.5160176445142476
-0.5254019904235745,-0.5254019904235745
-0.5434488094799723,-0.5434488094799723
-0.5254019904235745,-0.5254019904235745
-0.487864606786267,-0.487864606786267
-0.4330022768548175,-0.4330022768548175
-0.42000856713421103,-0.42000856713421103
-0.4330022768548175,-0.4330022768548175
-0.46259906010731,-0.46259906010731
-0.4330022768548175,-0.4330022768548175
-0.38463680178367127,-0.38463680178367127
-0.34060256328606053,-0.34060256328606053
-0.34204630881057235,-0.34204630881057235
-0.34060256328606053,-0.34060256328606053
-0.3146151438448476,-0.3146151438448476
-0.2482028497173035,-0.2482028497173035
-0.1969498835971336,-0.1969498835971336
-0.1558031361485465,-0.1558031361485465
-0.12548448013379812,-0.12548448013379812
-0.0634034225797895,-0.0634034225797895
-0.009984838172851859,-0.009984838172851859
0.028996290988967503,0.028996290988967503
0.04993060109438901,0.04993060109438901
0.12139600455772451,0.12139600455772451
0.2188488274622729,0.2188488274622729
0.30691730445749443,0.30691730445749443
0.3422890698080342,0.3422890698080342
0.3993170180262514,0.3993170180262514
0.4852198767347052,0.4852198767347052
0.5841164451637655,0.5841164451637655
0.6563037213893569,0.6563037213893569
0.7689158723012794,0.7689158723012794
0.9140122975147181,0.9140122975147181
1.0461150130075505,1.0461150130075505
1.1183022892331418,1.1183022892331418
1.2316363129073205,1.2316363129073205
1.4171576128070902,1.4171576128070902
1.6012351671823484,1.6012351671823484
1.6445475329177033,1.6445475329177033
1.6012351671823484,1.6012351671823484
1.5932945667975333,1.5932945667975333
1.6936348807511055,1.6936348807511055
1.7860345943198623,1.7860345943198623
1.7860345943198623,1.7860345943198623
1.6900255169398257,1.6900255169398257
1.6012351671823484,1.6012351671823484
1.5225510360964538,1.5225510360964538
1.4164357400448344,1.4164357400448344
1.2323581856695762,1.2323581856695762
1.0461150130075505,1.0461150130075505
0.8945217329338084,0.8945217329338084
0.7689158723012794,0.7689158723012794
0.5920570455485805,0.5920570455485805
0.3993170180262514,0.3993170180262514
0.23112066442062346,0.23112066442062346
0.12139600455772451,0.12139600455772451
-0.004209856074804546,-0.004209856074804546
-0.1558031361485465,-0.1558031361485465
-0.3232776169919186,-0.3232776169919186
-0.4330022768548175,-0.4330022768548175
-0.49797082545784976,-0.49797082545784976
-0.5254019904235745,-0.5254019904235745
-0.5737674654947208,-0.5737674654947208
-0.6178017039923315,-0.6178017039923315
-0.6459547417203122,-0.6459547417203122
-0.6178017039923315,-0.6178017039923315
-0.5975892666491659,-0.5975892666491659
-0.6178017039923315,-0.6178017039923315
-0.6878233619311552,-0.6878233619311552
-0.7109232903233444,-0.7109232903233444
-0.6762733977350606,-0.6762733977350606
-0.6178017039923315,-0.6178017039923315
-0.6113048491320283,-0.6113048491320283
-0.6178017039923315,-0.6178017039923315
-0.6250204316148906,-0.6250204316148906
-0.6178017039923315,-0.6178017039923315
-0.6322391592374498,-0.6322391592374498
-0.6178017039923315,-0.6178017039923315
-0.5766549565437444,-0.5766549565437444
-0.5254019904235745,-0.5254019904235745
-0.5232363721368067,-0.5232363721368067
-0.5254019904235745,-0.5254019904235745
-0.5261238631858304,-0.5261238631858304
-0.5254019904235745,-0.5254019904235745
-0.5477800460535078,-0.5477800460535078
-0.5254019904235745,-0.5254019904235745
-0.47053966049212503,-0.47053966049212503
-0.4330022768548175,-0.4330022768548175
-0.45393658696023903,-0.45393658696023903
-0.4330022768548175,-0.4330022768548175
-0.34709941814636375,-0.34709941814636375
-0.2482028497173035,-0.2482028497173035
-0.18323430111427125,-0.18323430111427125
-0.0634034225797895,-0.0634034225797895
0.08241487539590514,0.08241487539590514
0.12139600455772451,0.12139600455772451
0.0037307443100105093,0.0037307443100105093
-0.0634034225797895,-0.0634034225797895
0.020333817841896532,0.020333817841896532
0.12139600455772451,0.12139600455772451
0.07808363882236966,0.07808363882236966
0.028996290988967503,0.028996290988967503
0.1264491138935159,0.1264491138935159
0.30691730445749443,0.30691730445749443
0.36394525267571165,0.36394525267571165
0.30691730445749443,0.30691730445749443
0.2188488274622729,0.2188488274622729
0.12139600455772451,0.12139600455772451
-0.05474094943271853,-0.05474094943271853
-0.2482028497173035,-0.2482028497173035
-0.40412736636458096,-0.40412736636458096
-0.5254019904235745,-0.5254019904235745
-0.6517297238183595,-0.6517297238183595
-0.7109232903233444,-0.7109232903233444
-0.7080357992743208,-0.7080357992743208
-0.7109232903233444,-0.7109232903233444
-0.7859980575979595,-0.7859980575979595
-0.8033230038921014,-0.8033230038921014
-0.7412419463380928,-0.7412419463380928
-0.7109232903233444,-0.7109232903233444
-0.8090979859901487,-0.8090979859901487
-0.8957227174608584,-0.8957227174608584
-0.8726227890686692,-0.8726227890686692
-0.8033230038921014,-0.8033230038921014
-0.781666821024424,-0.781666821024424
-0.7109232903233444,-0.7109232903233444
-0.5990330121736778,-0.5990330121736778
-0.6178017039923315,-0.6178017039923315
-0.9000539540343939,-0.9000539540343939
-1.2653215717358866,-1.2653215717358866
-1.5309707482460628,-1.5309707482460628
-1.5425207124421574,-1.5425207124421574
-0.99967239522571,-0.99967239522571
0.49171673159500845,0.49171673159500845
2.614022652627396,2.614022652627396
4.190592765394312,4.190592765394312
4.100358670112323,4.100358670112323
2.4335544620634173,2.4335544620634173
0.25782995662409225,0.25782995662409225
-1.3577212853046434,-1.3577212853046434
-2.058659737455136,-2.058659737455136
-2.0052411530481984,-2.0052411530481984
-1.596661169611351,-1.596661169611351
-1.1729218581671295,-1.1729218581671295
-0.9296507372868864,-0.9296507372868864
-0.8033230038921014,-0.8033230038921014
-0.6856577436443875,-0.6856577436443875
-0.5254019904235745,-0.5254019904235745
-0.4019617480778132,-0.4019617480778132
-0.34060256328606053,-0.34060256328606053
-0.34060256328606053,-0.34060256328606053
-0.34060256328606053,-0.34060256328606053
-0.34204630881057235,-0.34204630881057235
-0.34060256328606053,-0.34060256328606053
-0.3564837640556906,-0.3564837640556906
-0.34060256328606053,-0.34060256328606053
-0.3037870524110089,-0.3037870524110089
-0.2482028497173035,-0.2482028497173035
-0.24170599485700028,-0.24170599485700028
-0.2482028497173035,-0.2482028497173035
-0.26119655943791,-0.26119655943791
-0.2482028497173035,-0.2482028497173035
-0.22149355751383468,-0.22149355751383468
-0.1558031361485465,-0.1558031361485465
-0.0944439513567938,-0.0944439513567938
-0.0634034225797895,-0.0634034225797895
-0.08072836887393144,-0.08072836887393144
-0.0634034225797895,-0.0634034225797895
-0.016481693033155085,-0.016481693033155085
0.028996290988967503,0.028996290988967503
0.044877491758597614,0.044877491758597614
0.12139600455772451,0.12139600455772451
0.23689564651867076,0.23689564651867076
0.30691730445749443,0.30691730445749443
0.2751549029182342,0.2751549029182342
0.30691730445749443,0.30691730445749443
0.495326095406288,0.495326095406288
0.7689158723012794,0.7689158723012794
0.923396643424045,0.923396643424045
0.9537152994387934,0.9537152994387934
0.9602121542990967,0.9602121542990967
1.0461150130075505,1.0461150130075505
1.1731646191645912,1.1731646191645912
1.3240360264760773,1.3240360264760773
1.4640793423537246,1.4640793423537246
1.6012351671823484,1.6012351671823484
1.7008536083736645,1.7008536083736645
1.7860345943198623,1.7860345943198623
1.8408969242513118,1.8408969242513118
1.8784343078886194,1.8784343078886194
1.8798780534131312,1.8798780534131312
1.8784343078886194,1.8784343078886194
1.8488375246361268,1.8488375246361268
1.7860345943198623,1.7860345943198623
1.6820849165550107,1.6820849165550107
1.6012351671823484,1.6012351671823484
1.5247166543832216,1.5247166543832216
1.4164357400448344,1.4164357400448344
1.2316363129073205,1.2316363129073205
1.0461150130075505,1.0461150130075505
0.8945217329338084,0.8945217329338084
0.7689158723012794,0.7689158723012794
0.5927789183108364,0.5927789183108364
0.3993170180262514,0.3993170180262514
0.22678942784708797,0.22678942784708797
0.12139600455772451,0.12139600455772451
0.02827441822671159,0.02827441822671159
-0.0634034225797895,-0.0634034225797895
-0.1716843369181766,-0.1716843369181766
-0.2482028497173035,-0.2482028497173035
-0.30811828898454435,-0.30811828898454435
-0.34060256328606053,-0.34060256328606053
-0.3875242928326949,-0.3875242928326949
-0.4330022768548175,-0.4330022768548175
-0.49291771612205837,-0.49291771612205837
-0.5254019904235745,-0.5254019904235745
-0.5427269367177164,-0.5427269367177164
-0.5254019904235745,-0.5254019904235745
-0.521792626612295,-0.521792626612295
-0.5254019904235745,-0.5254019904235745
-0.5448925550044842,-0.5448925550044842
-0.5254019904235745,-0.5254019904235745
-0.4842552429749874,-0.4842552429749874
-0.4330022768548175,-0.4330022768548175
-0.428671040281282,-0.428671040281282
-0.4330022768548175,-0.4330022768548175
-0.41495545779841964,-0.41495545779841964
-0.34060256328606053,-0.34060256328606053
-0.3001776885997293,-0.3001776885997293
-0.34060256328606053,-0.34060256328606053
-0.4330022768548175,-0.4330022768548175
-0.4330022768548175,-0.4330022768548175
-0.3384369449992928,-0.3384369449992928
-0.2482028497173035,-0.2482028497173035
-0.27563401468302823,-0.27563401468302823
-0.34060256328606053,-0.34060256328606053
-0.36803372825178526,-0.36803372825178526
-0.34060256328606053,-0.34060256328606053
-0.3146151438448476,-0.3146151438448476
-0.2482028497173035,-0.2482028497173035
-0.14786253576373146,-0.14786253576373146
-0.0634034225797895,-0.0634034225797895
-0.06051593153076584,-0.06051593153076584
-0.0634034225797895,-0.0634034225797895
-0.028753529991505624,-0.028753529991505624
0.028996290988967503,0.028996290988967503
0.05787120147920406,0.05787120147920406
0.12139600455772451,0.12139600455772451
0.2239019367980643,0.2239019367980643
0.30691730445749443,0.30691730445749443
0.3011423223594471,0.3011423223594471
0.30691730445749443,0.30691730445749443
0.38487956278113317,0.38487956278113317
0.49171673159500845,0.49171673159500845
0.4902729860704966,0.4902729860704966
0.3993170180262514,0.3993170180262514
0.28887048540109656,0.28887048540109656
0.21379571812648152,0.21379571812648152
0.10334918550132666,0.10334918550132666
-0.0634034225797895,-0.0634034225797895
-0.2676934142982132,-0.2676934142982132
-0.4330022768548175,-0.4330022768548175
-0.5535550281515552,-0.5535550281515552
-0.6178017039923315,-0.6178017039923315
-0.6510078510561036,-0.6510078510561036
-0.6178017039923315,-0.6178017039923315
-0.5694362289211853,-0.5694362289211853
-0.5254019904235745,-0.5254019904235745
-0.5521112826270433,-0.5521112826270433
-0.6178017039923315,-0.6178017039923315
-0.6654453063012219,-0.6654453063012219
-0.6178017039923315,-0.6178017039923315
-0.5448925550044842,-0.5448925550044842
-0.5254019904235745,-0.5254019904235745
-0.5593300102496025,-0.5593300102496025
-0.5254019904235745,-0.5254019904235745
-0.49003022507303473,-0.49003022507303473
-0.6178017039923315,-0.6178017039923315
-0.9491413018677961,-0.9491413018677961
-1.2653215717358866,-1.2653215717358866
-1.462392835831751,-1.462392835831751
-1.4501209988734005,-1.4501209988734005
-0.8639603159215982,-0.8639603159215982
0.7689158723012794,0.7689158723012794
3.0146620356794283,3.0146620356794283
4.467791906100583,4.467791906100583
4.0137339386416135,4.0137339386416135
2.063233735026133,2.063233735026133
-0.0684565319155809,-0.0684565319155809
-1.4501209988734005,-1.4501209988734005
-2.024731717629108,-2.024731717629108
-2.0052411530481984,-2.0052411530481984
-1.6118204976187251,-1.6118204976187251
-1.0805221445983724,-1.0805221445983724
-0.6986514533649939,-0.6986514533649939
-0.5254019904235745,-0.5254019904235745
-0.47559276982791643,-0.47559276982791643
-0.4330022768548175,-0.4330022768548175
-0.3961867659797659,-0.3961867659797659
-0.34060256328606053,-0.34060256328606053
-0.2893495971658906,-0.2893495971658906
-0.2482028497173035,-0.2482028497173035
-0.24964659524181534,-0.24964659524181534
-0.2482028497173035,-0.2482028497173035
-0.22438104856285834,-0.22438104856285834
-0.1558031361485465,-0.1558031361485465
-0.10094080621709703,-0.10094080621709703
-0.0634034225797895,-0.0634034225797895
-0.06990027744009272,-0.06990027744009272
-0.0634034225797895,-0.0634034225797895
-0.06051593153076584,-0.06051593153076584
-0.0634034225797895,-0.0634034225797895
-0.08578147820972283,-0.08578147820972283
-0.0634034225797895,-0.0634034225797895
0.011671344694825564,0.011671344694825564
0.12139600455772451,0.12139600455772451
0.18564268039850085,0.18564268039850085
0.21379571812648152,0.21379571812648152
0.20874260879069012,0.20874260879069012
0.21379571812648152,0.21379571812648152
0.23039879165836752,0.23039879165836752
0.30691730445749443,0.30691730445749443
0.4043701273620428,0.4043701273620428
0.49171673159500845,0.49171673159500845
0.5270884969455483,0.5270884969455483
0.5841164451637655,0.5841164451637655
0.6685755583477074,0.6685755583477074
0.7689158723012794,0.7689158723012794
0.8425468940513827,0.8425468940513827
0.9537152994387934,0.9537152994387934
1.0959242336032085,1.0959242336032085
1.2316363129073205,1.2316363129073205
1.3081548257064473,1.3081548257064473
1.4164357400448344,1.4164357400448344
1.5904070757485096,1.5904070757485096
1.7860345943198623,1.7860345943198623
1.874103071315084,1.874103071315084
1.8784343078886194,1.8784343078886194
1.8856530355111785,1.8856530355111785
1.9708340214573763,1.9708340214573763
2.0516837708300386,2.0516837708300386
2.063233735026133,2.063233735026133
2.0040401685211484,2.0040401685211484
1.9708340214573763,1.9708340214573763
1.949899711351955,1.949899711351955
1.8784343078886194,1.8784343078886194
1.6994098628491527,1.6994098628491527
1.5088354536135913,1.5088354536135913
1.3572421735398494,1.3572421735398494
1.2316363129073205,1.2316363129073205
1.04972437681883,1.04972437681883
0.8613155858700364,0.8613155858700364
0.7025035781737353,0.7025035781737353
0.5841164451637655,0.5841164451637655
0.4404637654748385,0.4404637654748385
0.30691730445749443,0.30691730445749443
0.19574889907008367,0.19574889907008367
0.12139600455772451,0.12139600455772451
0.02683067270219976,0.02683067270219976
-0.0634034225797895,-0.0634034225797895
-0.1608562454843379,-0.1608562454843379
-0.2482028497173035,-0.2482028497173035
-0.33266196290124544,-0.33266196290124544
-0.34060256328606053,-0.34060256328606053
-0.294402706501682,-0.294402706501682
-0.2482028497173035,-0.2482028497173035
-0.2842964878300992,-0.2842964878300992
-0.34060256328606053,-0.34060256328606053
-0.36803372825178526,-0.36803372825178526
-0.34060256328606053,-0.34060256328606053
-0.33266196290124544,-0.33266196290124544
-0.34060256328606053,-0.34060256328606053
-0.35720563681794654,-0.35720563681794654
-0.34060256328606053,-0.34060256328606053
-0.3355494539502691,-0.3355494539502691
-0.34060256328606053,-0.34060256328606053
-0.35864938234245836,-0.35864938234245836
-0.34060256328606053,-0.34060256328606053
-0.3268869808031981,-0.3268869808031981
-0.34060256328606053,-0.34060256328606053
-0.403405493602325,-0.403405493602325
-0.4330022768548175,-0.4330022768548175
-0.40629298465134867,-0.40629298465134867
-0.34060256328606053,-0.34060256328606053
-0.3254432352786863,-0.3254432352786863
-0.34060256328606053,-0.34060256328606053
-0.336271326712525,-0.336271326712525
-0.2482028497173035,-0.2482028497173035
-0.13920006261666049,-0.13920006261666049
-0.0634034225797895,-0.0634034225797895
-0.06051593153076584,-0.06051593153076584
-0.0634034225797895,-0.0634034225797895
-0.038859748663088424,-0.038859748663088424
0.028996290988967503,0.028996290988967503
0.08241487539590514,0.08241487539590514
0.12139600455772451,0.12139600455772451
0.1517146605724729,0.1517146605724729
0.21379571812648152,0.21379571812648152
0.27226741186921055,0.27226741186921055
0.30691730445749443,0.30691730445749443
0.29825483131042346,0.29825483131042346
0.30691730445749443,0.30691730445749443
0.3401234515212665,0.3401234515212665
0.3993170180262514,0.3993170180262514
0.44262938376160627,0.44262938376160627
0.49171673159500845,0.49171673159500845
0.5177041510362214,0.5177041510362214
0.49171673159500845,0.49171673159500845
0.34806405190608153,0.34806405190608153
0.12139600455772451,0.12139600455772451
-0.13631257156763682,-0.13631257156763682
-0.34060256328606053,-0.34060256328606053
-0.47631464259017237,-0.47631464259017237
-0.5254019904235745,-0.5254019904235745
-0.5347863363329014,-0.5347863363329014
-0.5254019904235745,-0.5254019904235745
-0.5665487378721616,-0.5665487378721616
-0.6178017039923315,-0.6178017039923315
-0.6567828331541509,-0.6567828331541509
-0.6178017039923315,-0.6178017039923315
-0.5535550281515552,-0.5535550281515552
-0.5254019904235745,-0.5254019904235745
-0.5744893382569767,-0.5744893382569767
-0.6178017039923315,-0.6178017039923315
-0.6286297954261703,-0.6286297954261703
-0.6178017039923315,-0.6178017039923315
-0.630073540950682,-0.630073540950682
-0.6178017039923315,-0.6178017039923315
-0.6416235051467767,-0.6416235051467767
-0.8033230038921014,-0.8033230038921014
-1.126000128620495,-1.126000128620495
-1.3577212853046434,-1.3577212853046434
-1.2111811145666929,-1.2111811145666929
-0.4330022768548175,-0.4330022768548175
1.0800430328335784,1.0800430328335784
3.0803524570447163,3.0803524570447163
4.5890665301595766,4.5890665301595766
4.467791906100583,4.467791906100583
2.536782267066013,2.536782267066013
0.028996290988967503,0.028996290988967503
-1.62337046181482,-1.62337046181482
-2.0052411530481984,-2.0052411530481984
-1.72226703024388,-1.72226703024388
-1.3577212853046434,-1.3577212853046434
-1.0711377986890456,-1.0711377986890456
-0.8033230038921014,-0.8033230038921014
-0.614192340181052,-0.614192340181052
-0.5254019904235745,-0.5254019904235745
-0.4950833344088261,-0.4950833344088261
-0.4330022768548175,-0.4330022768548175
-0.37164309206306484,-0.37164309206306484
-0.34060256328606053,-0.34060256328606053
-0.3550400185311788,-0.3550400185311788
-0.34060256328606053,-0.34060256328606053
-0.2951245792639379,-0.2951245792639379
-0.2482028497173035,-0.2482028497173035
-0.25542157733986265,-0.25542157733986265
-0.2482028497173035,-0.2482028497173035
-0.21355295712901962,-0.21355295712901962
-0.1558031361485465,-0.1558031361485465
-0.15435939062403467,-0.15435939062403467
-0.1558031361485465,-0.1558031361485465
-0.1247626073715422,-0.1247626073715422
-0.0634034225797895,-0.0634034225797895
-0.048244094572415304,-0.048244094572415304
-0.0634034225797895,-0.0634034225797895
-0.08289398716069918,-0.08289398716069918
-0.0634034225797895,-0.0634034225797895
-0.03380663932729702,-0.03380663932729702
0.028996290988967503,0.028996290988967503
0.1105679131238858,0.1105679131238858
0.21379571812648152,0.21379571812648152
0.2780423939672579,0.2780423939672579
0.30691730445749443,0.30691730445749443
0.29392359473688795,0.29392359473688795
0.30691730445749443,0.30691730445749443
0.3617796343889439,0.3617796343889439
0.49171673159500845,0.49171673159500845
0.6360912840461912,0.6360912840461912
0.7689158723012794,0.7689158723012794
0.8555406037719891,0.8555406037719891
0.9537152994387934,0.9537152994387934
1.074268050735531,1.074268050735531
1.2316363129073205,1.2316363129073205
1.3745671198339913,1.3745671198339913
1.5088354536135913,1.5088354536135913
1.6098976403294194,1.6098976403294194
1.6936348807511055,1.6936348807511055
1.74055661029774,1.74055661029774
1.7860345943198623,1.7860345943198623
1.8279032145307055,1.8279032145307055
1.8784343078886194,1.8784343078886194
1.8928717631337377,1.8928717631337377
1.8784343078886194,1.8784343078886194
1.830790705579729,1.830790705579729
1.7860345943198623,1.7860345943198623
1.712403572569759,1.712403572569759
1.6012351671823484,1.6012351671823484
1.4243763404296494,1.4243763404296494
1.2316363129073205,1.2316363129073205
1.0345650488114557,1.0345650488114557
0.8613155858700364,0.8613155858700364
0.6736286676834988,0.6736286676834988
0.49171673159500845,0.49171673159500845
0.3256859962761482,0.3256859962761482
0.21379571812648152,0.21379571812648152
0.09396483959199976,0.09396483959199976
-0.0634034225797895,-0.0634034225797895
-0.2474809769550476,-0.2474809769550476
-0.34060256328606053,-0.34060256328606053
-0.3492650364331315,-0.3492650364331315
-0.34060256328606053,-0.34060256328606053
-0.39474302045525406,-0.39474302045525406
-0.4330022768548175,-0.4330022768548175
-0.43516789514158527,-0.43516789514158527
-0.4330022768548175,-0.4330022768548175
-0.49291771612205837,-0.49291771612205837
-0.5254019904235745,-0.5254019904235745
-0.4921958433598025,-0.4921958433598025
-0.4330022768548175,-0.4330022768548175
-0.4611553145827982,-0.4611553145827982
-0.5254019904235745,-0.5254019904235745
-0.5578862647250906,-0.5578862647250906
-0.5254019904235745,-0.5254019904235745
-0.5138520262274799,-0.5138520262274799
-0.5254019904235745,-0.5254019904235745
-0.547058173291252,-0.547058173291252
-0.5254019904235745,-0.5254019904235745
-0.4871427340240111,-0.4871427340240111
-0.4330022768548175,-0.4330022768548175
-0.4135117122739078,-0.4135117122739078
-0.4330022768548175,-0.4330022768548175
-0.49652707993333794,-0.49652707993333794
-0.5254019904235745,-0.5254019904235745
-0.5015801892691294,-0.5015801892691294
-0.4330022768548175,-0.4330022768548175
-0.40918047570037236,-0.40918047570037236
-0.4330022768548175,-0.4330022768548175
-0.47053966049212503,-0.47053966049212503
-0.4330022768548175,-0.4330022768548175
-0.34204630881057235,-0.34204630881057235
-0.2482028497173035,-0.2482028497173035
-0.20561235674420458,-0.20561235674420458
-0.1558031361485465,-0.1558031361485465
-0.07495338677588413,-0.07495338677588413
0.028996290988967503,0.028996290988967503
0.08818985749395246,0.08818985749395246
0.12139600455772451,0.12139600455772451
0.1524365333347288,0.1524365333347288
0.21379571812648152,0.21379571812648152
0.26721430253341916,0.26721430253341916
0.30691730445749443,0.30691730445749443
0.3112485410310299,0.3112485410310299
0.30691730445749443,0.30691730445749443
0.2946454674991439,0.2946454674991439
0.30691730445749443,0.30691730445749443
0.2953673402613998,0.2953673402613998
0.21379571812648152,0.21379571812648152
0.01094947193256965,0.01094947193256965
-0.2482028497173035,-0.2482028497173035
-0.4835333702127315,-0.4835333702127315
-0.6178017039923315,-0.6178017039923315
-0.6806046343085961,-0.6806046343085961
-0.7109232903233444,-0.7109232903233444
-0.7628981292057703,-0.7628981292057703
-0.8033230038921014,-0.8033230038921014
-0.831476041620082,-0.831476041620082
-0.8033230038921014,-0.8033230038921014
-0.7578450198699789,-0.7578450198699789
-0.7109232903233444,-0.7109232903233444
-0.7253607455684628,-0.7253607455684628
-0.8033230038921014,-0.8033230038921014
-0.899332081272138,-0.899332081272138
-0.8957227174608584,-0.8957227174608584
-0.8004355128430778,-0.8004355128430778
-0.7109232903233444,-0.7109232903233444
-0.7296919821419982,-0.7296919821419982
-0.8033230038921014,-0.8033230038921014
-0.9339819738604219,-0.9339819738604219
-1.1729218581671295,-1.1729218581671295
-1.5013739649935705,-1.5013739649935705
-1.6356422987731705,-1.6356422987731705
-1.2876996273658199,-1.2876996273658199
-0.2482028497173035,-0.2482028497173035
1.520385417809686,1.520385417809686
3.635472611219514,3.635472611219514
4.917518636986018,4.917518636986018
4.190592765394312,4.190592765394312
1.6366069325328882,1.6366069325328882
-0.9881224310296154,-0.9881224310296154
-2.1727156338915705,-2.1727156338915705
-2.0052411530481984,-2.0052411530481984
-1.564176895309835,-1.564176895309835
-1.3577212853046434,-1.3577212853046434
-1.1866374406499918,-1.1866374406499918
-0.8957227174608584,-0.8957227174608584
-0.7109232903233444,-0.7109232903233444
-0.7109232903233444,-0.7109232903233444
-0.7282482366174864,-0.7282482366174864
-0.6178017039923315,-0.6178017039923315
-0.5102426624162003,-0.5102426624162003
-0.5254019904235745,-0.5254019904235745
-0.6495641055315917,-0.6495641055315917
-0.7109232903233444,-0.7109232903233444
-0.6257423043771466,-0.6257423043771466
-0.4330022768548175,-0.4330022768548175
-0.3182245076561272,-0.3182245076561272
-0.34060256328606053,-0.34060256328606053
-0.43372414961707345,-0.43372414961707345
-0.4330022768548175,-0.4330022768548175
-0.39835238426653363,-0.39835238426653363
-0.4330022768548175,-0.4330022768548175
-0.5362300818574133,-0.5362300818574133
-0.5254019904235745,-0.5254019904235745
-0.3774180741611121,-0.3774180741611121
-0.2482028497173035,-0.2482028497173035
-0.285740233354611,-0.285740233354611
-0.34060256328606053,-0.34060256328606053
-0.26047468667565404,-0.26047468667565404
-0.0634034225797895,-0.0634034225797895
0.06725554738853094,0.06725554738853094
0.12139600455772451,0.12139600455772451
0.15460215162149654,0.15460215162149654
0.21379571812648152,0.21379571812648152
0.25277684728830085,0.25277684728830085
0.30691730445749443,0.30691730445749443
0.36250150715119983,0.36250150715119983
0.3993170180262514,0.3993170180262514
0.4022045090752751,0.4022045090752751
0.49171673159500845,0.49171673159500845
0.6757942859702665,0.6757942859702665
0.8613155858700364,0.8613155858700364
0.949384062865258,0.949384062865258
1.0461150130075505,1.0461150130075505
1.217920730424458,1.217920730424458
1.4164357400448344,1.4164357400448344
1.5254385271454773,1.5254385271454773
1.6012351671823484,1.6012351671823484
1.6936348807511055,1.6936348807511055
1.7860345943198623,1.7860345943198623
1.8004720495649806,1.8004720495649806
1.7860345943198623,1.7860345943198623
1.7593253021163935,1.7593253021163935
1.6936348807511055,1.6936348807511055
1.547094710013155,1.547094710013155
1.4164357400448344,1.4164357400448344
1.3298110085741246,1.3298110085741246
1.2316363129073205,1.2316363129073205
1.042505649196271,1.042505649196271
0.8613155858700364,0.8613155858700364
0.7523127987693934,0.7523127987693934
0.6765161587325225,0.6765161587325225
0.5140947872249417,0.5140947872249417
0.30691730445749443,0.30691730445749443
0.1322240959915632,0.1322240959915632
0.028996290988967503,0.028996290988967503
-0.09516582411904972,-0.09516582411904972
-0.2482028497173035,-0.2482028497173035
-0.386802420070439,-0.386802420070439
-0.4330022768548175,-0.4330022768548175
-0.4582678235337745,-0.4582678235337745
-0.5254019904235745,-0.5254019904235745
-0.6510078510561036,-0.6510078510561036
-0.7109232903233444,-0.7109232903233444
-0.6820483798331078,-0.6820483798331078
-0.6178017039923315,-0.6178017039923315
-0.6156360857055637,-0.6156360857055637
-0.6178017039923315,-0.6178017039923315
-0.5874830479775831,-0.5874830479775831
-0.5254019904235745,-0.5254019904235745
-0.5145738989897358,-0.5145738989897358
-0.5254019904235745,-0.5254019904235745
-0.5369519546196692,-0.5369519546196692
-0.5254019904235745,-0.5254019904235745
-0.5347863363329014,-0.5347863363329014
-0.5254019904235745,-0.5254019904235745
-0.4907520978352906,-0.4907520978352906
-0.4330022768548175,-0.4330022768548175
-0.42000856713421103,-0.42000856713421103
-0.4330022768548175,-0.4330022768548175
-0.45032722314895945,-0.45032722314895945
-0.4330022768548175,-0.4330022768548175
-0.4272272947567702,-0.4272272947567702
-0.4330022768548175,-0.4330022768548175
-0.45032722314895945,-0.45032722314895945
-0.4330022768548175,-0.4330022768548175
-0.4185648216096992,-0.4185648216096992
-0.4330022768548175,-0.4330022768548175
-0.5001364437446175,-0.5001364437446175
-0.5254019904235745,-0.5254019904235745
-0.44238662276414437,-0.44238662276414437
-0.2482028497173035,-0.2482028497173035
-0.09372207859453789,-0.09372207859453789
-0.0634034225797895,-0.0634034225797895
-0.10671578831514435,-0.10671578831514435
-0.0634034225797895,-0.0634034225797895
0.05498371043018041,0.05498371043018041
0.12139600455772451,0.12139600455772451
0.06148056529048364,0.06148056529048364
0.028996290988967503,0.028996290988967503
0.1322240959915632,0.1322240959915632
0.30691730445749443,0.30691730445749443
0.36394525267571165,0.36394525267571165
0.30691730445749443,0.30691730445749443
0.25566433833732455,0.25566433833732455
0.30691730445749443,0.30691730445749443
0.35744839781540844,0.35744839781540844
0.30691730445749443,0.30691730445749443
0.1322240959915632,0.1322240959915632
-0.0634034225797895,-0.0634034225797895
-0.252534086290839,-0.252534086290839
-0.4330022768548175,-0.4330022768548175
-0.6105829763697723,-0.6105829763697723
-0.7109232903233444,-0.7109232903233444
-0.7289701093797423,-0.7289701093797423
-0.7109232903233444,-0.7109232903233444
-0.7542356560586992,-0.7542356560586992
-0.8033230038921014,-0.8033230038921014
-0.7997136400808219,-0.7997136400808219
-0.7109232903233444,-0.7109232903233444
-0.6618359424899423,-0.6618359424899423
-0.7109232903233444,-0.7109232903233444
-0.7780574572131445,-0.7780574572131445
-0.7109232903233444,-0.7109232903233444
-0.5983111394114219,-0.5983111394114219
-0.6178017039923315,-0.6178017039923315
-0.7506262922474197,-0.7506262922474197
-0.7109232903233444,-0.7109232903233444
-0.513130153465224,-0.513130153465224
-0.5254019904235745,-0.5254019904235745
-0.9707974847354734,-0.9707974847354734
-1.4501209988734005,-1.4501209988734005
-1.4436241440130972,-1.4436241440130972
-0.7109232903233444,-0.7109232903233444
0.7133316696075741,0.7133316696075741
2.6183538892009315,2.6183538892009315
4.185539656058521,4.185539656058521
4.282992478963069,4.282992478963069
2.5577165771714347,2.5577165771714347
0.12139600455772451,0.12139600455772451
-1.563455022547579,-1.563455022547579
-2.0052411530481984,-2.0052411530481984
-1.7756856146508178,-1.7756856146508178
-1.4501209988734005,-1.4501209988734005
-1.1786968402651767,-1.1786968402651767
-0.8957227174608584,-0.8957227174608584
-0.6647234335389659,-0.6647234335389659
-0.5254019904235745,-0.5254019904235745
-0.47198340601663685,-0.47198340601663685
-0.4330022768548175,-0.4330022768548175
-0.39835238426653363,-0.39835238426653363
-0.34060256328606053,-0.34060256328606053
-0.2893495971658906,-0.2893495971658906
-0.2482028497173035,-0.2482028497173035
-0.2424278676192562,-0.2424278676192562
-0.2482028497173035,-0.2482028497173035
-0.2936808337394261,-0.2936808337394261
-0.34060256328606053,-0.34060256328606053
-0.352874400244411,-0.352874400244411
-0.2482028497173035,-0.2482028497173035
-0.11898762527349488,-0.11898762527349488
-0.0634034225797895,-0.0634034225797895
-0.11826575251123897,-0.11826575251123897
-0.1558031361485465,-0.1558031361485465
-0.12259698908477445,-0.12259698908477445
-0.0634034225797895,-0.0634034225797895
-0.0684565319155809,-0.0684565319155809
-0.0634034225797895,-0.0634034225797895
0.004452617072266424,0.004452617072266424
0.12139600455772451,0.12139600455772451
0.1827551893494772,0.1827551893494772
0.21379571812648152,0.21379571812648152
0.24627999242799764,0.24627999242799764
0.30691730445749443,0.30691730445749443
0.34445468809480195,0.34445468809480195
0.3993170180262514,0.3993170180262514
0.47583553082537833,0.47583553082537833
0.5841164451637655,0.5841164451637655
0.6700193038722192,0.6700193038722192
0.7689158723012794,0.7689158723012794
0.890190496360273,0.890190496360273
1.0461150130075505,1.0461150130075505
1.1854364561229418,1.1854364561229418
1.3240360264760773,1.3240360264760773
1.4568606147311656,1.4568606147311656
1.6012351671823484,1.6012351671823484
1.7095160815207355,1.7095160815207355
1.7860345943198623,1.7860345943198623
1.8271813417684495,1.8271813417684495
1.8784343078886194,1.8784343078886194
1.9260779101975096,1.9260779101975096
1.9708340214573763,1.9708340214573763
1.9780527490799356,1.9780527490799356
1.9708340214573763,1.9708340214573763
1.9361841288690924,1.9361841288690924
1.8784343078886194,1.8784343078886194
1.7593253021163935,1.7593253021163935
1.6012351671823484,1.6012351671823484
1.4077732668977634,1.4077732668977634
1.2316363129073205,1.2316363129073205
1.0757117962600429,1.0757117962600429
0.9537152994387934,0.9537152994387934
0.7941814189802364,0.7941814189802364
0.5841164451637655,0.5841164451637655
0.3502296701928493,0.3502296701928493
0.21379571812648152,0.21379571812648152
0.1668739885798471,0.1668739885798471
0.12139600455772451,0.12139600455772451
-0.041747239712112076,-0.041747239712112076
-0.2482028497173035,-0.2482028497173035
-0.37525245587434436,-0.37525245587434436
-0.34060256328606053,-0.34060256328606053
-0.26191843220016586,-0.26191843220016586
-0.2482028497173035,-0.2482028497173035
-0.34349005433508417,-0.34349005433508417
-0.4330022768548175,-0.4330022768548175
-0.46476467839407776,-0.46476467839407776
-0.4330022768548175,-0.4330022768548175
-0.4236179309454906,-0.4236179309454906
-0.4330022768548175,-0.4330022768548175
-0.4532147141979831,-0.4532147141979831
-0.4330022768548175,-0.4330022768548175
-0.39546489321751,-0.39546489321751
-0.34060256328606053,-0.34060256328606053
-0.319668253180639,-0.319668253180639
-0.34060256328606053,-0.34060256328606053
-0.4301147858057939,-0.4301147858057939
-0.5254019904235745,-0.5254019904235745
-0.5737674654947208,-0.5737674654947208
-0.5254019904235745,-0.5254019904235745
-0.4589896962960304,-0.4589896962960304
-0.4330022768548175,-0.4330022768548175
-0.4575459507715186,-0.4575459507715186
-0.4330022768548175,-0.4330022768548175
-0.37164309206306484,-0.37164309206306484
-0.34060256328606053,-0.34060256328606053
-0.3969086387420218,-0.3969086387420218
-0.4330022768548175,-0.4330022768548175
-0.40123987531555727,-0.40123987531555727
-0.34060256328606053,-0.34060256328606053
-0.34276818157282823,-0.34276818157282823
-0.34060256328606053,-0.34060256328606053
-0.27563401468302823,-0.27563401468302823
-0.1558031361485465,-0.1558031361485465
-0.08578147820972283,-0.08578147820972283
-0.0634034225797895,-0.0634034225797895
-0.06556904086655724,-0.06556904086655724
-0.0634034225797895,-0.0634034225797895
-0.07928462334941962,-0.07928462334941962
-0.0634034225797895,-0.0634034225797895
0.0037307443100105093,0.0037307443100105093
0.12139600455772451,0.12139600455772451
0.2231800640358084,0.2231800640358084
0.30691730445749443,0.30691730445749443
0.35961401610217614,0.35961401610217614
0.3993170180262514,0.3993170180262514
0.402926381837531,0.402926381837531
0.3993170180262514,0.3993170180262514
0.3711639802982708,0.3711639802982708
0.30691730445749443,0.30691730445749443
0.150992787810217,0.150992787810217
-0.0634034225797895,-0.0634034225797895
-0.2835746150678433,-0.2835746150678433
-0.4330022768548175,-0.4330022768548175
-0.5355082090951573,-0.5355082090951573
-0.6178017039923315,-0.6178017039923315
-0.7000951988895057,-0.7000951988895057
-0.7109232903233444,-0.7109232903233444
-0.6726640339237809,-0.6726640339237809
-0.6178017039923315,-0.6178017039923315
-0.6206891950413552,-0.6206891950413552
-0.6178017039923315,-0.6178017039923315
-0.5788205748305122,-0.5788205748305122
-0.5254019904235745,-0.5254019904235745
-0.5499456643402756,-0.5499456643402756
-0.6178017039923315,-0.6178017039923315
-0.6611140697276864,-0.6611140697276864
-0.6178017039923315,-0.6178017039923315
-0.5492237915780197,-0.5492237915780197
-0.5254019904235745,-0.5254019904235745
-0.6935983440292025,-0.6935983440292025
-1.0805221445983724,-1.0805221445983724
-1.496320855657779,-1.496320855657779
-1.5425207124421574,-1.5425207124421574
-1.016997341519852,-1.016997341519852
0.12139600455772451,0.12139600455772451
1.85533437949643,1.85533437949643
3.912671751925785,3.912671751925785
5.21926145160899,5.21926145160899
4.56019161966934,4.56019161966934
2.0090932778569397,2.0090932778569397
-0.7109232903233444,-0.7109232903233444
-2.016791117244293,-2.016791117244293
-1.9128414394794413,-1.9128414394794413
-1.453008489922424,-1.453008489922424
-1.1729218581671295,-1.1729218581671295
-0.9296507372868864,-0.9296507372868864
-0.6178017039923315,-0.6178017039923315
-0.4741490243034046,-0.4741490243034046
-0.5254019904235745,-0.5254019904235745
-0.5347863363329014,-0.5347863363329014
-0.34060256328606053,-0.34060256328606053
-0.14714066300147555,-0.14714066300147555
-0.1558031361485465,-0.1558031361485465
-0.3348275811880132,-0.3348275811880132
-0.4330022768548175,-0.4330022768548175
-0.3644243644405057,-0.3644243644405057
-0.2482028497173035,-0.2482028497173035
-0.26552779601144544,-0.26552779601144544
-0.34060256328606053,-0.34060256328606053
-0.352874400244411,-0.352874400244411
-0.2482028497173035,-0.2482028497173035
-0.16735310034464113,-0.16735310034464113
-0.1558031361485465,-0.1558031361485465
-0.202002992932925,-0.202002992932925
-0.2482028497173035,-0.2482028497173035
-0.2842964878300992,-0.2842964878300992
-0.2482028497173035,-0.2482028497173035
-0.15869062719757016,-0.15869062719757016
-0.0634034225797895,-0.0634034225797895
-0.05113158562143896,-0.05113158562143896
-0.0634034225797895,-0.0634034225797895
-0.022978547893458313,-0.022978547893458313
0.12139600455772451,0.12139600455772451
0.25710808386183637,0.25710808386183637
0.30691730445749443,0.30691730445749443
0.2744330301559783,0.2744330301559783
0.30691730445749443,0.30691730445749443
0.42963567404099984,0.42963567404099984
0.5841164451637655,0.5841164451637655
0.6765161587325225,0.6765161587325225
0.7689158723012794,0.7689158723012794
0.8966873512205762,0.8966873512205762
1.0461150130075505,1.0461150130075505
1.1406803448630751,1.1406803448630751
1.2316363129073205,1.2316363129073205
1.35363280972857,1.35363280972857
1.5088354536135913,1.5088354536135913
1.6178382407142344,1.6178382407142344
1.6936348807511055,1.6936348807511055
1.7441659741090194,1.7441659741090194
1.7860345943198623,1.7860345943198623
1.7860345943198623,1.7860345943198623
1.7860345943198623,1.7860345943198623
1.7896439581311419,1.7896439581311419
1.7860345943198623,1.7860345943198623
1.7152910636187828,1.7152910636187828
1.6012351671823484,1.6012351671823484
1.461191851304701,1.461191851304701
