ECG,PPG
-0.5133713590534773,-0.5133713590534773
-0.6308065668824515,-0.6308065668824515
-0.6651583623698386,-0.6651583623698386
-0.6348009617065663,-0.6348009617065663
-0.5557119441890939,-0.5557119441890939
-0.4598464684103393,-0.4598464684103393
-0.3943383932948571,-0.3943383932948571
-0.3711709033149914,-0.3711709033149914
-0.32803143921455186,-0.32803143921455186
-0.21459062620969235,-0.21459062620969235
-0.062004743928508084,-0.062004743928508084
0.06501701147834164,0.06501701147834164
0.14570378692546004,0.14570378692546004
0.1968320406741291,0.1968320406741291
0.2247928044429325,0.2247928044429325
0.2423681416690375,0.2423681416690375
0.27671993715642457,0.27671993715642457
0.32944594883473954,0.32944594883473954
0.3598033494980118,0.3598033494980118
0.3478201650256675,0.3478201650256675
0.33903249641261496,0.33903249641261496
0.37498204982964795,0.37498204982964795
0.4245125456486711,0.4245125456486711
0.42371366668384813,0.42371366668384813
0.3637977443221266,0.3637977443221266
0.29988742713629024,0.29988742713629024
0.2775188161212475,0.2775188161212475
0.2887031216287689,0.2887031216287689
0.29189863748806066,0.29189863748806066
0.25435132614138184,0.25435132614138184
0.18165334034249297,0.18165334034249297
0.11215087040289595,0.11215087040289595
0.07859795388033188,0.07859795388033188
0.06901140630245642,0.06901140630245642
0.038654005639184155,0.038654005639184155
-0.03883725394864241,-0.03883725394864241
-0.13630048765704283,-0.13630048765704283
-0.2050040786318169,-0.2050040786318169
-0.22737268964685964,-0.22737268964685964
-0.22657381068203666,-0.22657381068203666
-0.23216596343579735,-0.23216596343579735
-0.26332224306389257,-0.26332224306389257
-0.31045610198844686,-0.31045610198844686
-0.34001462368689617,-0.34001462368689617
-0.3288303181793748,-0.3288303181793748
-0.30007067544574845,-0.30007067544574845
-0.30007067544574845,-0.30007067544574845
-0.33202583403866665,-0.33202583403866665
-0.3416123816165421,-0.3416123816165421
-0.308059465093978,-0.308059465093978
-0.2753054275362369,-0.2753054275362369
-0.28808749097340414,-0.28808749097340414
-0.3152493757773846,-0.3152493757773846
-0.31604825474220755,-0.31604825474220755
-0.29288076476234187,-0.29288076476234187
-0.28329421718446646,-0.28329421718446646
-0.28089758028999756,-0.28089758028999756
-0.2800987013251746,-0.2800987013251746
-0.2856908540789353,-0.2856908540789353
-0.2992717964809255,-0.2992717964809255
-0.27929982236035167,-0.27929982236035167
-0.23616035825991213,-0.23616035825991213
-0.22497605275239077,-0.22497605275239077
-0.2617244851342467,-0.2617244851342467
-0.256132332380486,-0.256132332380486
-0.14828367212938715,-0.14828367212938715
0.006698847046265984,0.006698847046265984
0.12573181280488618,0.12573181280488618
0.23118383616151614,0.23118383616151614
0.4029428135984513,0.4029428135984513
0.6857459671457772,0.6857459671457772
1.07320226508491,1.07320226508491
1.512585695737535,1.512585695737535
1.8672879561189266,1.8672879561189266
1.9895164377368386,1.9895164377368386
1.9280027574454712,1.9280027574454712
1.9567624001790975,1.9567624001790975
2.301079234017791,2.301079234017791
2.876272088690318,2.876272088690318
3.3691804099860803,3.3691804099860803
3.5409393874230157,3.5409393874230157
3.3659848941267887,3.3659848941267887
2.927400342438987,2.927400342438987
2.2970848391936762,2.2970848391936762
1.5541274019083287,1.5541274019083287
0.84871727596966,0.84871727596966
0.3406302543422609,0.3406302543422609
0.05303382700599733,0.05303382700599733
-0.13470272972739694,-0.13470272972739694
-0.31205385991809276,-0.31205385991809276
-0.44227113118423433,-0.44227113118423433
-0.47662292667162137,-0.47662292667162137
-0.46623750012892295,-0.46623750012892295
-0.4854105952846739,-0.4854105952846739
-0.5093769642293625,-0.5093769642293625
-0.49419826389772636,-0.49419826389772636
-0.46623750012892295,-0.46623750012892295
-0.48221507942538205,-0.48221507942538205
-0.5109747221590084,-0.5109747221590084
-0.5029859325107788,-0.5029859325107788
-0.4654386211641,-0.4654386211641
-0.4550531946214016,-0.4550531946214016
-0.46783525805856885,-0.46783525805856885
-0.4774218056364443,-0.4774218056364443
-0.47662292667162137,-0.47662292667162137
-0.48780723217914274,-0.48780723217914274
-0.49979041665148705,-0.49979041665148705
-0.4902038690736116,-0.4902038690736116
-0.4670363790937459,-0.4670363790937459
-0.46623750012892295,-0.46623750012892295
-0.4965949007921952,-0.4965949007921952
-0.5205612697368839,-0.5205612697368839
-0.50058929561631,-0.50058929561631
-0.4550531946214016,-0.4550531946214016
-0.4438688891138802,-0.4438688891138802
-0.483013958390205,-0.483013958390205
-0.5205612697368839,-0.5205612697368839
-0.5085780852645395,-0.5085780852645395
-0.4710307739178607,-0.4710307739178607
-0.45585207358622454,-0.45585207358622454
-0.4774218056364443,-0.4774218056364443
-0.5173657538775921,-0.5173657538775921
-0.5652984917669693,-0.5652984917669693
-0.6004491662191793,-0.6004491662191793
-0.5964547713950645,-0.5964547713950645
-0.5676951286614381,-0.5676951286614381
-0.5764827972744907,-0.5764827972744907
-0.6348009617065663,-0.6348009617065663
-0.6787393047718289,-0.6787393047718289
-0.6707505151235993,-0.6707505151235993
-0.6683538782291304,-0.6683538782291304
-0.7138899792240389,-0.7138899792240389
-0.7578283222893013,-0.7578283222893013
-0.7530350485003635,-0.7530350485003635
-0.7378563481687275,-0.7378563481687275
-0.7498395326410717,-0.7498395326410717
-0.7538339274651865,-0.7538339274651865
-0.7290686795556749,-0.7290686795556749
-0.7314653164501438,-0.7314653164501438
-0.780196933304344,-0.780196933304344
-0.7905823598470424,-0.7905823598470424
-0.7138899792240389,-0.7138899792240389
-0.6348009617065663,-0.6348009617065663
-0.6419908723899729,-0.6419908723899729
-0.6795381837366518,-0.6795381837366518
-0.6483819041085566,-0.6483819041085566
-0.5589074600483857,-0.5589074600483857
-0.49260050596808047,-0.49260050596808047
-0.4622431053048082,-0.4622431053048082
-0.4278913098174212,-0.4278913098174212
-0.37915969296322094,-0.37915969296322094
-0.3288303181793748,-0.3288303181793748
-0.256132332380486,-0.256132332380486
-0.13709936662186578,-0.13709936662186578
-0.0004910636371406046,-0.0004910636371406046
0.10815647557878118,0.10815647557878118
0.18964212999072252,0.18964212999072252
0.26074235785996547,0.26074235785996547
0.3142672485031034,0.3142672485031034
0.3342392226236772,0.3342392226236772
0.32944594883473954,0.32944594883473954
0.3198594012568641,0.3198594012568641
0.31346836953828044,0.31346836953828044
0.3198594012568641,0.3198594012568641
0.3542111967442511,0.3542111967442511
0.41652375600044156,0.41652375600044156
0.46525537285464175,0.46525537285464175
0.46205985699534996,0.46205985699534996
0.4189203928949104,0.4189203928949104
0.3877641132668152,0.3877641132668152
0.390959629126107,0.390959629126107
0.3893618711964611,0.3893618711964611
0.33743473848296907,0.33743473848296907
0.2583457209654966,0.2583457209654966
0.21999953065399477,0.21999953065399477
0.22798832030222432,0.22798832030222432
0.21121186204094228,0.21121186204094228
0.13132396555864687,0.13132396555864687
0.04424615839294484,0.04424615839294484
0.0035033311869741668,0.0035033311869741668
-0.020463037757714464,-0.020463037757714464
-0.07318904943602944,-0.07318904943602944
-0.13390385076257397,-0.13390385076257397
-0.168255646249961,-0.168255646249961
-0.1946186520891185,-0.1946186520891185
-0.2313670844709744,-0.2313670844709744
-0.24414914790814166,-0.24414914790814166
-0.22737268964685964,-0.22737268964685964
-0.23775811618955803,-0.23775811618955803
-0.30406507026986324,-0.30406507026986324
-0.3527966871240635,-0.3527966871240635
-0.3224392864607912,-0.3224392864607912
-0.26092560616942373,-0.26092560616942373
-0.2505401796267253,-0.2505401796267253
-0.28089758028999756,-0.28089758028999756
-0.29048412786787303,-0.29048412786787303
-0.26492000099353846,-0.26492000099353846
-0.25133905859154826,-0.25133905859154826
-0.26332224306389257,-0.26332224306389257
-0.2785009433955287,-0.2785009433955287
-0.2681155168528303,-0.2681155168528303
-0.2545345744508401,-0.2545345744508401
-0.2545345744508401,-0.2545345744508401
-0.25852896927495483,-0.25852896927495483
-0.23296484240062032,-0.23296484240062032
-0.21299286828004646,-0.21299286828004646
-0.24095363204884984,-0.24095363204884984
-0.2840930961492894,-0.2840930961492894
-0.22976932654132848,-0.22976932654132848
-0.07798232322496718,-0.07798232322496718
0.048240553217059605,0.048240553217059605
0.0953744121416139,0.0953744121416139
0.18884325102589958,0.18884325102589958
0.43010469840243176,0.43010469840243176
0.7544495581205513,0.7544495581205513
1.0811910547331396,1.0811910547331396
1.4207146147828953,1.4207146147828953
1.724288621415618,1.724288621415618
1.8321372816667167,1.8321372816667167
1.7546460220788902,1.7546460220788902
1.7945899703200379,1.7945899703200379
2.192431694801869,2.192431694801869
2.790792039454262,2.790792039454262
3.2453541704385227,3.2453541704385227
3.4083254792624054,3.4083254792624054
3.3284375827801096,3.3284375827801096
3.0088859968509283,3.0088859968509283
2.416117804952296,2.416117804952296
1.6491939987222601,1.6491939987222601
0.9405883569242997,0.9405883569242997
0.45327218838229744,0.45327218838229744
0.1832510982721389,0.1832510982721389
0.021078668413079163,0.021078668413079163
-0.13949600351633465,-0.13949600351633465
-0.33042807610902075,-0.33042807610902075
-0.49260050596808047,-0.49260050596808047
-0.5397343648926347,-0.5397343648926347
-0.4902038690736116,-0.4902038690736116
-0.4462655260083491,-0.4462655260083491
-0.47182965288268364,-0.47182965288268364
-0.5125724800886543,-0.5125724800886543
-0.5149691169831232,-0.5149691169831232
-0.4965949007921952,-0.4965949007921952
-0.5029859325107788,-0.5029859325107788
-0.5165668749127691,-0.5165668749127691
-0.5149691169831232,-0.5149691169831232
-0.5053825694052477,-0.5053825694052477
-0.5125724800886543,-0.5125724800886543
-0.5053825694052477,-0.5053825694052477
-0.47422628977715253,-0.47422628977715253
-0.4574498315158705,-0.4574498315158705
-0.4886061111439657,-0.4886061111439657
-0.5261534224906446,-0.5261534224906446
-0.5173657538775921,-0.5173657538775921
-0.4790195635660902,-0.4790195635660902
-0.4622431053048082,-0.4622431053048082
-0.47662292667162137,-0.47662292667162137
-0.4949971428625493,-0.4949971428625493
-0.5101758431941854,-0.5101758431941854
-0.5285500593851133,-0.5285500593851133
-0.5437287597167495,-0.5437287597167495
-0.5389354859278118,-0.5389354859278118
-0.5277511804202905,-0.5277511804202905
-0.534941091103697,-0.534941091103697
-0.5613040969428545,-0.5613040969428545
-0.5788794341689595,-0.5788794341689595
-0.57089064452073,-0.57089064452073
-0.5613040969428545,-0.5613040969428545
-0.5868682238171891,-0.5868682238171891
-0.6371975986010352,-0.6371975986010352
-0.6691527571939534,-0.6691527571939534
-0.6611639675457238,-0.6611639675457238
-0.6491807830733795,-0.6491807830733795
-0.6715493940884222,-0.6715493940884222
-0.7186832530129765,-0.7186832530129765
-0.7578283222893013,-0.7578283222893013
-0.7809958122691669,-0.7809958122691669
-0.7905823598470424,-0.7905823598470424
-0.780196933304344,-0.780196933304344
-0.7658171119375309,-0.7658171119375309
-0.7833924491636358,-0.7833924491636358
-0.8217386394751376,-0.8217386394751376
-0.8201408815454916,-0.8201408815454916
-0.762621596078239,-0.762621596078239
-0.7178843740481535,-0.7178843740481535
-0.7354597112742586,-0.7354597112742586
-0.763420475043062,-0.763420475043062
-0.7330630743797897,-0.7330630743797897
-0.6587673306512549,-0.6587673306512549
-0.6028458031136481,-0.6028458031136481
-0.5772816762393136,-0.5772816762393136
-0.5493209124705102,-0.5493209124705102
-0.5037848114756018,-0.5037848114756018
-0.44866216290281796,-0.44866216290281796
-0.38075745089286683,-0.38075745089286683
-0.291283006832696,-0.291283006832696
-0.19381977312429555,-0.19381977312429555
-0.11073636078270829,-0.11073636078270829
-0.032446222230058774,-0.032446222230058774
0.07140804319692529,0.07140804319692529
0.2008264354982439,0.2008264354982439
0.3046807009252279,0.3046807009252279
0.3366358595181461,0.3366358595181461
0.3198594012568641,0.3198594012568641
0.32385379608097886,0.32385379608097886
0.3677921391462413,0.3677921391462413
0.39894841877433657,0.39894841877433657
0.3933562660205759,0.3933562660205759
0.3997472977391595,0.3997472977391595
0.44448451976924497,0.44448451976924497
0.47564079939734016,0.47564079939734016
0.4468811566637138,0.4468811566637138
0.39894841877433657,0.39894841877433657
0.3821719605130545,0.3821719605130545
0.37418317086482494,0.37418317086482494
0.3422280122719068,0.3422280122719068
0.3142672485031034,0.3142672485031034
0.3126694905734575,0.3126694905734575
0.29030087955841477,0.29030087955841477
0.2056197092871816,0.2056197092871816
0.10575983868431232,0.10575983868431232
0.05942485872458097,0.05942485872458097
0.04983831114670552,0.04983831114670552
0.010693241870380756,0.010693241870380756
-0.06599913875262285,-0.06599913875262285
-0.1386971245515117,-0.1386971245515117
-0.1810377096871283,-0.1810377096871283
-0.19861304691323328,-0.19861304691323328
-0.20260744173734804,-0.20260744173734804
-0.20899847345593167,-0.20899847345593167
-0.238556995154381,-0.238556995154381
-0.2872886120085812,-0.2872886120085812
-0.31604825474220755,-0.31604825474220755
-0.30566282819950913,-0.30566282819950913
-0.28648973304375824,-0.28648973304375824
-0.2920818857975189,-0.2920818857975189
-0.3072605861291551,-0.3072605861291551
-0.3096572230236239,-0.3096572230236239
-0.2992717964809255,-0.2992717964809255
-0.2936796437271648,-0.2936796437271648
-0.28648973304375824,-0.28648973304375824
-0.2800987013251746,-0.2800987013251746
-0.28089758028999756,-0.28089758028999756
-0.30086955441057145,-0.30086955441057145
-0.31205385991809276,-0.31205385991809276
-0.29447852269198777,-0.29447852269198777
-0.25133905859154826,-0.25133905859154826
-0.23775811618955803,-0.23775811618955803
-0.2681155168528303,-0.2681155168528303
-0.30086955441057145,-0.30086955441057145
-0.2681155168528303,-0.2681155168528303
-0.19062425726500373,-0.19062425726500373
-0.12591506111434442,-0.12591506111434442
-0.05641259117474741,-0.05641259117474741
0.09856992800090573,0.09856992800090573
0.31346836953828044,0.31346836953828044
0.4684508887139336,0.4684508887139336
0.5635174855278652,0.5635174855278652
0.7816114429245317,0.7816114429245317
1.2106094470344582,1.2106094470344582
1.634814177355447,1.634814177355447
1.77621575412911,1.77621575412911
1.6643726990538963,1.6643726990538963
1.6244287508127486,1.6244287508127486
1.9056341464304285,1.9056341464304285
2.4432796897562765,2.4432796897562765
2.974534201363541,2.974534201363541
3.2900913924686077,3.2900913924686077
3.322046551061526,3.322046551061526
3.080785103684994,3.080785103684994
2.5814857506706477,2.5814857506706477
1.8832655354153858,1.8832655354153858
1.1490957667430908,1.1490957667430908
0.5970704020504293,0.5970704020504293
0.3286470698699166,0.3286470698699166
0.22958607823187024,0.22958607823187024
0.10176544386019755,0.10176544386019755
-0.1195240293957608,-0.1195240293957608
-0.3240370443904371,-0.3240370443904371
-0.4119137305209621,-0.4119137305209621
-0.41510924638025387,-0.41510924638025387
-0.42869018878224413,-0.42869018878224413
-0.46623750012892295,-0.46623750012892295
-0.4870083532143198,-0.4870083532143198
-0.47342741081232953,-0.47342741081232953
-0.45824871048069343,-0.45824871048069343
-0.45105879979728686,-0.45105879979728686
-0.45265655772693275,-0.45265655772693275
-0.4614442263399852,-0.4614442263399852
-0.483013958390205,-0.483013958390205
-0.48381283735502795,-0.48381283735502795
-0.4598464684103393,-0.4598464684103393
-0.4414722522194114,-0.4414722522194114
-0.4598464684103393,-0.4598464684103393
-0.4886061111439657,-0.4886061111439657
-0.48940499010878863,-0.48940499010878863
-0.4654386211641,-0.4654386211641
-0.4494610418676409,-0.4494610418676409
-0.4550531946214016,-0.4550531946214016
-0.46623750012892295,-0.46623750012892295
-0.4710307739178607,-0.4710307739178607
-0.4670363790937459,-0.4670363790937459
-0.4614442263399852,-0.4614442263399852
-0.4606453473751623,-0.4606453473751623
-0.47342741081232953,-0.47342741081232953
-0.49979041665148705,-0.49979041665148705
-0.5277511804202905,-0.5277511804202905
-0.5333433331740511,-0.5333433331740511
-0.5141702380183002,-0.5141702380183002
-0.49260050596808047,-0.49260050596808047
-0.5037848114756018,-0.5037848114756018
-0.5429298807519266,-0.5429298807519266
-0.5772816762393136,-0.5772816762393136
-0.5820749500282514,-0.5820749500282514
-0.5780805552041366,-0.5780805552041366
-0.5916614976061267,-0.5916614976061267
-0.622817777234222,-0.622817777234222
-0.6547729358271401,-0.6547729358271401
-0.6827336995959435,-0.6827336995959435
-0.6987112788924027,-0.6987112788924027
-0.6963146419979338,-0.6963146419979338
-0.6891247313145272,-0.6891247313145272
-0.7090967054351011,-0.7090967054351011
-0.7466440167817799,-0.7466440167817799
-0.7458451378169569,-0.7458451378169569
-0.693119126138642,-0.693119126138642
-0.6499796620382025,-0.6499796620382025
-0.6635606044401927,-0.6635606044401927
-0.6939180051034649,-0.6939180051034649
-0.6811359416662977,-0.6811359416662977
-0.6316054458472745,-0.6316054458472745
-0.5900637396764808,-0.5900637396764808
-0.5652984917669693,-0.5652984917669693
-0.5381366069629888,-0.5381366069629888
-0.5045836904404247,-0.5045836904404247
-0.46304198426963117,-0.46304198426963117
-0.39673503018932593,-0.39673503018932593
-0.30885834405880097,-0.30885834405880097
-0.24255138997849576,-0.24255138997849576
-0.21778614206898417,-0.21778614206898417
-0.1890264993353578,-0.1890264993353578
-0.10114981320483285,-0.10114981320483285
0.03465961081506939,0.03465961081506939
0.16088248725709617,0.16088248725709617
0.2463625364931523,0.2463625364931523
0.30627845885487387,0.30627845885487387
0.35900447053318885,0.35900447053318885
0.40054617670398246,0.40054617670398246
0.4213170297893793,0.4213170297893793
0.4205181508245563,0.4205181508245563
0.40933384531703493,0.40933384531703493
0.40054617670398246,0.40054617670398246
0.40454057152809725,0.40454057152809725
0.4348979721913695,0.4348979721913695
0.4884228628345074,0.4884228628345074
0.5267690531460092,0.5267690531460092
0.5036015631661436,0.5036015631661436
0.4380934880506613,0.4380934880506613
0.40054617670398246,0.40054617670398246
0.41412711910597266,0.41412711910597266
0.4213170297893793,0.4213170297893793
0.37098765500553316,0.37098765500553316
0.29908854817146724,0.29908854817146724
0.2551502051062048,0.2551502051062048
0.22639056237257843,0.22639056237257843
0.1744634296590864,0.1744634296590864
0.11374862833254186,0.11374862833254186
0.0642181325135187,0.0642181325135187
0.01149212083520371,0.01149212083520371
-0.05721147013957036,-0.05721147013957036
-0.10993748181788535,-0.10993748181788535
-0.12831169800881329,-0.12831169800881329
-0.1474847931645642,-0.1474847931645642
-0.19062425726500373,-0.19062425726500373
-0.21858502103380714,-0.21858502103380714
-0.20740071552628578,-0.20740071552628578
-0.19941192587805623,-0.19941192587805623
-0.23376372136544327,-0.23376372136544327
-0.2697132747824762,-0.2697132747824762
-0.26492000099353846,-0.26492000099353846
-0.24255138997849576,-0.24255138997849576
-0.24095363204884984,-0.24095363204884984
-0.23695923722473508,-0.23695923722473508
-0.20899847345593167,-0.20899847345593167
-0.18503210451124305,-0.18503210451124305
-0.203406320702171,-0.203406320702171
-0.22657381068203666,-0.22657381068203666
-0.2193838999986301,-0.2193838999986301
-0.20100968380770215,-0.20100968380770215
-0.22098165792827598,-0.22098165792827598
-0.26092560616942373,-0.26092560616942373
-0.27929982236035167,-0.27929982236035167
-0.2593278482397778,-0.2593278482397778
-0.2313670844709744,-0.2313670844709744
-0.20740071552628578,-0.20740071552628578
-0.203406320702171,-0.203406320702171
-0.2105962313855776,-0.2105962313855776
-0.19381977312429555,-0.19381977312429555
-0.0931610235566033,-0.0931610235566033
0.06821252733763347,0.06821252733763347
0.19044100895554547,0.19044100895554547
0.23437935202080795,0.23437935202080795
0.31187061160863455,0.31187061160863455
0.5731040331057405,0.5731040331057405
1.0148841006528344,1.0148841006528344
1.4622563209536887,1.4622563209536887
1.7139031948729195,1.7139031948729195
1.7162998317673883,1.7162998317673883
1.61404332427005,1.61404332427005
1.653188393546375,1.653188393546375
1.9903153167016616,1.9903153167016616
2.5543238658666674,2.5543238658666674
3.0927682881573384,3.0927682881573384
3.3659848941267887,3.3659848941267887
3.3028734559057753,3.3028734559057753
2.9681431696449576,2.9681431696449576
2.4424808107914537,2.4424808107914537
1.7874000596366313,1.7874000596366313
1.1035596657481823,1.1035596657481823
0.566713001387157,0.566713001387157
0.2982896692066443,0.2982896692066443
0.21600513582988,0.21600513582988
0.10575983868431232,0.10575983868431232
-0.12431730318469852,-0.12431730318469852
-0.3543944450537094,-0.3543944450537094
-0.45025992083246386,-0.45025992083246386
-0.4414722522194114,-0.4414722522194114
-0.4358800994656507,-0.4358800994656507
-0.44706440497317207,-0.44706440497317207
-0.4398744942897655,-0.4398744942897655
-0.42869018878224413,-0.42869018878224413
-0.4494610418676409,-0.4494610418676409
-0.4670363790937459,-0.4670363790937459
-0.4438688891138802,-0.4438688891138802
-0.40712045673202435,-0.40712045673202435
-0.41750588327472277,-0.41750588327472277
-0.44866216290281796,-0.44866216290281796
-0.4550531946214016,-0.4550531946214016
-0.43108682567671297,-0.43108682567671297
-0.4215002780988375,-0.4215002780988375
-0.43108682567671297,-0.43108682567671297
-0.43508122050082776,-0.43508122050082776
-0.4222991570636605,-0.4222991570636605
-0.4063215777672014,-0.4063215777672014
-0.39673503018932593,-0.39673503018932593
-0.39513727225968004,-0.39513727225968004
-0.40712045673202435,-0.40712045673202435
-0.43508122050082776,-0.43508122050082776
-0.46304198426963117,-0.46304198426963117
-0.4590475894455164,-0.4590475894455164
-0.41910364120436866,-0.41910364120436866
-0.38315408778733573,-0.38315408778733573
-0.3983327881189718,-0.3983327881189718
-0.44706440497317207,-0.44706440497317207
-0.4654386211641,-0.4654386211641
-0.42869018878224413,-0.42869018878224413
-0.39673503018932593,-0.39673503018932593
-0.4270924308525982,-0.4270924308525982
-0.4973937797570182,-0.4973937797570182
-0.5453265176463954,-0.5453265176463954
-0.553315307294625,-0.553315307294625
-0.5413321228222807,-0.5413321228222807
-0.5317455752444052,-0.5317455752444052
-0.5389354859278118,-0.5389354859278118
-0.5820749500282514,-0.5820749500282514
-0.6507785410030255,-0.6507785410030255
-0.6979123999275797,-0.6979123999275797
-0.6939180051034649,-0.6939180051034649
-0.6707505151235993,-0.6707505151235993
-0.6691527571939534,-0.6691527571939534
-0.6843314575255894,-0.6843314575255894
-0.6947168840682879,-0.6947168840682879
-0.7019067947516945,-0.7019067947516945
-0.6979123999275797,-0.6979123999275797
-0.6547729358271401,-0.6547729358271401
-0.5940581345005956,-0.5940581345005956
-0.5796783131337825,-0.5796783131337825
-0.6100357137970548,-0.6100357137970548
-0.5948570134654186,-0.5948570134654186
-0.5037848114756018,-0.5037848114756018
-0.42629355188777523,-0.42629355188777523
-0.4238969149933064,-0.4238969149933064
-0.4238969149933064,-0.4238969149933064
-0.3535955660888864,-0.3535955660888864
-0.2577300903101319,-0.2577300903101319
-0.20580295759663986,-0.20580295759663986
-0.15866909867208556,-0.15866909867208556
-0.048423801526517866,-0.048423801526517866
0.09777104903608277,0.09777104903608277
0.2128096199705882,0.2128096199705882
0.2950941533473525,0.2950941533473525
0.3661943812165954,0.3661943812165954
0.40214393463362835,0.40214393463362835
0.390959629126107,0.390959629126107
0.3877641132668152,0.3877641132668152
0.4333002142617236,0.4333002142617236
0.47963519422145495,0.47963519422145495
0.4724452835380483,0.4724452835380483
0.44768003562853675,0.44768003562853675
0.478836315256632,0.478836315256632
0.548338785196229,0.548338785196229
0.5675118803519799,0.5675118803519799
0.49321613662344516,0.49321613662344516
0.39175850809092994,0.39175850809092994
0.35101568088495927,0.35101568088495927
0.3821719605130545,0.3821719605130545
0.4149259980707956,0.4149259980707956
0.39175850809092994,0.39175850809092994
0.3246526750458018,0.3246526750458018
0.2535524471765589,0.2535524471765589
0.19283764585001434,0.19283764585001434
0.14011163417169936,0.14011163417169936
0.1025643228250205,0.1025643228250205
0.0730058011265712,0.0730058011265712
0.021078668413079163,0.021078668413079163
-0.063602501858154,-0.063602501858154
-0.13470272972739694,-0.13470272972739694
-0.14828367212938715,-0.14828367212938715
-0.12351842421987556,-0.12351842421987556
-0.11552963457164603,-0.11552963457164603
-0.14588703523491828,-0.14588703523491828
-0.2066018365614628,-0.2066018365614628
-0.273707669606591,-0.273707669606591
-0.30885834405880097,-0.30885834405880097
-0.2753054275362369,-0.2753054275362369
-0.21299286828004646,-0.21299286828004646
-0.203406320702171,-0.203406320702171
-0.25133905859154826,-0.25133905859154826
-0.26092560616942373,-0.26092560616942373
-0.19621641001876441,-0.19621641001876441
-0.14588703523491828,-0.14588703523491828
-0.19222201519464963,-0.19222201519464963
-0.26332224306389257,-0.26332224306389257
-0.2665177589231844,-0.2665177589231844
-0.21459062620969235,-0.21459062620969235
-0.18662986244088897,-0.18662986244088897
-0.1890264993353578,-0.1890264993353578
-0.1978141679484103,-0.1978141679484103
-0.203406320702171,-0.203406320702171
-0.2153895051745153,-0.2153895051745153
-0.1930208941594726,-0.1930208941594726
-0.13789824558668876,-0.13789824558668876
-0.09395990252142626,-0.09395990252142626
-0.07798232322496718,-0.07798232322496718
-0.010077611215016056,-0.010077611215016056
0.16967015587014866,0.16967015587014866
0.41013272428185793,0.41013272428185793
0.6162434972061801,0.6162434972061801
0.8095722066933351,0.8095722066933351
1.1187383660798185,1.1187383660798185
1.5669094653454958,1.5669094653454958
1.950371368460514,1.950371368460514
2.040644691485508,2.040644691485508
1.9168184519379499,1.9168184519379499
1.9335949101992318,1.9335949101992318
2.314660176419781,2.314660176419781
2.8970429417757146,2.8970429417757146
3.356398346548913,3.356398346548913
3.5289562029506714,3.5289562029506714
3.405928842367936,3.405928842367936
2.9729364434338956,2.9729364434338956
2.2587386488821743,2.2587386488821743
1.460658563024043,1.460658563024043
0.8359352125324927,0.8359352125324927
0.46525537285464175,0.46525537285464175
0.23597710995045387,0.23597710995045387
0.025073063237193934,0.025073063237193934
-0.18343434658159713,-0.18343434658159713
-0.3392157447220732,-0.3392157447220732
-0.4143103674154309,-0.4143103674154309
-0.43268458360635886,-0.43268458360635886
-0.44706440497317207,-0.44706440497317207
-0.4846117163198509,-0.4846117163198509
-0.5197623907720609,-0.5197623907720609
-0.5037848114756018,-0.5037848114756018
-0.4534554366917557,-0.4534554366917557
-0.42869018878224413,-0.42869018878224413
-0.45665095255104754,-0.45665095255104754
-0.4854105952846739,-0.4854105952846739
-0.4750251687419755,-0.4750251687419755
-0.4358800994656507,-0.4358800994656507
-0.42070139913401455,-0.42070139913401455
-0.4278913098174212,-0.4278913098174212
-0.4446677680787032,-0.4446677680787032
-0.4590475894455164,-0.4590475894455164
-0.46463974219927706,-0.46463974219927706
-0.4446677680787032,-0.4446677680787032
-0.4167070043098998,-0.4167070043098998
-0.4278913098174212,-0.4278913098174212
-0.4750251687419755,-0.4750251687419755
-0.49419826389772636,-0.49419826389772636
-0.4614442263399852,-0.4614442263399852
-0.44866216290281796,-0.44866216290281796
-0.49819265872184115,-0.49819265872184115
-0.5485220335056873,-0.5485220335056873
-0.5253545435258216,-0.5253545435258216
-0.4638408632344541,-0.4638408632344541
-0.4430700101490573,-0.4430700101490573
-0.47822068460126727,-0.47822068460126727
-0.518963511807238,-0.518963511807238
-0.5461253966112184,-0.5461253966112184
-0.5660973707317922,-0.5660973707317922
-0.5804771920986054,-0.5804771920986054
-0.5804771920986054,-0.5804771920986054
-0.5852704658875432,-0.5852704658875432
-0.6092368348322318,-0.6092368348322318
-0.6395942354955041,-0.6395942354955041
-0.6547729358271401,-0.6547729358271401
-0.6643594834050156,-0.6643594834050156
-0.6915213682089961,-0.6915213682089961
-0.7354597112742586,-0.7354597112742586
-0.7762025384802292,-0.7762025384802292
-0.797772270530449,-0.797772270530449
-0.7969733915656261,-0.7969733915656261
-0.7770014174450522,-0.7770014174450522
-0.7386552271335504,-0.7386552271335504
-0.6987112788924027,-0.6987112788924027
-0.6955157630331108,-0.6955157630331108
-0.7394541060983734,-0.7394541060983734
-0.7770014174450522,-0.7770014174450522
-0.7370574692039045,-0.7370574692039045
-0.640393114460327,-0.640393114460327
-0.5828738289930743,-0.5828738289930743
-0.6028458031136481,-0.6028458031136481
-0.6180245034452843,-0.6180245034452843
-0.5557119441890939,-0.5557119441890939
-0.4534554366917557,-0.4534554366917557
-0.3887462405410964,-0.3887462405410964
-0.3591877188426471,-0.3591877188426471
-0.32004264956632233,-0.32004264956632233
-0.2641211220287155,-0.2641211220287155
-0.20100968380770215,-0.20100968380770215
-0.10993748181788535,-0.10993748181788535
0.021877547377902117,0.021877547377902117
0.14410602899581412,0.14410602899581412
0.21201074100576525,0.21201074100576525
0.25115581028209,0.25115581028209
0.3086750957493427,0.3086750957493427
0.37258541293517905,0.37258541293517905
0.3973506608446906,0.3973506608446906
0.3757809287944709,0.3757809287944709
0.35101568088495927,0.35101568088495927
0.35660783363871995,0.35660783363871995
0.39655178187986767,0.39655178187986767
0.44768003562853675,0.44768003562853675
0.4804340731862779,0.4804340731862779
0.4732441625028713,0.4732441625028713
0.4388923670154843,0.4388923670154843
0.4133282401411497,0.4133282401411497
0.4133282401411497,0.4133282401411497
0.4157248770356186,0.4157248770356186
0.3837697184427004,0.3837697184427004
0.320658280221687,0.320658280221687
0.27192666336748683,0.27192666336748683
0.2671333895785491,0.2671333895785491
0.2703289054378409,0.2703289054378409
0.2231950465132866,0.2231950465132866
0.1321228445234698,0.1321228445234698
0.06901140630245642,0.06901140630245642
0.06022373768940392,0.06022373768940392
0.05063719011152847,0.05063719011152847
-0.003686579496432422,-0.003686579496432422
-0.0652002597877999,-0.0652002597877999
-0.0931610235566033,-0.0931610235566033
-0.10993748181788535,-0.10993748181788535
-0.14349039834044944,-0.14349039834044944
-0.1650601303906692,-0.1650601303906692
-0.15467470384797077,-0.15467470384797077
-0.15467470384797077,-0.15467470384797077
-0.185830983476066,-0.185830983476066
-0.19222201519464963,-0.19222201519464963
-0.14668591419974125,-0.14668591419974125
-0.10993748181788535,-0.10993748181788535
-0.14189264041080352,-0.14189264041080352
-0.18742874140571192,-0.18742874140571192
-0.17943995175748237,-0.17943995175748237
-0.1386971245515117,-0.1386971245515117
-0.13310497179775102,-0.13310497179775102
-0.14828367212938715,-0.14828367212938715
-0.15227806695350193,-0.15227806695350193
-0.14988143005903307,-0.14988143005903307
-0.16266349349620032,-0.16266349349620032
-0.16186461453137738,-0.16186461453137738
-0.13630048765704283,-0.13630048765704283
-0.11473075560682307,-0.11473075560682307
-0.1355016086922199,-0.1355016086922199
-0.15787021970726262,-0.15787021970726262
-0.13949600351633465,-0.13949600351633465
-0.07318904943602944,-0.07318904943602944
0.02427418427237098,0.02427418427237098
0.16088248725709617,0.16088248725709617
0.33264146469403133,0.33264146469403133
0.496411652482737,0.496411652482737
0.6282266816785245,0.6282266816785245
0.8007845380802826,0.8007845380802826
1.1339170664114546,1.1339170664114546
1.6100489294459355,1.6100489294459355
1.9935108325609534,1.9935108325609534
2.0670076973246654,2.0670076973246654
1.948773610530868,1.948773610530868
2.0158794435759964,2.0158794435759964
2.45765951112309,2.45765951112309
3.048031066127253,3.048031066127253
3.449068306468376,3.449068306468376
3.5617102405084125,3.5617102405084125
3.4338896061367397,3.4338896061367397
3.0400422764790234,3.0400422764790234
2.3498108508719913,2.3498108508719913
1.5285632750339941,1.5285632750339941
0.8495161549344828,0.8495161549344828
0.4293058194376088,0.4293058194376088
0.18005558241284708,0.18005558241284708
-0.01646864293359969,-0.01646864293359969
-0.19541753105394147,-0.19541753105394147
-0.33202583403866665,-0.33202583403866665
-0.3983327881189718,-0.3983327881189718
-0.38954511950591936,-0.38954511950591936
-0.34960117126477164,-0.34960117126477164
-0.3384168657572503,-0.3384168657572503
-0.3799585719280439,-0.3799585719280439
-0.4222991570636605,-0.4222991570636605
-0.4254946729229523,-0.4254946729229523
-0.395936151224503,-0.395936151224503
-0.378360813998398,-0.378360813998398
-0.3839529667521587,-0.3839529667521587
-0.3999305460486178,-0.3999305460486178
-0.3983327881189718,-0.3983327881189718
-0.38794736157627346,-0.38794736157627346
-0.37356754020946026,-0.37356754020946026
-0.3663776295260537,-0.3663776295260537
-0.3663776295260537,-0.3663776295260537
-0.38075745089286683,-0.38075745089286683
-0.4063215777672014,-0.4063215777672014
-0.4215002780988375,-0.4215002780988375
-0.40312606190790956,-0.40312606190790956
-0.36557875056123074,-0.36557875056123074
-0.3551933240185323,-0.3551933240185323
-0.3863496036466275,-0.3863496036466275
-0.42070139913401455,-0.42070139913401455
-0.4183047622395457,-0.4183047622395457
-0.395936151224503,-0.395936151224503
-0.39274063536521114,-0.39274063536521114
-0.41750588327472277,-0.41750588327472277
-0.4446677680787032,-0.4446677680787032
-0.4590475894455164,-0.4590475894455164
-0.45665095255104754,-0.45665095255104754
-0.4438688891138802,-0.4438688891138802
-0.4390756153249425,-0.4390756153249425
-0.47182965288268364,-0.47182965288268364
-0.5317455752444052,-0.5317455752444052
-0.5740861603800218,-0.5740861603800218
-0.5740861603800218,-0.5740861603800218
-0.5668962496966152,-0.5668962496966152
-0.5908626186413038,-0.5908626186413038
-0.6324043248120974,-0.6324043248120974
-0.6539740568623172,-0.6539740568623172
-0.6523762989326714,-0.6523762989326714
-0.6459852672140877,-0.6459852672140877
-0.6459852672140877,-0.6459852672140877
-0.6531751778974942,-0.6531751778974942
-0.6691527571939534,-0.6691527571939534
-0.6851303364904124,-0.6851303364904124
-0.6787393047718289,-0.6787393047718289
-0.6531751778974942,-0.6531751778974942
-0.6419908723899729,-0.6419908723899729
-0.6555718147919631,-0.6555718147919631
-0.6547729358271401,-0.6547729358271401
-0.6108345927618777,-0.6108345927618777
-0.5493209124705102,-0.5493209124705102
-0.5117736011238314,-0.5117736011238314
-0.4902038690736116,-0.4902038690736116
-0.4518576787621098,-0.4518576787621098
-0.3887462405410964,-0.3887462405410964
-0.32643368128490596,-0.32643368128490596
-0.28089758028999756,-0.28089758028999756
-0.24175251101367282,-0.24175251101367282
-0.1890264993353578,-0.1890264993353578
-0.11313299767717716,-0.11313299767717716
-0.007680974320547193,-0.007680974320547193
0.11934078108630254,0.11934078108630254
0.24476477856350637,0.24476477856350637
0.33583698055332317,0.33583698055332317
0.3813730815482316,0.3813730815482316
0.4029428135984513,0.4029428135984513
0.43409909322654655,0.43409909322654655
0.478836315256632,0.478836315256632
0.5028026842013206,0.5028026842013206
0.4844284680103927,0.4844284680103927
0.44927779355818265,0.44927779355818265
0.4524733094174745,0.4524733094174745
0.5099925948847271,0.5099925948847271
0.5778973068946783,0.5778973068946783
0.5938748861911374,0.5938748861911374
0.5427466324424683,0.5427466324424683
0.46765200974911064,0.46765200974911064
0.42690918254314,0.42690918254314
0.4364957301210154,0.4364957301210154
0.4524733094174745,0.4524733094174745
0.4229147877190252,0.4229147877190252
0.3478201650256675,0.3478201650256675
0.2751221792267786,0.2751221792267786
0.2391726258097457,0.2391726258097457
0.21999953065399477,0.21999953065399477
0.17765894551837821,0.17765894551837821
0.1025643228250205,0.1025643228250205
0.01708427358896439,0.01708427358896439
-0.05082043842098673,-0.05082043842098673
-0.08517223390837377,-0.08517223390837377
-0.08517223390837377,-0.08517223390837377
-0.08756887080284262,-0.08756887080284262
-0.1315072138681051,-0.1315072138681051
-0.2018085627725251,-0.2018085627725251
-0.23056820550615145,-0.23056820550615145
-0.19861304691323328,-0.19861304691323328
-0.1666578883203151,-0.1666578883203151
-0.19222201519464963,-0.19222201519464963
-0.23935587411920395,-0.23935587411920395
-0.24974130066190234,-0.24974130066190234
-0.2193838999986301,-0.2193838999986301
-0.19222201519464963,-0.19222201519464963
-0.1810377096871283,-0.1810377096871283
-0.19142313622982668,-0.19142313622982668
-0.22018277896345304,-0.22018277896345304
-0.25133905859154826,-0.25133905859154826
-0.23536147929508916,-0.23536147929508916
-0.185830983476066,-0.185830983476066
-0.16905452521478395,-0.16905452521478395
-0.20979735242075465,-0.20979735242075465
-0.22657381068203666,-0.22657381068203666
-0.18822762037053486,-0.18822762037053486
-0.15147918798867896,-0.15147918798867896
-0.1722500410740758,-0.1722500410740758
-0.18343434658159713,-0.18343434658159713
-0.12511618214952147,-0.12511618214952147
-0.032446222230058774,-0.032446222230058774
0.038654005639184155,0.038654005639184155
0.11854190212147958,0.11854190212147958
0.2631389947544343,0.2631389947544343
0.4644564938898188,0.4644564938898188
0.6977291516181214,0.6977291516181214
0.9933143686026147,0.9933143686026147
1.3639942082804655,1.3639942082804655
1.6939312207523456,1.6939312207523456
1.8177574602999036,1.8177574602999036
1.7434617165713688,1.7434617165713688
1.7290818952045555,1.7290818952045555
2.037449175626216,2.037449175626216
2.63341288338414,2.63341288338414
3.190231521865739,3.190231521865739
3.428297453382979,3.428297453382979
3.3284375827801096,3.3284375827801096
3.001696086167522,3.001696086167522
2.488815790751185,2.488815790751185
1.8137630654757888,1.8137630654757888
1.1227327609039333,1.1227327609039333
0.617841255135826,0.617841255135826
0.355808954673897,0.355808954673897
0.21760289375952593,0.21760289375952593
0.0658158904431646,0.0658158904431646
-0.12591506111434442,-0.12591506111434442
-0.3016684333753944,-0.3016684333753944
-0.4103159725913162,-0.4103159725913162
-0.44067337325458844,-0.44067337325458844
-0.4222991570636605,-0.4222991570636605
-0.39114287743556525,-0.39114287743556525
-0.37915969296322094,-0.37915969296322094
-0.39114287743556525,-0.39114287743556525
-0.4199025201691916,-0.4199025201691916
-0.4358800994656507,-0.4358800994656507
-0.42469579395812934,-0.42469579395812934
-0.3919417564003882,-0.3919417564003882
-0.37915969296322094,-0.37915969296322094
-0.3983327881189718,-0.3983327881189718
-0.43108682567671297,-0.43108682567671297
-0.43508122050082776,-0.43508122050082776
-0.4063215777672014,-0.4063215777672014
-0.38075745089286683,-0.38075745089286683
-0.3903439984707423,-0.3903439984707423
-0.42629355188777523,-0.42629355188777523
-0.45425431565657864,-0.45425431565657864
-0.45425431565657864,-0.45425431565657864
-0.4318857046415359,-0.4318857046415359
-0.4063215777672014,-0.4063215777672014
-0.39513727225968004,-0.39513727225968004
-0.41111485155613914,-0.41111485155613914
-0.4430700101490573,-0.4430700101490573
-0.46304198426963117,-0.46304198426963117
-0.45265655772693275,-0.45265655772693275
-0.43268458360635886,-0.43268458360635886
-0.43348346257118187,-0.43348346257118187
-0.46463974219927706,-0.46463974219927706
-0.5029859325107788,-0.5029859325107788
-0.5285500593851133,-0.5285500593851133
-0.5365388490333429,-0.5365388490333429
-0.5405332438574577,-0.5405332438574577
-0.5517175493649791,-0.5517175493649791
-0.570091765555907,-0.570091765555907
-0.589264860711658,-0.589264860711658
-0.60604131897294,-0.60604131897294
-0.6212200193045762,-0.6212200193045762
-0.64119199342515,-0.64119199342515
-0.6699516361587763,-0.6699516361587763
-0.7027056737165175,-0.7027056737165175
-0.7202810109426224,-0.7202810109426224
-0.7067000685406322,-0.7067000685406322
-0.6819348206311207,-0.6819348206311207
-0.6835325785607665,-0.6835325785607665
-0.7170854950833306,-0.7170854950833306
-0.7370574692039045,-0.7370574692039045
-0.7082978264702782,-0.7082978264702782
-0.6491807830733795,-0.6491807830733795
-0.6068401979377629,-0.6068401979377629
-0.5956558924302415,-0.5956558924302415
-0.5900637396764808,-0.5900637396764808
-0.5629018548725004,-0.5629018548725004
-0.5149691169831232,-0.5149691169831232
-0.4614442263399852,-0.4614442263399852
-0.41111485155613914,-0.41111485155613914
-0.36557875056123074,-0.36557875056123074
-0.31764601267185344,-0.31764601267185344
-0.2593278482397778,-0.2593278482397778
-0.1890264993353578,-0.1890264993353578
-0.10833972388823944,-0.10833972388823944
-0.02525631154665219,-0.02525631154665219
0.061022616654226876,0.061022616654226876
0.15369257657368957,0.15369257657368957
0.2567479630358507,0.2567479630358507
0.36060222846283474,0.36060222846283474
0.4412890039099531,0.4412890039099531
0.47404304146769427,0.47404304146769427
0.46205985699534996,0.46205985699534996
0.4468811566637138,0.4468811566637138
0.4660542518194647,0.4660542518194647
0.5036015631661436,0.5036015631661436
0.5091937159199043,0.5091937159199043
0.478037436291809,0.478037436291809
0.46205985699534996,0.46205985699534996
0.49321613662344516,0.49321613662344516
0.5291656900404781,0.5291656900404781
0.5163836266033108,0.5163836266033108
0.46525537285464175,0.46525537285464175
0.426110303578317,0.426110303578317
0.41971927185973334,0.41971927185973334
0.4157248770356186,0.4157248770356186
0.38696523430199226,0.38696523430199226
0.32944594883473954,0.32944594883473954
0.25435132614138184,0.25435132614138184
0.18245221930731592,0.18245221930731592
0.13691611831240755,0.13691611831240755
0.12093853901594845,0.12093853901594845
0.11055311247325005,0.11055311247325005
0.06262037458387279,0.06262037458387279
-0.026055190511475142,-0.026055190511475142
-0.10754084492341648,-0.10754084492341648
-0.1299094559384592,-0.1299094559384592
-0.10833972388823944,-0.10833972388823944
-0.10913860285306239,-0.10913860285306239
-0.16266349349620032,-0.16266349349620032
-0.22178053689309896,-0.22178053689309896
-0.2345626003302662,-0.2345626003302662
-0.21139511035040054,-0.21139511035040054
-0.1946186520891185,-0.1946186520891185
-0.1930208941594726,-0.1930208941594726
-0.19621641001876441,-0.19621641001876441
-0.19861304691323328,-0.19861304691323328
-0.19861304691323328,-0.19861304691323328
-0.1754455569333676,-0.1754455569333676
-0.13709936662186578,-0.13709936662186578
-0.12112178732540671,-0.12112178732540671
-0.1562724617776167,-0.1562724617776167
-0.19621641001876441,-0.19621641001876441
-0.19621641001876441,-0.19621641001876441
-0.16266349349620032,-0.16266349349620032
-0.14508815627009533,-0.14508815627009533
-0.14828367212938715,-0.14828367212938715
-0.16346237246102327,-0.16346237246102327
-0.16985340417960693,-0.16985340417960693
-0.16266349349620032,-0.16266349349620032
-0.12431730318469852,-0.12431730318469852
-0.06919465461191468,-0.06919465461191468
-0.01247424810948492,-0.01247424810948492
0.06661476940798755,0.06661476940798755
0.21360849893541115,0.21360849893541115
0.41412711910597266,0.41412711910597266
0.6058580706634817,0.6058580706634817
0.7903991115375841,0.7903991115375841
1.055626927858805,1.055626927858805
1.4167202199587805,1.4167202199587805
1.7155009528025653,1.7155009528025653
1.7866011806718083,1.7866011806718083
1.6915345838578768,1.6915345838578768
1.7083110421191587,1.7083110421191587
2.050231239063383,2.050231239063383
2.6342117623489627,2.6342117623489627
3.1670640318858734,3.1670640318858734
3.42590081648851,3.42590081648851
3.375571441704664,3.375571441704664
3.0584164926699517,3.0584164926699517
2.4952068224697688,2.4952068224697688
1.774617996199464,1.774617996199464
1.106755181607474,1.106755181607474
0.6729639037086099,0.6729639037086099
0.4572665832064122,0.4572665832064122
0.3022840640307591,0.3022840640307591
0.11135199143807299,0.11135199143807299
-0.09076438666213445,-0.09076438666213445
-0.2489424216970794,-0.2489424216970794
-0.34400901851101096,-0.34400901851101096
-0.3823552088225128,-0.3823552088225128
-0.3847518457169816,-0.3847518457169816
-0.3743664191742832,-0.3743664191742832
-0.37037202435016847,-0.37037202435016847
-0.3639809926315848,-0.3639809926315848
-0.3567910819481782,-0.3567910819481782
-0.36158435573711595,-0.36158435573711595
-0.3903439984707423,-0.3903439984707423
-0.4143103674154309,-0.4143103674154309
-0.413511488450608,-0.413511488450608
-0.38315408778733573,-0.38315408778733573
-0.3591877188426471,-0.3591877188426471
-0.3591877188426471,-0.3591877188426471
-0.3839529667521587,-0.3839529667521587
-0.4063215777672014,-0.4063215777672014
-0.4047238198375555,-0.4047238198375555
-0.37915969296322094,-0.37915969296322094
-0.3551933240185323,-0.3551933240185323
-0.3591877188426471,-0.3591877188426471
-0.38315408778733573,-0.38315408778733573
-0.39673503018932593,-0.39673503018932593
-0.3847518457169816,-0.3847518457169816
-0.37037202435016847,-0.37037202435016847
-0.38075745089286683,-0.38075745089286683
-0.4143103674154309,-0.4143103674154309
-0.4374778573952966,-0.4374778573952966
-0.4358800994656507,-0.4358800994656507
-0.42629355188777523,-0.42629355188777523
-0.4398744942897655,-0.4398744942897655
-0.47662292667162137,-0.47662292667162137
-0.5101758431941854,-0.5101758431941854
-0.5213601487017068,-0.5213601487017068
-0.5205612697368839,-0.5205612697368839
-0.5197623907720609,-0.5197623907720609
-0.5213601487017068,-0.5213601487017068
-0.534941091103697,-0.534941091103697
-0.5756839183096677,-0.5756839183096677
-0.6244155351638679,-0.6244155351638679
-0.640393114460327,-0.640393114460327
-0.6164267455156384,-0.6164267455156384
-0.6068401979377629,-0.6068401979377629
-0.6419908723899729,-0.6419908723899729
-0.6819348206311207,-0.6819348206311207
-0.6811359416662977,-0.6811359416662977
-0.6563706937567861,-0.6563706937567861
-0.6467841461789107,-0.6467841461789107
-0.6483819041085566,-0.6483819041085566
-0.6379964775658581,-0.6379964775658581
-0.6204211403397532,-0.6204211403397532
-0.6092368348322318,-0.6092368348322318
-0.588465981746835,-0.588465981746835
-0.5469242755760414,-0.5469242755760414
-0.5029859325107788,-0.5029859325107788
-0.4798184425309132,-0.4798184425309132
-0.4534554366917557,-0.4534554366917557
-0.3903439984707423,-0.3903439984707423
-0.30007067544574845,-0.30007067544574845
-0.22657381068203666,-0.22657381068203666
-0.18183658865195124,-0.18183658865195124
-0.13789824558668876,-0.13789824558668876
-0.06120586496368513,-0.06120586496368513
0.048240553217059605,0.048240553217059605
0.16248024518674206,0.16248024518674206
0.25594908407102773,0.25594908407102773
0.3246526750458018,0.3246526750458018
0.3837697184427004,0.3837697184427004
0.44768003562853675,0.44768003562853675
0.5075959579902584,0.5075959579902584
0.5443443903721142,0.5443443903721142
0.5395511165831766,0.5395511165831766
0.5020038052364977,0.5020038052364977
0.4716464045732254,0.4716464045732254
0.4836295890455697,0.4836295890455697
0.5267690531460092,0.5267690531460092
0.5499365431258749,0.5499365431258749
0.531562326934947,0.531562326934947
0.5036015631661436,0.5036015631661436
0.4900206207641533,0.4900206207641533
0.4724452835380483,0.4724452835380483
0.4333002142617236,0.4333002142617236
0.3949540239502218,0.3949540239502218
0.38297083947787747,0.38297083947787747
0.37498204982964795,0.37498204982964795
0.3398313753774379,0.3398313753774379
0.2831109688750082,0.2831109688750082
0.21520625686505707,0.21520625686505707
0.13451948141793868,0.13451948141793868
0.049039432181882565,0.049039432181882565
0.0019055732573282583,0.0019055732573282583
-0.006882095355724239,-0.006882095355724239
-0.032446222230058774,-0.032446222230058774
-0.10674196595859353,-0.10674196595859353
-0.18023883072230532,-0.18023883072230532
-0.20260744173734804,-0.20260744173734804
-0.19541753105394147,-0.19541753105394147
-0.20420519966699396,-0.20420519966699396
-0.22098165792827598,-0.22098165792827598
-0.2225794158579219,-0.2225794158579219
-0.22018277896345304,-0.22018277896345304
-0.23376372136544327,-0.23376372136544327
-0.23616035825991213,-0.23616035825991213
-0.21299286828004646,-0.21299286828004646
-0.19861304691323328,-0.19861304691323328
-0.22657381068203666,-0.22657381068203666
-0.2625233640990696,-0.2625233640990696
-0.2641211220287155,-0.2641211220287155
-0.23616035825991213,-0.23616035825991213
-0.22737268964685964,-0.22737268964685964
-0.23935587411920395,-0.23935587411920395
-0.2505401796267253,-0.2505401796267253
-0.24654578480261052,-0.24654578480261052
-0.23296484240062032,-0.23296484240062032
-0.19861304691323328,-0.19861304691323328
-0.168255646249961,-0.168255646249961
-0.17464667796854463,-0.17464667796854463
-0.22417717378756782,-0.22417717378756782
-0.24574690583778758,-0.24574690583778758
-0.20021080484287918,-0.20021080484287918
-0.09875317631036398,-0.09875317631036398
0.0466427952874137,0.0466427952874137
0.2407703837393916,0.2407703837393916
0.43010469840243176,0.43010469840243176
0.5539309379499897,0.5539309379499897
0.6953325147236527,0.6953325147236527
1.0300628009844706,1.0300628009844706
1.5341554277877547,1.5341554277877547
1.9064330253952515,1.9064330253952515
1.9208128467620647,1.9208128467620647
1.7538471431140672,1.7538471431140672
1.807372033757205,1.807372033757205
2.245157706480184,2.245157706480184
2.8507079618159836,2.8507079618159836
3.3012756979761293,3.3012756979761293
3.458654854046251,3.458654854046251
3.3476106779358608,3.3476106779358608
2.9841207489414168,2.9841207489414168
2.354604124660929,2.354604124660929
1.563713949486204,1.563713949486204
0.8607004604420042,0.8607004604420042
0.4420878828747761,0.4420878828747761
0.2551502051062048,0.2551502051062048
0.10176544386019755,0.10176544386019755
-0.12271954525505262,-0.12271954525505262
-0.34800341333512574,-0.34800341333512574
-0.4670363790937459,-0.4670363790937459
-0.4710307739178607,-0.4710307739178607
-0.42629355188777523,-0.42629355188777523
-0.4007294250134407,-0.4007294250134407
-0.4143103674154309,-0.4143103674154309
-0.45105879979728686,-0.45105879979728686
-0.47662292667162137,-0.47662292667162137
-0.49260050596808047,-0.49260050596808047
-0.5053825694052477,-0.5053825694052477
-0.5085780852645395,-0.5085780852645395
-0.47023189495303774,-0.47023189495303774
-0.4222991570636605,-0.4222991570636605
-0.41271260948578503,-0.41271260948578503
-0.4518576787621098,-0.4518576787621098
-0.4798184425309132,-0.4798184425309132
-0.47662292667162137,-0.47662292667162137
-0.48940499010878863,-0.48940499010878863
-0.5373377279981659,-0.5373377279981659
-0.554114186259448,-0.554114186259448
-0.49419826389772636,-0.49419826389772636
-0.42070139913401455,-0.42070139913401455
-0.42469579395812934,-0.42469579395812934
-0.4949971428625493,-0.4949971428625493
-0.5405332438574577,-0.5405332438574577
-0.5213601487017068,-0.5213601487017068
-0.47662292667162137,-0.47662292667162137
-0.4606453473751623,-0.4606453473751623
-0.48061732149573616,-0.48061732149573616
-0.5149691169831232,-0.5149691169831232
-0.5325444542092281,-0.5325444542092281
-0.5213601487017068,-0.5213601487017068
-0.5077792062997166,-0.5077792062997166
-0.534941091103697,-0.534941091103697
-0.6028458031136481,-0.6028458031136481
-0.6603650885809008,-0.6603650885809008
-0.6595662096160779,-0.6595662096160779
-0.6180245034452843,-0.6180245034452843
-0.6012480451840022,-0.6012480451840022
-0.6451863882492648,-0.6451863882492648
-0.7098955843999241,-0.7098955843999241
-0.7330630743797897,-0.7330630743797897
-0.7122922212943928,-0.7122922212943928
-0.7082978264702782,-0.7082978264702782
-0.745046258852134,-0.745046258852134
-0.7785991753746981,-0.7785991753746981
-0.7746047805505833,-0.7746047805505833
-0.762621596078239,-0.762621596078239
-0.7594260802189472,-0.7594260802189472
-0.7346608323094356,-0.7346608323094356
-0.6891247313145272,-0.6891247313145272
-0.6843314575255894,-0.6843314575255894
-0.7226776478370913,-0.7226776478370913
-0.7082978264702782,-0.7082978264702782
-0.6124323506915236,-0.6124323506915236
-0.5461253966112184,-0.5461253966112184
-0.5828738289930743,-0.5828738289930743
-0.622817777234222,-0.622817777234222
-0.5573097021187398,-0.5573097021187398
-0.4318857046415359,-0.4318857046415359
-0.3543944450537094,-0.3543944450537094
-0.31604825474220755,-0.31604825474220755
-0.2545345744508401,-0.2545345744508401
-0.18263546761677418,-0.18263546761677418
-0.1474847931645642,-0.1474847931645642
-0.12032290836058375,-0.12032290836058375
-0.048423801526517866,-0.048423801526517866
0.05223494804117438,0.05223494804117438
0.12972620762900094,0.12972620762900094
0.18884325102589958,0.18884325102589958
0.268731147508195,0.268731147508195
0.355808954673897,0.355808954673897
0.40054617670398246,0.40054617670398246
0.38856299223163815,0.38856299223163815
0.3542111967442511,0.3542111967442511
0.33743473848296907,0.33743473848296907
0.3542111967442511,0.3542111967442511
0.3981495398095136,0.3981495398095136
0.43969124598030723,0.43969124598030723
0.44368564080442197,0.44368564080442197
0.4133282401411497,0.4133282401411497
0.38616635533716925,0.38616635533716925
0.3789764446537627,0.3789764446537627
0.3717865339703561,0.3717865339703561
0.34302689123672975,0.34302689123672975
0.30627845885487387,0.30627845885487387
0.2831109688750082,0.2831109688750082
0.2671333895785491,0.2671333895785491
0.233580473055985,0.233580473055985
0.1792567034480241,0.1792567034480241
0.12573181280488618,0.12573181280488618
0.08738562249338437,0.08738562249338437
0.05383270597082029,0.05383270597082029
0.012290999800026665,0.012290999800026665
-0.03883725394864241,-0.03883725394864241
-0.08916662873248853,-0.08916662873248853
-0.13310497179775102,-0.13310497179775102
-0.1650601303906692,-0.1650601303906692
-0.17624443589819055,-0.17624443589819055
-0.16346237246102327,-0.16346237246102327
-0.15147918798867896,-0.15147918798867896
-0.17145116210925282,-0.17145116210925282
-0.21299286828004646,-0.21299286828004646
-0.22497605275239077,-0.22497605275239077
-0.1930208941594726,-0.1930208941594726
-0.16106573556655443,-0.16106573556655443
-0.17304892003889874,-0.17304892003889874
-0.20100968380770215,-0.20100968380770215
-0.2066018365614628,-0.2066018365614628
-0.19222201519464963,-0.19222201519464963
-0.18263546761677418,-0.18263546761677418
-0.17145116210925282,-0.17145116210925282
-0.16186461453137738,-0.16186461453137738
-0.16905452521478395,-0.16905452521478395
-0.20420519966699396,-0.20420519966699396
-0.22337829482274485,-0.22337829482274485
-0.1978141679484103,-0.1978141679484103
-0.14668591419974125,-0.14668591419974125
-0.13789824558668876,-0.13789824558668876
-0.17145116210925282,-0.17145116210925282
-0.19861304691323328,-0.19861304691323328
-0.16186461453137738,-0.16186461453137738
-0.0843733549435508,-0.0843733549435508
-0.003686579496432422,-0.003686579496432422
0.08738562249338437,0.08738562249338437
0.2319827151263391,0.2319827151263391
0.4149259980707956,0.4149259980707956
0.5858860965429079,0.5858860965429079
0.7792148060300628,0.7792148060300628
1.1035596657481823,1.1035596657481823
1.5509318860490366,1.5509318860490366
1.9176173309027729,1.9176173309027729
2.0246671121890487,2.0246671121890487
1.9663489477569729,1.9663489477569729
2.0342536597669243,2.0342536597669243
2.3969447097965455,2.3969447097965455
2.940182405876154,2.940182405876154
3.4035322054734674,3.4035322054734674
3.6072463415033207,3.6072463415033207
3.5089842288300974,3.5089842288300974
3.1311144784688403,3.1311144784688403
2.505592249012467,2.505592249012467
1.7258863793452637,1.7258863793452637
0.9773367893061555,0.9773367893061555
0.442886761839599,0.442886761839599
0.16327912415156504,0.16327912415156504
0.009095483940734847,0.009095483940734847
-0.1594679776369085,-0.1594679776369085
-0.34241126058136506,-0.34241126058136506
-0.4342823415360048,-0.4342823415360048
-0.4103159725913162,-0.4103159725913162
-0.36158435573711595,-0.36158435573711595
-0.37037202435016847,-0.37037202435016847
-0.3983327881189718,-0.3983327881189718
-0.3919417564003882,-0.3919417564003882
-0.3647798715964078,-0.3647798715964078
-0.36557875056123074,-0.36557875056123074
-0.3767630560687521,-0.3767630560687521
-0.37516529813910615,-0.37516529813910615
-0.37596417710392915,-0.37596417710392915
-0.4079193356968473,-0.4079193356968473
-0.42070139913401455,-0.42070139913401455
-0.3839529667521587,-0.3839529667521587
-0.3328247130034896,-0.3328247130034896
-0.33602022886278143,-0.33602022886278143
-0.37596417710392915,-0.37596417710392915
-0.39353951433003415,-0.39353951433003415
-0.3743664191742832,-0.3743664191742832
-0.3551933240185323,-0.3551933240185323
-0.3623832347019389,-0.3623832347019389
-0.38315408778733573,-0.38315408778733573
-0.3975339091541489,-0.3975339091541489
-0.3975339091541489,-0.3975339091541489
-0.3863496036466275,-0.3863496036466275
-0.37196978227981436,-0.37196978227981436
-0.3687742664205225,-0.3687742664205225
-0.38075745089286683,-0.38075745089286683
-0.4007294250134407,-0.4007294250134407
-0.40871821466167024,-0.40871821466167024
-0.4007294250134407,-0.4007294250134407
-0.39673503018932593,-0.39673503018932593
-0.4278913098174212,-0.4278913098174212
-0.48221507942538205,-0.48221507942538205
-0.5165668749127691,-0.5165668749127691
-0.5125724800886543,-0.5125724800886543
-0.5037848114756018,-0.5037848114756018
-0.518164632842415,-0.518164632842415
-0.5405332438574577,-0.5405332438574577
-0.5557119441890939,-0.5557119441890939
-0.5780805552041366,-0.5780805552041366
-0.6076390769025859,-0.6076390769025859
-0.6108345927618777,-0.6108345927618777
-0.5900637396764808,-0.5900637396764808
-0.6044435610432941,-0.6044435610432941
-0.6619628465105468,-0.6619628465105468
-0.6827336995959435,-0.6827336995959435
-0.6244155351638679,-0.6244155351638679
-0.5652984917669693,-0.5652984917669693
-0.5788794341689595,-0.5788794341689595
-0.622018898269399,-0.622018898269399
-0.622018898269399,-0.622018898269399
-0.5852704658875432,-0.5852704658875432
-0.553315307294625,-0.553315307294625
-0.5109747221590084,-0.5109747221590084
-0.44866216290281796,-0.44866216290281796
-0.41271260948578503,-0.41271260948578503
-0.41750588327472277,-0.41750588327472277
-0.39114287743556525,-0.39114287743556525
-0.2920818857975189,-0.2920818857975189
-0.19142313622982668,-0.19142313622982668
-0.15307694591832488,-0.15307694591832488
-0.11872515043093784,-0.11872515043093784
-0.009278732250193102,-0.009278732250193102
0.14730154485510594,0.14730154485510594
0.2671333895785491,0.2671333895785491
0.33264146469403133,0.33264146469403133
0.37817756568893973,0.37817756568893973
0.4133282401411497,0.4133282401411497
0.43170245633207766,0.43170245633207766
0.4540710673471204,0.4540710673471204
0.4908194997289763,0.4908194997289763
0.5099925948847271,0.5099925948847271
0.49161837869379926,0.49161837869379926
0.478037436291809,0.478037436291809
0.5211769003922485,0.5211769003922485
0.5922771282614915,0.5922771282614915
0.6146457392765342,0.6146457392765342
0.5595230907037504,0.5595230907037504
0.4836295890455697,0.4836295890455697
0.4540710673471204,0.4540710673471204
0.47564079939734016,0.47564079939734016
0.4884228628345074,0.4884228628345074
0.44768003562853675,0.44768003562853675
0.3717865339703561,0.3717865339703561
0.3006863061011132,0.3006863061011132
0.2535524471765589,0.2535524471765589
0.21920065168917183,0.21920065168917183
0.18724549309625366,0.18724549309625366
0.1377149972772305,0.1377149972772305
0.05782710079493506,0.05782710079493506
-0.02525631154665219,-0.02525631154665219
-0.05721147013957036,-0.05721147013957036
-0.04043501187828832,-0.04043501187828832
-0.04442940670240309,-0.04442940670240309
-0.10434532906412466,-0.10434532906412466
-0.16426125142584624,-0.16426125142584624
-0.17304892003889874,-0.17304892003889874
-0.16186461453137738,-0.16186461453137738
-0.17784219382783645,-0.17784219382783645
-0.2018085627725251,-0.2018085627725251
-0.20021080484287918,-0.20021080484287918
-0.19142313622982668,-0.19142313622982668
-0.19621641001876441,-0.19621641001876441
-0.18343434658159713,-0.18343434658159713
-0.1474847931645642,-0.1474847931645642
-0.13470272972739694,-0.13470272972739694
-0.1770433148630135,-0.1770433148630135
-0.20979735242075465,-0.20979735242075465
-0.1890264993353578,-0.1890264993353578
-0.15547358281279375,-0.15547358281279375
-0.17304892003889874,-0.17304892003889874
-0.20899847345593167,-0.20899847345593167
-0.21139511035040054,-0.21139511035040054
-0.17864107279265942,-0.17864107279265942
-0.16266349349620032,-0.16266349349620032
-0.16106573556655443,-0.16106573556655443
-0.14668591419974125,-0.14668591419974125
-0.10035093424000989,-0.10035093424000989
-0.028451827405944007,-0.028451827405944007
0.07620131698586301,0.07620131698586301
0.2128096199705882,0.2128096199705882
0.3637977443221266,0.3637977443221266
0.512389231779196,0.512389231779196
0.704919062301528,0.704919062301528
1.0196773744417722,1.0196773744417722
1.4342955571848854,1.4342955571848854
1.7610370537974738,1.7610370537974738
1.8161597023702576,1.8161597023702576
1.687540189033762,1.687540189033762
1.7067132841895127,1.7067132841895127
2.093370703163823,2.093370703163823
2.704513111253383,2.704513111253383
3.2141978908104276,3.2141978908104276
3.429895211312625,3.429895211312625
3.3428174041469227,3.3428174041469227
2.9857185068710628,2.9857185068710628
2.4009391046206603,2.4009391046206603
1.7075121631543357,1.7075121631543357
1.0724033861200872,1.0724033861200872
0.6042603127338358,0.6042603127338358
0.31506612746792634,0.31506612746792634
0.15768697139780435,0.15768697139780435
0.0378551266743612,0.0378551266743612
-0.12511618214952147,-0.12511618214952147
-0.3152493757773846,-0.3152493757773846
-0.4278913098174212,-0.4278913098174212
-0.4278913098174212,-0.4278913098174212
-0.3975339091541489,-0.3975339091541489
-0.4063215777672014,-0.4063215777672014
-0.41510924638025387,-0.41510924638025387
-0.3975339091541489,-0.3975339091541489
-0.4023271829430866,-0.4023271829430866
-0.4550531946214016,-0.4550531946214016
-0.47182965288268364,-0.47182965288268364
-0.4167070043098998,-0.4167070043098998
-0.3727686612446373,-0.3727686612446373
-0.4183047622395457,-0.4183047622395457
-0.47342741081232953,-0.47342741081232953
-0.4534554366917557,-0.4534554366917557
-0.3983327881189718,-0.3983327881189718
-0.3975339091541489,-0.3975339091541489
-0.4318857046415359,-0.4318857046415359
-0.4374778573952966,-0.4374778573952966
-0.4270924308525982,-0.4270924308525982
-0.44067337325458844,-0.44067337325458844
-0.4518576787621098,-0.4518576787621098
-0.42469579395812934,-0.42469579395812934
-0.3975339091541489,-0.3975339091541489
-0.41750588327472277,-0.41750588327472277
-0.45585207358622454,-0.45585207358622454
-0.45824871048069343,-0.45824871048069343
-0.4390756153249425,-0.4390756153249425
-0.4454666470435262,-0.4454666470435262
-0.48381283735502795,-0.48381283735502795
-0.5149691169831232,-0.5149691169831232
-0.5253545435258216,-0.5253545435258216
-0.5309466962795822,-0.5309466962795822
-0.5421310017871036,-0.5421310017871036
-0.5509186704001561,-0.5509186704001561
-0.5613040969428545,-0.5613040969428545
-0.5908626186413038,-0.5908626186413038
-0.6419908723899729,-0.6419908723899729
-0.6827336995959435,-0.6827336995959435
-0.6859292154552354,-0.6859292154552354
-0.6723482730532452,-0.6723482730532452
-0.6891247313145272,-0.6891247313145272
-0.7370574692039045,-0.7370574692039045
-0.7602249591837702,-0.7602249591837702
-0.7346608323094356,-0.7346608323094356
-0.710694463364747,-0.710694463364747
-0.727470921626029,-0.727470921626029
-0.7506384116058947,-0.7506384116058947
-0.7370574692039045,-0.7370574692039045
-0.7051023106109863,-0.7051023106109863
-0.6867280944200583,-0.6867280944200583
-0.6659572413346615,-0.6659572413346615
-0.6348009617065663,-0.6348009617065663
-0.6236166561990449,-0.6236166561990449
-0.6284099299879827,-0.6284099299879827
-0.5828738289930743,-0.5828738289930743
-0.4774218056364443,-0.4774218056364443
-0.40152830397826367,-0.40152830397826367
-0.4063215777672014,-0.4063215777672014
-0.4103159725913162,-0.4103159725913162
-0.3328247130034896,-0.3328247130034896
-0.22497605275239077,-0.22497605275239077
-0.1666578883203151,-0.1666578883203151
-0.1315072138681051,-0.1315072138681051
-0.05561371220992445,-0.05561371220992445
0.04983831114670552,0.04983831114670552
0.146502665890283,0.146502665890283
0.24716141545797524,0.24716141545797524
0.35660783363871995,0.35660783363871995
0.4157248770356186,0.4157248770356186
0.39255738705575294,0.39255738705575294
0.35900447053318885,0.35900447053318885
0.38856299223163815,0.38856299223163815
0.442886761839599,0.442886761839599
0.4412890039099531,0.4412890039099531
0.39175850809092994,0.39175850809092994
0.3717865339703561,0.3717865339703561
0.41013272428185793,0.41013272428185793
0.460462099065704,0.460462099065704
0.4684508887139336,0.4684508887139336
0.4309035773672547,0.4309035773672547
0.3805742025834086,0.3805742025834086
0.34702128606084454,0.34702128606084454
0.33743473848296907,0.33743473848296907
0.3318425857292084,0.3318425857292084
0.303082942995582,0.303082942995582
0.23278159409116206,0.23278159409116206
0.13531836038276163,0.13531836038276163
0.06262037458387279,0.06262037458387279
0.05383270597082029,0.05383270597082029
0.06741364837281051,0.06741364837281051
0.02267642634272507,0.02267642634272507
-0.0915632656269574,-0.0915632656269574
-0.18183658865195124,-0.18183658865195124
-0.18662986244088897,-0.18662986244088897
-0.16026685660173146,-0.16026685660173146
-0.1770433148630135,-0.1770433148630135
-0.22417717378756782,-0.22417717378756782
-0.2537356954860171,-0.2537356954860171
-0.26731663788800736,-0.26731663788800736
-0.28329421718446646,-0.28329421718446646
-0.2785009433955287,-0.2785009433955287
-0.25133905859154826,-0.25133905859154826
-0.2473446637674335,-0.2473446637674335
-0.28489197511411235,-0.28489197511411235
-0.29527740165681077,-0.29527740165681077
-0.2537356954860171,-0.2537356954860171
-0.22737268964685964,-0.22737268964685964
-0.2681155168528303,-0.2681155168528303
-0.30646170716433213,-0.30646170716433213
-0.28648973304375824,-0.28648973304375824
-0.24974130066190234,-0.24974130066190234
-0.2617244851342467,-0.2617244851342467
-0.2856908540789353,-0.2856908540789353
-0.2785009433955287,-0.2785009433955287
-0.2601267272046007,-0.2601267272046007
-0.2785009433955287,-0.2785009433955287
-0.2936796437271648,-0.2936796437271648
-0.2625233640990696,-0.2625233640990696
-0.20420519966699396,-0.20420519966699396
-0.17784219382783645,-0.17784219382783645
-0.14828367212938715,-0.14828367212938715
-0.02206079568736037,-0.02206079568736037
0.2128096199705882,0.2128096199705882
0.4309035773672547,0.4309035773672547
0.5403499955479995,0.5403499955479995
0.6593829613066197,0.6593829613066197
0.9781356682709785,0.9781356682709785
1.443083225797938,1.443083225797938
1.7458583534658376,1.7458583534658376
1.7107076790136275,1.7107076790136275
1.5613173125917352,1.5613173125917352
1.6731603676669489,1.6731603676669489
2.142102320018023,2.142102320018023
2.7428593015648848,2.7428593015648848
3.2022147063380832,3.2022147063380832
3.378766957563956,3.378766957563956
3.2301754701068868,3.2301754701068868
2.775613339122626,2.775613339122626
2.122130345897449,2.122130345897449
1.4334966782200624,1.4334966782200624
0.8543094287234206,0.8543094287234206
0.4644564938898188,0.4644564938898188
0.2527535682117359,0.2527535682117359
0.1201396600511255,0.1201396600511255
-0.04203276980793423,-0.04203276980793423
-0.2401547530840269,-0.2401547530840269
-0.38075745089286683,-0.38075745089286683
-0.4215002780988375,-0.4215002780988375
-0.4270924308525982,-0.4270924308525982
-0.4638408632344541,-0.4638408632344541
-0.5021870535459559,-0.5021870535459559
-0.5037848114756018,-0.5037848114756018
-0.4965949007921952,-0.4965949007921952
-0.5269523014554675,-0.5269523014554675
-0.5621029759076774,-0.5621029759076774
-0.5557119441890939,-0.5557119441890939
-0.5173657538775921,-0.5173657538775921
-0.4989915376866641,-0.4989915376866641
-0.4965949007921952,-0.4965949007921952
-0.5029859325107788,-0.5029859325107788
-0.5205612697368839,-0.5205612697368839
-0.5461253966112184,-0.5461253966112184
-0.5365388490333429,-0.5365388490333429
-0.48620947424949684,-0.48620947424949684
-0.4598464684103393,-0.4598464684103393
-0.4973937797570182,-0.4973937797570182
-0.5461253966112184,-0.5461253966112184
-0.5373377279981659,-0.5373377279981659
-0.49260050596808047,-0.49260050596808047
-0.4758240477067984,-0.4758240477067984
-0.5053825694052477,-0.5053825694052477
-0.5437287597167495,-0.5437287597167495
-0.5676951286614381,-0.5676951286614381
-0.5764827972744907,-0.5764827972744907
-0.5724884024503759,-0.5724884024503759
-0.5589074600483857,-0.5589074600483857
-0.5613040969428545,-0.5613040969428545
-0.5916614976061267,-0.5916614976061267
-0.6348009617065663,-0.6348009617065663
-0.6515774199678483,-0.6515774199678483
-0.6355998406713893,-0.6355998406713893
-0.6116334717267007,-0.6116334717267007
-0.6092368348322318,-0.6092368348322318
-0.6300076879176286,-0.6300076879176286
-0.6547729358271401,-0.6547729358271401
-0.675543788912537,-0.675543788912537
-0.7059011895758093,-0.7059011895758093
-0.7474428957466028,-0.7474428957466028
-0.7809958122691669,-0.7809958122691669
-0.7921801177766883,-0.7921801177766883
-0.7929789967415113,-0.7929789967415113
-0.7889846019173965,-0.7889846019173965
-0.7722081436561145,-0.7722081436561145
-0.7522361695355406,-0.7522361695355406
-0.7538339274651865,-0.7538339274651865
-0.7658171119375309,-0.7658171119375309
-0.7402529850631963,-0.7402529850631963
-0.6723482730532452,-0.6723482730532452
-0.6268121720583368,-0.6268121720583368
-0.6379964775658581,-0.6379964775658581
-0.6483819041085566,-0.6483819041085566
-0.5964547713950645,-0.5964547713950645
-0.5109747221590084,-0.5109747221590084
-0.4462655260083491,-0.4462655260083491
-0.3999305460486178,-0.3999305460486178
-0.3472045343703028,-0.3472045343703028
-0.2936796437271648,-0.2936796437271648
-0.24414914790814166,-0.24414914790814166
-0.1650601303906692,-0.1650601303906692
-0.05561371220992445,-0.05561371220992445
0.02986633702613166,0.02986633702613166
0.06901140630245642,0.06901140630245642
0.12573181280488618,0.12573181280488618
0.24396589959868342,0.24396589959868342
0.36060222846283474,0.36060222846283474
0.39415514498539883,0.39415514498539883
0.36219998639248063,0.36219998639248063
0.3422280122719068,0.3422280122719068
0.355808954673897,0.355808954673897
0.3598033494980118,0.3598033494980118
0.3334403436588543,0.3334403436588543
0.320658280221687,0.320658280221687
0.3526134388146052,0.3526134388146052
0.40454057152809725,0.40454057152809725
0.4157248770356186,0.4157248770356186
0.37498204982964795,0.37498204982964795
0.3262504329754477,0.3262504329754477
0.3086750957493427,0.3086750957493427
0.3086750957493427,0.3086750957493427
0.29189863748806066,0.29189863748806066
0.24796029442279818,0.24796029442279818
0.18884325102589958,0.18884325102589958
0.11534638626218777,0.11534638626218777
0.030665215990954613,0.030665215990954613
-0.03963613291346536,-0.03963613291346536
-0.06999353357673763,-0.06999353357673763
-0.07318904943602944,-0.07318904943602944
-0.0931610235566033,-0.0931610235566033
-0.15307694591832488,-0.15307694591832488
-0.23935587411920395,-0.23935587411920395
-0.31285273888291576,-0.31285273888291576
-0.3472045343703028,-0.3472045343703028
-0.3416123816165421,-0.3416123816165421
-0.3224392864607912,-0.3224392864607912
-0.31764601267185344,-0.31764601267185344
-0.34001462368689617,-0.34001462368689617
-0.3727686612446373,-0.3727686612446373
-0.3919417564003882,-0.3919417564003882
-0.38555072468180457,-0.38555072468180457
-0.37037202435016847,-0.37037202435016847
-0.36717650849087663,-0.36717650849087663
-0.38155632985768984,-0.38155632985768984
-0.39114287743556525,-0.39114287743556525
-0.3847518457169816,-0.3847518457169816
-0.3639809926315848,-0.3639809926315848
-0.3567910819481782,-0.3567910819481782
-0.36318211366676184,-0.36318211366676184
-0.36318211366676184,-0.36318211366676184
-0.3288303181793748,-0.3288303181793748
-0.28648973304375824,-0.28648973304375824
-0.2800987013251746,-0.2800987013251746
-0.3312269550738437,-0.3312269550738437
-0.3871484826114505,-0.3871484826114505
-0.4079193356968473,-0.4079193356968473
-0.38315408778733573,-0.38315408778733573
-0.3224392864607912,-0.3224392864607912
-0.22018277896345304,-0.22018277896345304
-0.10114981320483285,-0.10114981320483285
-0.013273127074307873,-0.013273127074307873
0.07140804319692529,0.07140804319692529
0.26633451061372615,0.26633451061372615
0.6298244396081704,0.6298244396081704
1.0660123544015034,1.0660123544015034
1.4342955571848854,1.4342955571848854
1.669165972842834,1.669165972842834
1.7666292065512343,1.7666292065512343
1.7634336906919426,1.7634336906919426
1.8145619444406116,1.8145619444406116
2.122929224862272,2.122929224862272
2.68214450023834,2.68214450023834
3.2030135853029065,3.2030135853029065
3.411520995121697,3.411520995121697
3.278108207996264,3.278108207996264
2.892249667986777,2.892249667986777
2.277911744037925,2.277911744037925
1.5014013902300136,1.5014013902300136
0.7864047167134693,0.7864047167134693
0.3454235281311986,0.3454235281311986
0.14011163417169936,0.14011163417169936
-0.02925070637076696,-0.02925070637076696
-0.25852896927495483,-0.25852896927495483
-0.4670363790937459,-0.4670363790937459
-0.5621029759076774,-0.5621029759076774
-0.5644996128021463,-0.5644996128021463
-0.5573097021187398,-0.5573097021187398
-0.5828738289930743,-0.5828738289930743
-0.6156278665508155,-0.6156278665508155
-0.6292088089528056,-0.6292088089528056
-0.6204211403397532,-0.6204211403397532
-0.5988514082895334,-0.5988514082895334
-0.5652984917669693,-0.5652984917669693
-0.5485220335056873,-0.5485220335056873
-0.5780805552041366,-0.5780805552041366
-0.640393114460327,-0.640393114460327
-0.6555718147919631,-0.6555718147919631
-0.6100357137970548,-0.6100357137970548
-0.5748850393448448,-0.5748850393448448
-0.5972536503598874,-0.5972536503598874
-0.6108345927618777,-0.6108345927618777
-0.5629018548725004,-0.5629018548725004
-0.5173657538775921,-0.5173657538775921
-0.5517175493649791,-0.5517175493649791
-0.6300076879176286,-0.6300076879176286
-0.6659572413346615,-0.6659572413346615
-0.6491807830733795,-0.6491807830733795
-0.6252144141286908,-0.6252144141286908
-0.6140301086211695,-0.6140301086211695
-0.6076390769025859,-0.6076390769025859
-0.6180245034452843,-0.6180245034452843
-0.6443875092844418,-0.6443875092844418
-0.6507785410030255,-0.6507785410030255
-0.6164267455156384,-0.6164267455156384
-0.5940581345005956,-0.5940581345005956
-0.6419908723899729,-0.6419908723899729
-0.7410518640280193,-0.7410518640280193
-0.8009677863897409,-0.8009677863897409
-0.7785991753746981,-0.7785991753746981
-0.7242754057667372,-0.7242754057667372
-0.7154877371536847,-0.7154877371536847
-0.7570294433244783,-0.7570294433244783
-0.7929789967415113,-0.7929789967415113
-0.7969733915656261,-0.7969733915656261
-0.815347607756554,-0.815347607756554
-0.8712691352941607,-0.8712691352941607
-0.9215985100780069,-0.9215985100780069
-0.9247940259372986,-0.9247940259372986
-0.9104142045704855,-0.9104142045704855
-0.9072186887111936,-0.9072186887111936
-0.8904422304499117,-0.8904422304499117
-0.8457050084198262,-0.8457050084198262
-0.8233363974047835,-0.8233363974047835
-0.8520960401384098,-0.8520960401384098
-0.8784590459775673,-0.8784590459775673
-0.8536937980680557,-0.8536937980680557
-0.8121520918972622,-0.8121520918972622
-0.7929789967415113,-0.7929789967415113
-0.762621596078239,-0.762621596078239
-0.693119126138642,-0.693119126138642
-0.6355998406713893,-0.6355998406713893
-0.6276110510231597,-0.6276110510231597
-0.6172256244804614,-0.6172256244804614
-0.5485220335056873,-0.5485220335056873
-0.4622431053048082,-0.4622431053048082
-0.42309803602848345,-0.42309803602848345
-0.40552269880237846,-0.40552269880237846
-0.3392157447220732,-0.3392157447220732
-0.21778614206898417,-0.21778614206898417
-0.0931610235566033,-0.0931610235566033
0.008296604975911892,0.008296604975911892
0.09297777524714505,0.09297777524714505
0.16008360829227322,0.16008360829227322
0.2128096199705882,0.2128096199705882
0.26074235785996547,0.26074235785996547
0.2926975164528836,0.2926975164528836
0.27831769508607046,0.27831769508607046
0.23118383616151614,0.23118383616151614
0.21520625686505707,0.21520625686505707
0.2631389947544343,0.2631389947544343
0.3246526750458018,0.3246526750458018
0.3406302543422609,0.3406302543422609
0.320658280221687,0.320658280221687
0.3126694905734575,0.3126694905734575
0.32385379608097886,0.32385379608097886
0.3190605222920411,0.3190605222920411
0.2807143319805393,0.2807143319805393
0.23997150477456863,0.23997150477456863
0.22639056237257843,0.22639056237257843
0.22878719926704727,0.22878719926704727
0.20721746721682752,0.20721746721682752
0.15129593967922073,0.15129593967922073
0.08738562249338437,0.08738562249338437
0.03465961081506939,0.03465961081506939
-0.010077611215016056,-0.010077611215016056
-0.04682604359687195,-0.04682604359687195
-0.06040698599886218,-0.06040698599886218
-0.0739879284008524,-0.0739879284008524
-0.1355016086922199,-0.1355016086922199
-0.22976932654132848,-0.22976932654132848
-0.27051215374729914,-0.27051215374729914
-0.22897044757650553,-0.22897044757650553
-0.1930208941594726,-0.1930208941594726
-0.23695923722473508,-0.23695923722473508
-0.308059465093978,-0.308059465093978
-0.3224392864607912,-0.3224392864607912
-0.2888863699382271,-0.2888863699382271
-0.26332224306389257,-0.26332224306389257
-0.24654578480261052,-0.24654578480261052
-0.22897044757650553,-0.22897044757650553
-0.23536147929508916,-0.23536147929508916
-0.2721099116769451,-0.2721099116769451
-0.2769031854658828,-0.2769031854658828
-0.2313670844709744,-0.2313670844709744
-0.20260744173734804,-0.20260744173734804
-0.24414914790814166,-0.24414914790814166
-0.2856908540789353,-0.2856908540789353
-0.2617244851342467,-0.2617244851342467
-0.20899847345593167,-0.20899847345593167
-0.20819959449110872,-0.20819959449110872
-0.238556995154381,-0.238556995154381
-0.2505401796267253,-0.2505401796267253
-0.23616035825991213,-0.23616035825991213
-0.2225794158579219,-0.2225794158579219
-0.18263546761677418,-0.18263546761677418
-0.1019486921696558,-0.1019486921696558
-0.013273127074307873,-0.013273127074307873
0.061022616654226876,0.061022616654226876
0.1656757610460339,0.1656757610460339
0.33743473848296907,0.33743473848296907
0.5611208486333963,0.5611208486333963
0.8359352125324927,0.8359352125324927
1.1946318677379992,1.1946318677379992
1.583685923606778,1.583685923606778
1.840924950279769,1.840924950279769
1.8880588092043236,1.8880588092043236
1.880868898520917,1.880868898520917
2.067806576289488,2.067806576289488
2.5151787965903427,2.5151787965903427
3.04723218716243,3.04723218716243
3.4266996954533333,3.4266996954533333
3.534548355704432,3.534548355704432
3.3555994675840903,3.3555994675840903
2.8882552731626623,2.8882552731626623
2.1676664468923574,2.1676664468923574
1.3599998134563507,1.3599998134563507
0.7177011257386953,0.7177011257386953
0.3582055915683659,0.3582055915683659
0.16248024518674206,0.16248024518674206
-0.038038374983819456,-0.038038374983819456
-0.25693121134530894,-0.25693121134530894
-0.4047238198375555,-0.4047238198375555
-0.4534554366917557,-0.4534554366917557
-0.4598464684103393,-0.4598464684103393
-0.4614442263399852,-0.4614442263399852
-0.4614442263399852,-0.4614442263399852
-0.4638408632344541,-0.4638408632344541
-0.47342741081232953,-0.47342741081232953
-0.4622431053048082,-0.4622431053048082
-0.4278913098174212,-0.4278913098174212
-0.4095170936264932,-0.4095170936264932
-0.44067337325458844,-0.44067337325458844
-0.4758240477067984,-0.4758240477067984
-0.4758240477067984,-0.4758240477067984
-0.4462655260083491,-0.4462655260083491
-0.4358800994656507,-0.4358800994656507
-0.4454666470435262,-0.4454666470435262
-0.4518576787621098,-0.4518576787621098
-0.4430700101490573,-0.4430700101490573
-0.4270924308525982,-0.4270924308525982
-0.40871821466167024,-0.40871821466167024
-0.3919417564003882,-0.3919417564003882
-0.39274063536521114,-0.39274063536521114
-0.413511488450608,-0.413511488450608
-0.4374778573952966,-0.4374778573952966
-0.4438688891138802,-0.4438688891138802
-0.44227113118423433,-0.44227113118423433
-0.4518576787621098,-0.4518576787621098
-0.4750251687419755,-0.4750251687419755
-0.4918016270032575,-0.4918016270032575
-0.49260050596808047,-0.49260050596808047
-0.4846117163198509,-0.4846117163198509
-0.48780723217914274,-0.48780723217914274
-0.5045836904404247,-0.5045836904404247
-0.5253545435258216,-0.5253545435258216
-0.5405332438574577,-0.5405332438574577
-0.5517175493649791,-0.5517175493649791
-0.5557119441890939,-0.5557119441890939
-0.5517175493649791,-0.5517175493649791
-0.5557119441890939,-0.5557119441890939
-0.5916614976061267,-0.5916614976061267
-0.6435886303196188,-0.6435886303196188
-0.6651583623698386,-0.6651583623698386
-0.6515774199678483,-0.6515774199678483
-0.6539740568623172,-0.6539740568623172
-0.6971135209627568,-0.6971135209627568
-0.7306664374853209,-0.7306664374853209
-0.7130911002592158,-0.7130911002592158
-0.6731471520180682,-0.6731471520180682
-0.6619628465105468,-0.6619628465105468
-0.6691527571939534,-0.6691527571939534
-0.6651583623698386,-0.6651583623698386
-0.6555718147919631,-0.6555718147919631
-0.6499796620382025,-0.6499796620382025
-0.6212200193045762,-0.6212200193045762
-0.5573097021187398,-0.5573097021187398
-0.4989915376866641,-0.4989915376866641
-0.48061732149573616,-0.48061732149573616
-0.4654386211641,-0.4654386211641
-0.40552269880237846,-0.40552269880237846
-0.31844489163667644,-0.31844489163667644
-0.2601267272046007,-0.2601267272046007
-0.23775811618955803,-0.23775811618955803
-0.20100968380770215,-0.20100968380770215
-0.10434532906412466,-0.10434532906412466
0.038654005639184155,0.038654005639184155
0.1792567034480241,0.1792567034480241
0.2791165740508934,0.2791165740508934
0.33903249641261496,0.33903249641261496
0.38297083947787747,0.38297083947787747
0.426110303578317,0.426110303578317
0.46924976767875654,0.46924976767875654
0.495612773517914,0.495612773517914
0.49161837869379926,0.49161837869379926
0.4660542518194647,0.4660542518194647
0.4588643411360581,0.4588643411360581
0.5059982000606125,0.5059982000606125
0.5810928227539701,0.5810928227539701
0.6114502234172424,0.6114502234172424
0.5691096382816259,0.5691096382816259
0.5099925948847271,0.5099925948847271
0.49880828937720584,0.49880828937720584
0.5219757793570715,0.5219757793570715
0.5243724162515404,0.5243724162515404
0.4820318311159238,0.4820318311159238
0.4149259980707956,0.4149259980707956
0.3494179229553134,0.3494179229553134
0.2982896692066443,0.2982896692066443
0.26793226854337204,0.26793226854337204
0.2423681416690375,0.2423681416690375
0.19283764585001434,0.19283764585001434
0.11294974936771891,0.11294974936771891
0.04424615839294484,0.04424615839294484
0.013089878764849619,0.013089878764849619
-0.0020888215667865134,-0.0020888215667865134
-0.03164734326523582,-0.03164734326523582
-0.06759689668226877,-0.06759689668226877
-0.0931610235566033,-0.0931610235566033
-0.11473075560682307,-0.11473075560682307
-0.13789824558668876,-0.13789824558668876
-0.14428927730527238,-0.14428927730527238
-0.14189264041080352,-0.14189264041080352
-0.16266349349620032,-0.16266349349620032
-0.2018085627725251,-0.2018085627725251
-0.19701528898358736,-0.19701528898358736
-0.14109376144598057,-0.14109376144598057
-0.10434532906412466,-0.10434532906412466
-0.13709936662186578,-0.13709936662186578
-0.17624443589819055,-0.17624443589819055
-0.16266349349620032,-0.16266349349620032
-0.12112178732540671,-0.12112178732540671
-0.1195240293957608,-0.1195240293957608
-0.14588703523491828,-0.14588703523491828
-0.1562724617776167,-0.1562724617776167
-0.13789824558668876,-0.13789824558668876
-0.13630048765704283,-0.13630048765704283
-0.14668591419974125,-0.14668591419974125
-0.1402948824811576,-0.1402948824811576
-0.10114981320483285,-0.10114981320483285
-0.07638456529532127,-0.07638456529532127
-0.07318904943602944,-0.07318904943602944
-0.023658553617006278,-0.023658553617006278
0.14570378692546004,0.14570378692546004
0.3821719605130545,0.3821719605130545
0.5539309379499897,0.5539309379499897
0.6442042609749835,0.6442042609749835
0.8135666015174499,0.8135666015174499
1.1946318677379992,1.1946318677379992
1.6707637307724799,1.6707637307724799
1.9543657632846287,1.9543657632846287
1.9248072415861794,1.9248072415861794
1.8049753968627362,1.8049753968627362
1.9415836998474614,1.9415836998474614
2.440084173896985,2.440084173896985
3.0648075243885353,3.0648075243885353
3.493805528498461,3.493805528498461
3.586475488417924,3.586475488417924
3.389152384106654,3.389152384106654
2.9697409275746036,2.9697409275746036
2.35220748776646,2.35220748776646
1.615641082199696,1.615641082199696
0.952571541396644,0.952571541396644
0.5339589638294159,0.5339589638294159
0.3422280122719068,0.3422280122719068
0.2040219513575357,0.2040219513575357
0.0074977260110889385,0.0074977260110889385
-0.19541753105394147,-0.19541753105394147
-0.31445049681256165,-0.31445049681256165
-0.3527966871240635,-0.3527966871240635
-0.35838883987782416,-0.35838883987782416
-0.3312269550738437,-0.3312269550738437
-0.28089758028999756,-0.28089758028999756
-0.26492000099353846,-0.26492000099353846
-0.31764601267185344,-0.31764601267185344
-0.3679753874556996,-0.3679753874556996
-0.3535955660888864,-0.3535955660888864
-0.31045610198844686,-0.31045610198844686
-0.308059465093978,-0.308059465093978
-0.32164040749596823,-0.32164040749596823
-0.3192437706014994,-0.3192437706014994
-0.31604825474220755,-0.31604825474220755
-0.34001462368689617,-0.34001462368689617
-0.34560677644065685,-0.34560677644065685
-0.3112549809532698,-0.3112549809532698
-0.2888863699382271,-0.2888863699382271
-0.3208415285311453,-0.3208415285311453
-0.3535955660888864,-0.3535955660888864
-0.3272325602497289,-0.3272325602497289
-0.28249533821964345,-0.28249533821964345
-0.2888863699382271,-0.2888863699382271
-0.34001462368689617,-0.34001462368689617
-0.37196978227981436,-0.37196978227981436
-0.36557875056123074,-0.36557875056123074
-0.3504000502295946,-0.3504000502295946
-0.3448078974758339,-0.3448078974758339
-0.3448078974758339,-0.3448078974758339
-0.3567910819481782,-0.3567910819481782
-0.3887462405410964,-0.3887462405410964
-0.42309803602848345,-0.42309803602848345
-0.43108682567671297,-0.43108682567671297
-0.4183047622395457,-0.4183047622395457
-0.4222991570636605,-0.4222991570636605
-0.46623750012892295,-0.46623750012892295
-0.518963511807238,-0.518963511807238
-0.534941091103697,-0.534941091103697
-0.518963511807238,-0.518963511807238
-0.5261534224906446,-0.5261534224906446
-0.5772816762393136,-0.5772816762393136
-0.622817777234222,-0.622817777234222
-0.6236166561990449,-0.6236166561990449
-0.6076390769025859,-0.6076390769025859
-0.6116334717267007,-0.6116334717267007
-0.6204211403397532,-0.6204211403397532
-0.6172256244804614,-0.6172256244804614
-0.6212200193045762,-0.6212200193045762
-0.6316054458472745,-0.6316054458472745
-0.5996502872543563,-0.5996502872543563
-0.5285500593851133,-0.5285500593851133
-0.4973937797570182,-0.4973937797570182
-0.5317455752444052,-0.5317455752444052
-0.5405332438574577,-0.5405332438574577
-0.4606453473751623,-0.4606453473751623
-0.36717650849087663,-0.36717650849087663
-0.343210139546188,-0.343210139546188
-0.3448078974758339,-0.3448078974758339
-0.291283006832696,-0.291283006832696
-0.20021080484287918,-0.20021080484287918
-0.13630048765704283,-0.13630048765704283
-0.09236214459178035,-0.09236214459178035
-0.020463037757714464,-0.020463037757714464
0.07540243802104006,0.07540243802104006
0.16248024518674206,0.16248024518674206
0.2527535682117359,0.2527535682117359
0.3717865339703561,0.3717865339703561
0.48522734697521563,0.48522734697521563
0.5395511165831766,0.5395511165831766
0.5347578427942388,0.5347578427942388
0.5187802634977797,0.5187802634977797
0.5251712952163633,0.5251712952163633
0.5451432693369372,0.5451432693369372
0.5587242117389274,0.5587242117389274
0.5635174855278652,0.5635174855278652
0.566713001387157,0.566713001387157
0.5778973068946783,0.5778973068946783
0.5962715230856063,0.5962715230856063
0.6034614337690128,0.6034614337690128
0.5810928227539701,0.5810928227539701
0.5355567217590618,0.5355567217590618
0.49721053144755994,0.49721053144755994
0.4908194997289763,0.4908194997289763
0.4996071683420288,0.4996071683420288
0.478836315256632,0.478836315256632
0.3997472977391595,0.3997472977391595
0.29429527438252956,0.29429527438252956
0.2247928044429325,0.2247928044429325
0.20881522514647344,0.20881522514647344
0.20322307239271276,0.20322307239271276
0.15928472932745025,0.15928472932745025
0.0849889855989155,0.0849889855989155
0.020279789448256206,0.020279789448256206
-0.01247424810948492,-0.01247424810948492
-0.021261916722537418,-0.021261916722537418
-0.020463037757714464,-0.020463037757714464
-0.038038374983819456,-0.038038374983819456
-0.08996550769731149,-0.08996550769731149
-0.1474847931645642,-0.1474847931645642
-0.15147918798867896,-0.15147918798867896
-0.10514420802894762,-0.10514420802894762
-0.07718344426014422,-0.07718344426014422
-0.10514420802894762,-0.10514420802894762
-0.12911057697363626,-0.12911057697363626
-0.10594308699377057,-0.10594308699377057
-0.06999353357673763,-0.06999353357673763
-0.07718344426014422,-0.07718344426014422
-0.09875317631036398,-0.09875317631036398
-0.09875317631036398,-0.09875317631036398
-0.08836774976766558,-0.08836774976766558
-0.09955205527518694,-0.09955205527518694
-0.10434532906412466,-0.10434532906412466
-0.08117783908425899,-0.08117783908425899
-0.058010349104393316,-0.058010349104393316
-0.07638456529532127,-0.07638456529532127
-0.09795429734554104,-0.09795429734554104
-0.0827755970139049,-0.0827755970139049
-0.038038374983819456,-0.038038374983819456
-0.009278732250193102,-0.009278732250193102
0.02267642634272507,0.02267642634272507
0.08978225938785324,0.08978225938785324
0.1968320406741291,0.1968320406741291
0.3334403436588543,0.3334403436588543
0.5155847476384878,0.5155847476384878
0.740069736753738,0.740069736753738
0.9909177317081458,0.9909177317081458
1.284905190762993,1.284905190762993
1.6292220246016862,1.6292220246016862
1.9008408726414907,1.9008408726414907
1.9375893050233466,1.9375893050233466
1.826545128912956,1.826545128912956
1.9080307833248973,1.9080307833248973
2.3793693725704403,2.3793693725704403
3.0224669392529186,3.0224669392529186
3.4666436436944807,3.4666436436944807
3.5641068774028812,3.5641068774028812
3.375571441704664,3.375571441704664
2.9481711955243837,2.9481711955243837
2.30347587091226,2.30347587091226
1.5860825605012467,1.5860825605012467
1.0084930689342508,1.0084930689342508
0.6633773561307345,0.6633773561307345
0.4628587359601729,0.4628587359601729
0.2847087268046541,0.2847087268046541
0.09138001731749915,0.09138001731749915
-0.07798232322496718,-0.07798232322496718
-0.19142313622982668,-0.19142313622982668
-0.25293681652119415,-0.25293681652119415
-0.28489197511411235,-0.28489197511411235
-0.29048412786787303,-0.29048412786787303
-0.2761043065010598,-0.2761043065010598
-0.25693121134530894,-0.25693121134530894
-0.25533345341566305,-0.25533345341566305
-0.26092560616942373,-0.26092560616942373
-0.2713110327121221,-0.2713110327121221
-0.2840930961492894,-0.2840930961492894
-0.2992717964809255,-0.2992717964809255
-0.28329421718446646,-0.28329421718446646
-0.25293681652119415,-0.25293681652119415
-0.2537356954860171,-0.2537356954860171
-0.2992717964809255,-0.2992717964809255
-0.3232381654256141,-0.3232381654256141
-0.28808749097340414,-0.28808749097340414
-0.24574690583778758,-0.24574690583778758
-0.2537356954860171,-0.2537356954860171
-0.2896852489030501,-0.2896852489030501
-0.29687515958645666,-0.29687515958645666
-0.2761043065010598,-0.2761043065010598
-0.2625233640990696,-0.2625233640990696
-0.2641211220287155,-0.2641211220287155
-0.27051215374729914,-0.27051215374729914
-0.2888863699382271,-0.2888863699382271
-0.3192437706014994,-0.3192437706014994
-0.32803143921455186,-0.32803143921455186
-0.29847291751610255,-0.29847291751610255
-0.2721099116769451,-0.2721099116769451
-0.29447852269198777,-0.29447852269198777
-0.3519978081592405,-0.3519978081592405
-0.3943383932948571,-0.3943383932948571
-0.40152830397826367,-0.40152830397826367
-0.39274063536521114,-0.39274063536521114
-0.39353951433003415,-0.39353951433003415
-0.41510924638025387,-0.41510924638025387
-0.45265655772693275,-0.45265655772693275
-0.48381283735502795,-0.48381283735502795
-0.4854105952846739,-0.4854105952846739
-0.4638408632344541,-0.4638408632344541
-0.4622431053048082,-0.4622431053048082
-0.5069803273348936,-0.5069803273348936
-0.5644996128021463,-0.5644996128021463
-0.5828738289930743,-0.5828738289930743
-0.5517175493649791,-0.5517175493649791
-0.5197623907720609,-0.5197623907720609
-0.5285500593851133,-0.5285500593851133
-0.5557119441890939,-0.5557119441890939
-0.5381366069629888,-0.5381366069629888
-0.4670363790937459,-0.4670363790937459
-0.40312606190790956,-0.40312606190790956
-0.3943383932948571,-0.3943383932948571
-0.413511488450608,-0.413511488450608
-0.4079193356968473,-0.4079193356968473
-0.3663776295260537,-0.3663776295260537
-0.3072605861291551,-0.3072605861291551
-0.23616035825991213,-0.23616035825991213
-0.16905452521478395,-0.16905452521478395
-0.12911057697363626,-0.12911057697363626
-0.10035093424000989,-0.10035093424000989
-0.020463037757714464,-0.020463037757714464
0.12413405487524026,0.12413405487524026
0.2655356316489032,0.2655356316489032
0.34302689123672975,0.34302689123672975
0.390959629126107,0.390959629126107
0.46365761492499585,0.46365761492499585
0.548338785196229,0.548338785196229
0.601863675839367,0.601863675839367
0.6234334078895867,0.6234334078895867
0.634617713397108,0.634617713397108
0.6306233185729933,0.6306233185729933
0.6154446182413572,0.6154446182413572
0.6290255606433474,0.6290255606433474
0.688142604040246,0.688142604040246
0.7384719788240921,0.7384719788240921
0.7264887943517478,0.7264887943517478
0.6745616616382558,0.6745616616382558
0.6410087451156917,0.6410087451156917
0.6338188344322851,0.6338188344322851
0.6210367709951179,0.6210367709951179
0.5898804913670226,0.5898804913670226
0.5563275748444585,0.5563275748444585
0.5251712952163633,0.5251712952163633
0.4868251049048615,0.4868251049048615
0.4380934880506613,0.4380934880506613
0.3797753236185856,0.3797753236185856
0.31346836953828044,0.31346836953828044
0.2423681416690375,0.2423681416690375
0.18245221930731592,0.18245221930731592
0.1409105131365223,0.1409105131365223
0.11055311247325005,0.11055311247325005
0.07620131698586301,0.07620131698586301
0.038654005639184155,0.038654005639184155
0.008296604975911892,0.008296604975911892
-0.007680974320547193,-0.007680974320547193
-0.017267521898422646,-0.017267521898422646
-0.03164734326523582,-0.03164734326523582
-0.058010349104393316,-0.058010349104393316
-0.08517223390837377,-0.08517223390837377
-0.09475878148624921,-0.09475878148624921
-0.0739879284008524,-0.0739879284008524
-0.046027164632049,-0.046027164632049
-0.04203276980793423,-0.04203276980793423
-0.07318904943602944,-0.07318904943602944
-0.09795429734554104,-0.09795429734554104
-0.09076438666213445,-0.09076438666213445
-0.05641259117474741,-0.05641259117474741
-0.03404398015970469,-0.03404398015970469
-0.032446222230058774,-0.032446222230058774
-0.050021559456163774,-0.050021559456163774
-0.06599913875262285,-0.06599913875262285
-0.06120586496368513,-0.06120586496368513
-0.013273127074307873,-0.013273127074307873
0.025871942202016888,0.025871942202016888
0.0027044522221512128,0.0027044522221512128
-0.06120586496368513,-0.06120586496368513
-0.042831648772757185,-0.042831648772757185
0.08658674352856141,0.08658674352856141
0.2247928044429325,0.2247928044429325
0.2879042426639459,0.2879042426639459
0.3454235281311986,0.3454235281311986
0.5004060473068518,0.5004060473068518
0.7656338636280726,0.7656338636280726
1.1027607867833593,1.1027607867833593
1.479831658179794,1.479831658179794
1.8001821230737984,1.8001821230737984
1.9144218150434809,1.9144218150434809
1.826545128912956,1.826545128912956
1.7929922123903919,1.7929922123903919
2.0757953659377177,2.0757953659377177
2.644597188891661,2.644597188891661
3.204611343232552,3.204611343232552
3.5033920760763366,3.5033920760763366
3.500196560217045,3.500196560217045
3.2581362338756903,3.2581362338756903
2.7963841922080226,2.7963841922080226
2.1293202565808556,2.1293202565808556
1.3935527299789148,1.3935527299789148
0.8255497859897942,0.8255497859897942
0.5467410272665831,0.5467410272665831
0.4468811566637138,0.4468811566637138
0.32145715918650997,0.32145715918650997
0.10336320178984346,0.10336320178984346
-0.11313299767717716,-0.11313299767717716
-0.22817156861168258,-0.22817156861168258
-0.25133905859154826,-0.25133905859154826
-0.24175251101367282,-0.24175251101367282
-0.24175251101367282,-0.24175251101367282
-0.24255138997849576,-0.24255138997849576
-0.2489424216970794,-0.2489424216970794
-0.2625233640990696,-0.2625233640990696
-0.27450654857141393,-0.27450654857141393
-0.25852896927495483,-0.25852896927495483
-0.2313670844709744,-0.2313670844709744
-0.23296484240062032,-0.23296484240062032
-0.2769031854658828,-0.2769031854658828
-0.3016684333753944,-0.3016684333753944
-0.2753054275362369,-0.2753054275362369
-0.23616035825991213,-0.23616035825991213
-0.24095363204884984,-0.24095363204884984
-0.2721099116769451,-0.2721099116769451
-0.28249533821964345,-0.28249533821964345
-0.26731663788800736,-0.26731663788800736
-0.2521379375563712,-0.2521379375563712
-0.24175251101367282,-0.24175251101367282
-0.238556995154381,-0.238556995154381
-0.2601267272046007,-0.2601267272046007
-0.2976740385512796,-0.2976740385512796
-0.30406507026986324,-0.30406507026986324
-0.2665177589231844,-0.2665177589231844
-0.2433502689433187,-0.2433502689433187
-0.27450654857141393,-0.27450654857141393
-0.32004264956632233,-0.32004264956632233
-0.325634802320083,-0.325634802320083
-0.30566282819950913,-0.30566282819950913
-0.3048639492346862,-0.3048639492346862
-0.3288303181793748,-0.3288303181793748
-0.35599220298335527,-0.35599220298335527
-0.3863496036466275,-0.3863496036466275
-0.4143103674154309,-0.4143103674154309
-0.4167070043098998,-0.4167070043098998
-0.3991316670837948,-0.3991316670837948
-0.4143103674154309,-0.4143103674154309
-0.48061732149573616,-0.48061732149573616
-0.5413321228222807,-0.5413321228222807
-0.5405332438574577,-0.5405332438574577
-0.5045836904404247,-0.5045836904404247
-0.49579602182737226,-0.49579602182737226
-0.5229579066313528,-0.5229579066313528
-0.5397343648926347,-0.5397343648926347
-0.5205612697368839,-0.5205612697368839
-0.4846117163198509,-0.4846117163198509
-0.45425431565657864,-0.45425431565657864
-0.4342823415360048,-0.4342823415360048
-0.4095170936264932,-0.4095170936264932
-0.38155632985768984,-0.38155632985768984
-0.3527966871240635,-0.3527966871240635
-0.3192437706014994,-0.3192437706014994
-0.27290879064176804,-0.27290879064176804
-0.23536147929508916,-0.23536147929508916
-0.23056820550615145,-0.23056820550615145
-0.23376372136544327,-0.23376372136544327
-0.18343434658159713,-0.18343434658159713
-0.07958008115461308,-0.07958008115461308
0.005101089116620075,0.005101089116620075
0.03545848977989234,0.03545848977989234
0.0746035590562171,0.0746035590562171
0.1744634296590864,0.1744634296590864
0.29349639541770656,0.29349639541770656
0.3821719605130545,0.3821719605130545
0.46365761492499585,0.46365761492499585
0.5587242117389274,0.5587242117389274
0.6202378920302949,0.6202378920302949
0.618640134100649,0.618640134100649
0.6146457392765342,0.6146457392765342
0.6466008978694524,0.6466008978694524
0.6585840823417967,0.6585840823417967
0.6082547075579505,0.6082547075579505
0.5675118803519799,0.5675118803519799
0.6098524654875965,0.6098524654875965
0.6833493302513083,0.6833493302513083
0.6873437250754231,0.6873437250754231
0.6210367709951179,0.6210367709951179
0.5619197275982192,0.5619197275982192
0.547539906231406,0.547539906231406
0.5515343010555208,0.5515343010555208
0.5523331800203438,0.5523331800203438
0.5347578427942388,0.5347578427942388
0.4844284680103927,0.4844284680103927
0.4157248770356186,0.4157248770356186
0.3805742025834086,0.3805742025834086
0.3877641132668152,0.3877641132668152
0.37498204982964795,0.37498204982964795
0.2831109688750082,0.2831109688750082
0.1496981817495748,0.1496981817495748
0.056229342865289154,0.056229342865289154
0.03705624770953825,0.03705624770953825
0.04744167425223665,0.04744167425223665
0.03226297392060052,0.03226297392060052
-0.018865279828068553,-0.018865279828068553
-0.0739879284008524,-0.0739879284008524
-0.09715541838071808,-0.09715541838071808
-0.07718344426014422,-0.07718344426014422
-0.04442940670240309,-0.04442940670240309
-0.032446222230058774,-0.032446222230058774
-0.05880922806921627,-0.05880922806921627
-0.09795429734554104,-0.09795429734554104
-0.11313299767717716,-0.11313299767717716
-0.08836774976766558,-0.08836774976766558
-0.062004743928508084,-0.062004743928508084
-0.06919465461191468,-0.06919465461191468
-0.09475878148624921,-0.09475878148624921
-0.07958008115461308,-0.07958008115461308
-0.032446222230058774,-0.032446222230058774
-0.01646864293359969,-0.01646864293359969
-0.05880922806921627,-0.05880922806921627
-0.08996550769731149,-0.08996550769731149
-0.07318904943602944,-0.07318904943602944
-0.04123389084311128,-0.04123389084311128
-0.046027164632049,-0.046027164632049
-0.047624922561694906,-0.047624922561694906
-0.01646864293359969,-0.01646864293359969
0.025073063237193934,0.025073063237193934
0.03465961081506939,0.03465961081506939
0.06981028526727938,0.06981028526727938
0.2144073779002341,0.2144073779002341
0.4484789145933597,0.4484789145933597
0.6410087451156917,0.6410087451156917
0.7424663736482069,0.7424663736482069
0.9014432876479749,0.9014432876479749
1.284905190762993,1.284905190762993
1.7945899703200379,1.7945899703200379
2.1093482824602816,2.1093482824602816
2.0741976080080717,2.0741976080080717
1.9343937891640548,1.9343937891640548
2.0813875186914785,2.0813875186914785
2.607848756509805,2.607848756509805
3.2333709859661783,3.2333709859661783
3.617631768046019,3.617631768046019
3.6511846845685834,3.6511846845685834
3.4139176320161657,3.4139176320161657
2.9825229910117708,2.9825229910117708
2.3785704936056176,2.3785704936056176
1.665970456983542,1.665970456983542
1.0124874637583656,1.0124874637583656
0.5715062751760946,0.5715062751760946
0.34302689123672975,0.34302689123672975
0.1952342827444832,0.1952342827444832
0.019480910483433252,0.019480910483433252
-0.16985340417960693,-0.16985340417960693
-0.2960762806216337,-0.2960762806216337
-0.3352213498979585,-0.3352213498979585
-0.32483592335526007,-0.32483592335526007
-0.30566282819950913,-0.30566282819950913
-0.2800987013251746,-0.2800987013251746
-0.2641211220287155,-0.2641211220287155
-0.28089758028999756,-0.28089758028999756
-0.3312269550738437,-0.3312269550738437
-0.3567910819481782,-0.3567910819481782
-0.3328247130034896,-0.3328247130034896
-0.28648973304375824,-0.28648973304375824
-0.27051215374729914,-0.27051215374729914
-0.2697132747824762,-0.2697132747824762
-0.2697132747824762,-0.2697132747824762
-0.2777020644307058,-0.2777020644307058
-0.30406507026986324,-0.30406507026986324
-0.31604825474220755,-0.31604825474220755
-0.3072605861291551,-0.3072605861291551
-0.31844489163667644,-0.31844489163667644
-0.35838883987782416,-0.35838883987782416
-0.35998659780747005,-0.35998659780747005
-0.291283006832696,-0.291283006832696
-0.22897044757650553,-0.22897044757650553
-0.24574690583778758,-0.24574690583778758
-0.308059465093978,-0.308059465093978
-0.3376179867924273,-0.3376179867924273
-0.33202583403866665,-0.33202583403866665
-0.32643368128490596,-0.32643368128490596
-0.33042807610902075,-0.33042807610902075
-0.3408135026517191,-0.3408135026517191
-0.38315408778733573,-0.38315408778733573
-0.4414722522194114,-0.4414722522194114
-0.4494610418676409,-0.4494610418676409
-0.3919417564003882,-0.3919417564003882
-0.35998659780747005,-0.35998659780747005
-0.4159081253450768,-0.4159081253450768
-0.4989915376866641,-0.4989915376866641
-0.5221590276665298,-0.5221590276665298
-0.49979041665148705,-0.49979041665148705
-0.49819265872184115,-0.49819265872184115
-0.5237567855961757,-0.5237567855961757
-0.5421310017871036,-0.5421310017871036
-0.5573097021187398,-0.5573097021187398
-0.5956558924302415,-0.5956558924302415
-0.6387953565306811,-0.6387953565306811
-0.6515774199678483,-0.6515774199678483
-0.6340020827417434,-0.6340020827417434
-0.6124323506915236,-0.6124323506915236
-0.5916614976061267,-0.5916614976061267
-0.5644996128021463,-0.5644996128021463
-0.5405332438574577,-0.5405332438574577
-0.5325444542092281,-0.5325444542092281
-0.5269523014554675,-0.5269523014554675
-0.5013881745811329,-0.5013881745811329
-0.45105879979728686,-0.45105879979728686
-0.395936151224503,-0.395936151224503
-0.3488022922999487,-0.3488022922999487
-0.31285273888291576,-0.31285273888291576
-0.2800987013251746,-0.2800987013251746
-0.238556995154381,-0.238556995154381
-0.17304892003889874,-0.17304892003889874
-0.07558568633049831,-0.07558568633049831
0.038654005639184155,0.038654005639184155
0.1305250865938239,0.1305250865938239
0.18005558241284708,0.18005558241284708
0.22878719926704727,0.22878719926704727
0.32944594883473954,0.32944594883473954
0.44768003562853675,0.44768003562853675
0.49161837869379926,0.49161837869379926
0.44608227769889086,0.44608227769889086
0.4157248770356186,0.4157248770356186
0.46685313078428764,0.46685313078428764
0.5355567217590618,0.5355567217590618
0.5443443903721142,0.5443443903721142
0.5259701741811863,0.5259701741811863
0.5531320589851667,0.5531320589851667
0.6074558285931276,0.6074558285931276
0.6226345289247638,0.6226345289247638
0.5914782492966686,0.5914782492966686
0.5555286958796356,0.5555286958796356
0.5227746583218945,0.5227746583218945
0.47963519422145495,0.47963519422145495
0.43969124598030723,0.43969124598030723
0.41812151393008745,0.41812151393008745
0.3949540239502218,0.3949540239502218
0.3398313753774379,0.3398313753774379
0.26953002647301794,0.26953002647301794
0.22079840961881775,0.22079840961881775
0.19842979860377502,0.19842979860377502
0.17286567172944048,0.17286567172944048
0.12573181280488618,0.12573181280488618
0.05782710079493506,0.05782710079493506
-0.011675369144661964,-0.011675369144661964
-0.052418196350632634,-0.052418196350632634
-0.046027164632049,-0.046027164632049
-0.020463037757714464,-0.020463037757714464
-0.026854069476298096,-0.026854069476298096
-0.07638456529532127,-0.07638456529532127
-0.11712739250129194,-0.11712739250129194
-0.10274757113447876,-0.10274757113447876
-0.05401595428027854,-0.05401595428027854
-0.03963613291346536,-0.03963613291346536
-0.08037896011943603,-0.08037896011943603
-0.12911057697363626,-0.12911057697363626
-0.12271954525505262,-0.12271954525505262
-0.07318904943602944,-0.07318904943602944
-0.03883725394864241,-0.03883725394864241
-0.05641259117474741,-0.05641259117474741
-0.08676999183801967,-0.08676999183801967
-0.09875317631036398,-0.09875317631036398
-0.09635653941589511,-0.09635653941589511
-0.09395990252142626,-0.09395990252142626
-0.06839577564709172,-0.06839577564709172
-0.0372394960189965,-0.0372394960189965
-0.03404398015970469,-0.03404398015970469
-0.06759689668226877,-0.06759689668226877
-0.06440138082297694,-0.06440138082297694
-0.0004910636371406046,-0.0004910636371406046
0.07540243802104006,0.07540243802104006
0.12972620762900094,0.12972620762900094
0.22239616754846364,0.22239616754846364
0.3957529029150447,0.3957529029150447
0.5946737651559604,0.5946737651559604
0.7704271374170103,0.7704271374170103
0.9941132475674376,0.9941132475674376
1.3592009344915277,1.3592009344915277
1.790595575495923,1.790595575495923
2.0781920028321865,2.0781920028321865
2.117337072108511,2.117337072108511
2.0757953659377177,2.0757953659377177
2.230777885113371,2.230777885113371
2.6733568316252874,2.6733568316252874
3.2157956487400736,3.2157956487400736
3.597659793925445,3.597659793925445
3.6951230276338456,3.6951230276338456
3.5017943181466906,3.5017943181466906
3.0248635761473874,3.0248635761473874
2.3074702657363746,2.3074702657363746
1.5141834536671808,1.5141834536671808
0.8694881290550567,0.8694881290550567
0.47963519422145495,0.47963519422145495
0.2671333895785491,0.2671333895785491
0.09457553317679096,0.09457553317679096
-0.09236214459178035,-0.09236214459178035
-0.24095363204884984,-0.24095363204884984
-0.2920818857975189,-0.2920818857975189
-0.25693121134530894,-0.25693121134530894
-0.21778614206898417,-0.21778614206898417
-0.22976932654132848,-0.22976932654132848
-0.27290879064176804,-0.27290879064176804
-0.2840930961492894,-0.2840930961492894
-0.2641211220287155,-0.2641211220287155
-0.25293681652119415,-0.25293681652119415
-0.2769031854658828,-0.2769031854658828
-0.291283006832696,-0.291283006832696
-0.28089758028999756,-0.28089758028999756
-0.2641211220287155,-0.2641211220287155
-0.26731663788800736,-0.26731663788800736
-0.2593278482397778,-0.2593278482397778
-0.23536147929508916,-0.23536147929508916
-0.2345626003302662,-0.2345626003302662
-0.2713110327121221,-0.2713110327121221
-0.291283006832696,-0.291283006832696
-0.2601267272046007,-0.2601267272046007
-0.22897044757650553,-0.22897044757650553
-0.25133905859154826,-0.25133905859154826
-0.28808749097340414,-0.28808749097340414
-0.27929982236035167,-0.27929982236035167
-0.24574690583778758,-0.24574690583778758
-0.24255138997849576,-0.24255138997849576
-0.26891439581765325,-0.26891439581765325
-0.2856908540789353,-0.2856908540789353
-0.2840930961492894,-0.2840930961492894
-0.2800987013251746,-0.2800987013251746
-0.27290879064176804,-0.27290879064176804
-0.2681155168528303,-0.2681155168528303
-0.2960762806216337,-0.2960762806216337
-0.35838883987782416,-0.35838883987782416
-0.4023271829430866,-0.4023271829430866
-0.39114287743556525,-0.39114287743556525
-0.36158435573711595,-0.36158435573711595
-0.37037202435016847,-0.37037202435016847
-0.4143103674154309,-0.4143103674154309
-0.4590475894455164,-0.4590475894455164
-0.48940499010878863,-0.48940499010878863
-0.5077792062997166,-0.5077792062997166
-0.5109747221590084,-0.5109747221590084
-0.5053825694052477,-0.5053825694052477
-0.5149691169831232,-0.5149691169831232
-0.5477231545408643,-0.5477231545408643
-0.5652984917669693,-0.5652984917669693
-0.5405332438574577,-0.5405332438574577
-0.49979041665148705,-0.49979041665148705
-0.4918016270032575,-0.4918016270032575
-0.5133713590534773,-0.5133713590534773
-0.5229579066313528,-0.5229579066313528
-0.48940499010878863,-0.48940499010878863
-0.4270924308525982,-0.4270924308525982
-0.3711709033149914,-0.3711709033149914
-0.33602022886278143,-0.33602022886278143
-0.3112549809532698,-0.3112549809532698
-0.2840930961492894,-0.2840930961492894
-0.24654578480261052,-0.24654578480261052
-0.19701528898358736,-0.19701528898358736
-0.13230609283292807,-0.13230609283292807
-0.07318904943602944,-0.07318904943602944
-0.03644061705417355,-0.03644061705417355
0.005101089116620075,0.005101089116620075
0.10735759661395823,0.10735759661395823
0.2575468420006736,0.2575468420006736
0.37498204982964795,0.37498204982964795
0.4229147877190252,0.4229147877190252
0.46205985699534996,0.46205985699534996
0.5419477534776453,0.5419477534776453
0.6146457392765342,0.6146457392765342
0.6258300447840556,0.6258300447840556
0.6090535865227735,0.6090535865227735
0.6130479813468883,0.6130479813468883
0.6210367709951179,0.6210367709951179
0.617841255135826,0.617841255135826
0.6410087451156917,0.6410087451156917
0.6985280305829444,0.6985280305829444
0.7192988836683413,0.7192988836683413
0.6625784771659115,0.6625784771659115
0.6034614337690128,0.6034614337690128
0.6098524654875965,0.6098524654875965
0.6338188344322851,0.6338188344322851
0.6034614337690128,0.6034614337690128
0.5443443903721142,0.5443443903721142
0.513188110744019,0.513188110744019
0.495612773517914,0.495612773517914
0.4468811566637138,0.4468811566637138
0.38456859740752336,0.38456859740752336
0.3462224070960216,0.3462224070960216
0.31506612746792634,0.31506612746792634
0.2535524471765589,0.2535524471765589
0.1832510982721389,0.1832510982721389
0.13531836038276163,0.13531836038276163
0.1041620807546664,0.1041620807546664
0.06022373768940392,0.06022373768940392
0.0186820315186103,0.0186820315186103
0.0035033311869741668,0.0035033311869741668
0.008296604975911892,0.008296604975911892
0.001106694292505304,0.001106694292505304
-0.0180664008632456,-0.0180664008632456
-0.03404398015970469,-0.03404398015970469
-0.03404398015970469,-0.03404398015970469
-0.032446222230058774,-0.032446222230058774
-0.030848464300412867,-0.030848464300412867
-0.02925070637076696,-0.02925070637076696
-0.026854069476298096,-0.026854069476298096
-0.03644061705417355,-0.03644061705417355
-0.050021559456163774,-0.050021559456163774
-0.05321707531545559,-0.05321707531545559
-0.028451827405944007,-0.028451827405944007
0.0003078153276823497,0.0003078153276823497
0.0035033311869741668,0.0035033311869741668
-0.026055190511475142,-0.026055190511475142
-0.042831648772757185,-0.042831648772757185
-0.021261916722537418,-0.021261916722537418
0.02267642634272507,0.02267642634272507
0.027469700131662795,0.027469700131662795
-0.010077611215016056,-0.010077611215016056
-0.03164734326523582,-0.03164734326523582
0.04025176356883006,0.04025176356883006
0.18165334034249297,0.18165334034249297
0.303082942995582,0.303082942995582
0.3629988653573036,0.3629988653573036
0.43409909322654655,0.43409909322654655
0.6106513444524194,0.6106513444524194
0.9150242300499651,0.9150242300499651
1.2944917383408685,1.2944917383408685
1.6579816673353127,1.6579816673353127
1.8848632933450316,1.8848632933450316
1.913622936078658,1.913622936078658
1.859299166470697,1.859299166470697
1.9791310111941403,1.9791310111941403
2.40892789426889,2.40892789426889
2.994506175484115,2.994506175484115
3.444275032679438,3.444275032679438
3.5944642780661535,3.5944642780661535
3.462649248870366,3.462649248870366
3.102354835735214,3.102354835735214
2.527161981062687,2.527161981062687
1.8057742758275592,1.8057742758275592
1.1235316398687563,1.1235316398687563
0.6769582985327246,0.6769582985327246
0.4868251049048615,0.4868251049048615
0.38856299223163815,0.38856299223163815
0.21760289375952593,0.21760289375952593
-0.022859674652183325,-0.022859674652183325
-0.21139511035040054,-0.21139511035040054
-0.27290879064176804,-0.27290879064176804
-0.25293681652119415,-0.25293681652119415
-0.22657381068203666,-0.22657381068203666
-0.23296484240062032,-0.23296484240062032
-0.25533345341566305,-0.25533345341566305
-0.2761043065010598,-0.2761043065010598
-0.27929982236035167,-0.27929982236035167
-0.27450654857141393,-0.27450654857141393
-0.2697132747824762,-0.2697132747824762
-0.28329421718446646,-0.28329421718446646
-0.30086955441057145,-0.30086955441057145
-0.30646170716433213,-0.30646170716433213
-0.2800987013251746,-0.2800987013251746
-0.2537356954860171,-0.2537356954860171
-0.2593278482397778,-0.2593278482397778
-0.291283006832696,-0.291283006832696
-0.2960762806216337,-0.2960762806216337
-0.26332224306389257,-0.26332224306389257
-0.24494802687296463,-0.24494802687296463
-0.26492000099353846,-0.26492000099353846
-0.2777020644307058,-0.2777020644307058
-0.2617244851342467,-0.2617244851342467
-0.2665177589231844,-0.2665177589231844
-0.308059465093978,-0.308059465093978
-0.3224392864607912,-0.3224392864607912
-0.2777020644307058,-0.2777020644307058
-0.24974130066190234,-0.24974130066190234
-0.29288076476234187,-0.29288076476234187
-0.34001462368689617,-0.34001462368689617
-0.32483592335526007,-0.32483592335526007
-0.2992717964809255,-0.2992717964809255
-0.3312269550738437,-0.3312269550738437
-0.3847518457169816,-0.3847518457169816
-0.40152830397826367,-0.40152830397826367
-0.4103159725913162,-0.4103159725913162
-0.44706440497317207,-0.44706440497317207
-0.47182965288268364,-0.47182965288268364
-0.45265655772693275,-0.45265655772693275
-0.447863283937995,-0.447863283937995
-0.5069803273348936,-0.5069803273348936
-0.5652984917669693,-0.5652984917669693
-0.5565108231539168,-0.5565108231539168
-0.5213601487017068,-0.5213601487017068
-0.53573997006852,-0.53573997006852
-0.5804771920986054,-0.5804771920986054
-0.5908626186413038,-0.5908626186413038
-0.5644996128021463,-0.5644996128021463
-0.5445276386815725,-0.5445276386815725
-0.5365388490333429,-0.5365388490333429
-0.5205612697368839,-0.5205612697368839
-0.49819265872184115,-0.49819265872184115
-0.47822068460126727,-0.47822068460126727
-0.44067337325458844,-0.44067337325458844
-0.38794736157627346,-0.38794736157627346
-0.35599220298335527,-0.35599220298335527
-0.35998659780747005,-0.35998659780747005
-0.3464056554054798,-0.3464056554054798
-0.273707669606591,-0.273707669606591
-0.16985340417960693,-0.16985340417960693
-0.08996550769731149,-0.08996550769731149
-0.032446222230058774,-0.032446222230058774
0.04744167425223665,0.04744167425223665
0.16887127690532572,0.16887127690532572
0.3022840640307591,0.3022840640307591
0.41013272428185793,0.41013272428185793
0.48123295215110085,0.48123295215110085
0.5243724162515404,0.5243724162515404
0.5451432693369372,0.5451432693369372
0.5491376641610519,0.5491376641610519
0.5611208486333963,0.5611208486333963
0.5994670389448981,0.5994670389448981
0.6394109871860458,0.6394109871860458
0.6362154713267539,0.6362154713267539
0.6114502234172424,0.6114502234172424
0.6378132292563999,0.6378132292563999
0.7129078519497576,0.7129078519497576
0.7328798260703314,0.7328798260703314
0.6521930506232131,0.6521930506232131
0.5611208486333963,0.5611208486333963
0.5531320589851667,0.5531320589851667
0.5842883386132619,0.5842883386132619
0.5723051541409176,0.5723051541409176
0.5219757793570715,0.5219757793570715
0.4716464045732254,0.4716464045732254
0.41252936117632677,0.41252936117632677
0.338233617447792,0.338233617447792
0.3022840640307591,0.3022840640307591
0.31107173264381155,0.31107173264381155
0.27592105819160156,0.27592105819160156
0.14730154485510594,0.14730154485510594
0.021078668413079163,0.021078668413079163
-0.005284337426078331,-0.005284337426078331
0.027469700131662795,0.027469700131662795
0.01708427358896439,0.01708427358896439
-0.03963613291346536,-0.03963613291346536
-0.0827755970139049,-0.0827755970139049
-0.09475878148624921,-0.09475878148624921
-0.09635653941589511,-0.09635653941589511
-0.08117783908425899,-0.08117783908425899
-0.05561371220992445,-0.05561371220992445
-0.058010349104393316,-0.058010349104393316
-0.10114981320483285,-0.10114981320483285
-0.12351842421987556,-0.12351842421987556
-0.0915632656269574,-0.0915632656269574
-0.054814833245101495,-0.054814833245101495
-0.07798232322496718,-0.07798232322496718
-0.12431730318469852,-0.12431730318469852
-0.1299094559384592,-0.1299094559384592
-0.08916662873248853,-0.08916662873248853
-0.054814833245101495,-0.054814833245101495
-0.050021559456163774,-0.050021559456163774
-0.0652002597877999,-0.0652002597877999
-0.07159129150638353,-0.07159129150638353
-0.0739879284008524,-0.0739879284008524
-0.06599913875262285,-0.06599913875262285
-0.050021559456163774,-0.050021559456163774
-0.014870885003953782,-0.014870885003953782
0.025871942202016888,0.025871942202016888
0.08898338042303028,0.08898338042303028
0.22878719926704727,0.22878719926704727
0.4644564938898188,0.4644564938898188
0.688142604040246,0.688142604040246
0.7943935063616989,0.7943935063616989
0.8942533769645683,0.8942533769645683
1.2114083259992812,1.2114083259992812
1.6971267366116374,1.6971267366116374
1.9887175587720156,1.9887175587720156
1.9040363885007825,1.9040363885007825
1.7458583534658376,1.7458583534658376
1.9280027574454712,1.9280027574454712
2.4688438166306113,2.4688438166306113
3.0568187347403057,3.0568187347403057
3.4506660643980216,3.4506660643980216
3.582481093593809,3.582481093593809
3.407526600297582,3.407526600297582
2.9082272472832362,2.9082272472832362
2.208409274098328,2.208409274098328
1.5189767274561186,1.5189767274561186
0.9765379103413326,0.9765379103413326
0.6138468603117112,0.6138468603117112
0.4157248770356186,0.4157248770356186
0.303082942995582,0.303082942995582
0.16168136622191912,0.16168136622191912
