ECG,PPG
0.96445569470893,0.96445569470893
1.3709659823455485,1.3709659823455485
1.504963817899841,1.504963817899841
1.4793687257153132,1.4793687257153132
1.4560320240176556,1.4560320240176556
1.4628071954782658,1.4628071954782658
1.444740071583305,1.444740071583305
1.3912914967273793,1.3912914967273793
1.361932420398068,1.361932420398068
1.3837635284378123,1.3837635284378123
1.40710023013547,1.40710023013547
1.3694603886876349,1.3694603886876349
1.294180705791965,1.294180705791965
1.2557880675151731,1.2557880675151731
1.2843943470155277,1.2843943470155277
1.3273037662660596,1.3273037662660596
1.3408541091872803,1.3408541091872803
1.3325733440687566,1.3325733440687566
1.344618093332064,1.344618093332064
1.3799995442930288,1.3799995442930288
1.4086058237933834,1.4086058237933834
1.4010778555038164,1.4010778555038164
1.3679547950297215,1.3679547950297215
1.3348317345556266,1.3348317345556266
1.3160118138317092,1.3160118138317092
1.2896639248182247,1.2896639248182247
1.2557880675151731,1.2557880675151731
1.2377209436202123,1.2377209436202123
1.2700912072653505,1.2700912072653505
1.3227869852923195,1.3227869852923195
1.3423597028451937,1.3423597028451937
1.3002030804236184,1.3002030804236184
1.243743318251866,1.243743318251866
1.226428991185862,1.226428991185862
1.2603048484889134,1.2603048484889134
1.306225455055272,1.306225455055272
1.3423597028451937,1.3423597028451937
1.3626852172270247,1.3626852172270247
1.3732243728324185,1.3732243728324185
1.3596740299111978,1.3596740299111978
1.326550969437103,1.326550969437103
1.2881583311603113,1.2881583311603113
1.2715968009232639,1.2715968009232639
1.2678328167784805,1.2678328167784805
1.2640688326336968,1.2640688326336968
1.2580464580020432,1.2580464580020432
1.2715968009232639,1.2715968009232639
1.2926751121340514,1.2926751121340514
1.286652737502398,1.286652737502398
1.230945772159602,1.230945772159602
1.1699692290141093,1.1699692290141093
1.1519021051191485,1.1519021051191485
1.1872835560801134,1.1872835560801134
1.2256761943569052,1.2256761943569052
1.2369681467912557,1.2369681467912557
1.2241706006989916,1.2241706006989916
1.2196538197252516,1.2196538197252516
1.2294401785016886,1.2294401785016886
1.2520240833703897,1.2520240833703897
1.266327223120567,1.266327223120567
1.2693384104363938,1.2693384104363938
1.2572936611730865,1.2572936611730865
1.2399793341070824,1.2399793341070824
1.2113730546067278,1.2113730546067278
1.1850251655932433,1.1850251655932433
1.175991603645763,1.175991603645763
1.2068562736329875,1.2068562736329875
1.2610576453178701,1.2610576453178701
1.3054726582263154,1.3054726582263154
1.3054726582263154,1.3054726582263154
1.2700912072653505,1.2700912072653505
1.226428991185862,1.226428991185862
1.1985755085144638,1.1985755085144638
1.1744860099878496,1.1744860099878496
1.1481381209743649,1.1481381209743649
1.1338349812241877,1.1338349812241877
1.1639468543824556,1.1639468543824556
1.2106202577777712,1.2106202577777712
1.223417803870035,1.223417803870035
1.18351957193533,1.18351957193533
1.1519021051191485,1.1519021051191485
1.1646996512114123,1.1646996512114123
1.1940587275407237,1.1940587275407237
1.1827667751063733,1.1827667751063733
1.1413629495137547,1.1413629495137547
1.1112510763554866,1.1112510763554866
1.1165206541581836,1.1165206541581836
1.1240486224477506,1.1240486224477506
1.1135094668423566,1.1135094668423566
1.0856559841709588,1.0856559841709588
1.0645776729601713,1.0645776729601713
1.0555441110126909,1.0555441110126909
1.0668360634470413,1.0668360634470413
1.090172765144699,1.090172765144699
1.1210374351319237,1.1210374351319237
1.1398573558558411,1.1398573558558411
1.1413629495137547,1.1413629495137547
1.1345877780531444,1.1345877780531444
1.1481381209743649,1.1481381209743649
1.1895419465669834,1.1895419465669834
1.2414849277649957,1.2414849277649957
1.2640688326336968,1.2640688326336968
1.2542824738572598,1.2542824738572598
1.2414849277649957,1.2414849277649957
1.2723495977522206,1.2723495977522206
1.3385957187004103,1.3385957187004103
1.3950554808721627,1.3950554808721627
1.389785903069466,1.389785903069466
1.3257981726081463,1.3257981726081463
1.2422377245939527,1.2422377245939527
1.1842723687642867,1.1842723687642867
1.1616884638955856,1.1616884638955856
1.1639468543824556,1.1639468543824556
1.1624412607245422,1.1624412607245422
1.1398573558558411,1.1398573558558411
1.0833975936840887,1.0833975936840887
1.0141402854200723,1.0141402854200723
0.9448829771560557,0.9448829771560557
0.8944455896159568,0.8944455896159568
0.8733672784051691,0.8733672784051691
0.8869176213263897,0.8869176213263897
0.9185350881425712,0.9185350881425712
0.9418717898402289,0.9418717898402289
0.9524109454456228,0.9524109454456228
0.9629501010510165,0.9629501010510165
0.9531637422745795,0.9531637422745795
0.8982095737607403,0.8982095737607403
0.8274466718388105,0.8274466718388105
0.8394914211021176,0.8394914211021176
0.9697252725116269,0.9697252725116269
1.1549132924349752,1.1549132924349752
1.3160118138317092,1.3160118138317092
1.474851944741573,1.474851944741573
1.663803948809705,1.663803948809705
1.7985545811929544,1.7985545811929544
1.6878934473363194,1.6878934473363194
1.238473740449169,1.238473740449169
0.5797765151120559,0.5797765151120559
0.004639737789136466,0.004639737789136466
-0.26335593331944895,-0.26335593331944895
-0.20388498383186962,-0.20388498383186962
0.026470845828880787,0.026470845828880787
0.26962422158189514,0.26962422158189514
0.4608346161368971,0.4608346161368971
0.6181691533888476,0.6181691533888476
0.7499085984562702,0.7499085984562702
0.8312106559835939,0.8312106559835939
0.8274466718388105,0.8274466718388105
0.7672229255222743,0.7672229255222743
0.7265718967586124,0.7265718967586124
0.7739980969828847,0.7739980969828847
0.8793896530368228,0.8793896530368228
0.9584333200772763,0.9584333200772763
0.9606917105641465,0.9606917105641465
0.9320854310637918,0.9320854310637918
0.9245574627742248,0.9245574627742248
0.9411189930112722,0.9411189930112722
0.9388606025244022,0.9388606025244022
0.9162766976557011,0.9162766976557011
0.89143440230013,0.89143440230013
0.8771312625499527,0.8771312625499527
0.8658393101156022,0.8658393101156022
0.8620753259708187,0.8620753259708187
0.8846592308395197,0.8846592308395197
0.9350966183796187,0.9350966183796187
0.9712308661695402,0.9712308661695402
0.9629501010510165,0.9629501010510165
0.9298270405769218,0.9298270405769218
0.929074243747965,0.929074243747965
0.9674668820247567,0.9674668820247567
1.002095536156765,1.002095536156765
0.9930619742092845,0.9930619742092845
0.9712308661695402,0.9712308661695402
0.9659612883668434,0.9659612883668434
0.9757476471432804,0.9757476471432804
0.9765004439722372,0.9765004439722372
0.9855340059197176,0.9855340059197176
1.009623504446332,1.009623504446332
1.0231738473675527,1.0231738473675527
0.9953203646961547,0.9953203646961547
0.956927726419363,0.956927726419363
0.9546693359324928,0.9546693359324928
0.9975787551830247,0.9975787551830247
1.0412409712625135,1.0412409712625135
1.0532857205258206,1.0532857205258206
1.032207409315033,1.032207409315033
1.005106723472592,1.005106723472592
0.9862868027486743,0.9862868027486743
0.9938147710382413,0.9938147710382413
1.029949018828163,1.029949018828163
1.0833975936840887,1.0833975936840887
1.1044759048948762,1.1044759048948762
1.062319282473301,1.062319282473301
0.9787588344591073,0.9787588344591073
0.9245574627742248,0.9245574627742248
0.9260630564321383,0.9260630564321383
0.9433773834981424,0.9433773834981424
0.9222990722873547,0.9222990722873547
0.8831536371816063,0.8831536371816063
0.8801424498657795,0.8801424498657795
0.9328382278927485,0.9328382278927485
0.9900507868934578,0.9900507868934578
1.007365113959462,1.007365113959462
0.9877923964065877,0.9877923964065877
0.9727364598274537,0.9727364598274537
0.9749948503143238,0.9749948503143238
0.9817700217749341,0.9817700217749341
0.9780060376301506,0.9780060376301506
0.9810172249459774,0.9810172249459774
1.0036011298146783,1.0036011298146783
1.032207409315033,1.032207409315033
1.026937831512336,1.026937831512336
0.9817700217749341,0.9817700217749341
0.926815853261095,0.926815853261095
0.906490338879264,0.906490338879264
0.9215462754583981,0.9215462754583981
0.956927726419363,0.956927726419363
0.9975787551830247,0.9975787551830247
1.0419937680914702,1.0419937680914702
1.0615664856443443,1.0615664856443443
1.0254322378544227,1.0254322378544227
0.9493997581297959,0.9493997581297959
0.9102543230240475,0.9102543230240475
0.9456357739850124,0.9456357739850124
1.011881894933202,1.011881894933202
1.0284434251702494,1.0284434251702494
0.9892979900645011,0.9892979900645011
0.9441301803270991,0.9441301803270991
0.9358494152085753,0.9358494152085753
0.9441301803270991,0.9441301803270991
0.9396133993533589,0.9396133993533589
0.9162766976557011,0.9162766976557011
0.8951983864449135,0.8951983864449135
0.8906816054711733,0.8906816054711733
0.9079959325371774,0.9079959325371774
0.9313326342348351,0.9313326342348351
0.9539165391035361,0.9539165391035361
0.9659612883668434,0.9659612883668434
0.9749948503143238,0.9749948503143238
0.9772532408011939,0.9772532408011939
0.979511631288064,0.979511631288064
0.9840284122618042,0.9840284122618042
0.9923091773803279,0.9923091773803279
0.9832756154328475,0.9832756154328475
0.9509053517877094,0.9509053517877094
0.9222990722873547,0.9222990722873547
0.9373550088664887,0.9373550088664887
0.9749948503143238,0.9749948503143238
0.9719836629984969,0.9719836629984969
0.9087487293661342,0.9087487293661342
0.8583113418260352,0.8583113418260352
0.8876704181553465,0.8876704181553465
0.9727364598274537,0.9727364598274537
1.0179042695648557,1.0179042695648557
0.9877923964065877,0.9877923964065877
0.9313326342348351,0.9313326342348351
0.9215462754583981,0.9215462754583981
0.9509053517877094,0.9509053517877094
0.9704780693405836,0.9704780693405836
0.9546693359324928,0.9546693359324928
0.9388606025244022,0.9388606025244022
0.9486469613008393,0.9486469613008393
0.9667140851958,0.9667140851958
0.9471413676429259,0.9471413676429259
0.9019735579055238,0.9019735579055238
0.8801424498657795,0.8801424498657795
0.9155239008267444,0.9155239008267444
0.9614445073931032,0.9614445073931032
0.9599389137351898,0.9599389137351898
0.904231948392394,0.904231948392394
0.8583113418260352,0.8583113418260352
0.8613225291418619,0.8613225291418619
0.89143440230013,0.89143440230013
0.9004679642476104,0.9004679642476104
0.8846592308395197,0.8846592308395197
0.8696032942603856,0.8696032942603856
0.8861648244974331,0.8861648244974331
0.9441301803270991,0.9441301803270991
1.0472633458941671,1.0472633458941671
1.1549132924349752,1.1549132924349752
1.2068562736329875,1.2068562736329875
1.1774971973036763,1.1774971973036763
1.1187790446450536,1.1187790446450536
1.0969479366053092,1.0969479366053092
1.1285654034214907,1.1285654034214907
1.165452448040369,1.165452448040369
1.170722025843066,1.170722025843066
1.140610152684798,1.140610152684798
1.0916783588026124,1.0916783588026124
1.0284434251702494,1.0284434251702494
0.9674668820247567,0.9674668820247567
0.9335910247217052,0.9335910247217052
0.9584333200772763,0.9584333200772763
1.017151472735899,1.017151472735899
1.0510273300389505,1.0510273300389505
1.014893082249029,1.014893082249029
0.929074243747965,0.929074243747965
0.8319634528125507,0.8319634528125507
0.7468974111404434,0.7468974111404434
0.687426461652864,0.687426461652864
0.6753817123895568,0.6753817123895568
0.7062463823767815,0.7062463823767815
0.7461446143114867,0.7461446143114867
0.7596949572327073,0.7596949572327073
0.760447754061664,0.760447754061664
0.7596949572327073,0.7596949572327073
0.752919785772097,0.752919785772097
0.7416278333377465,0.7416278333377465
0.7762564874697547,0.7762564874697547
0.8951983864449135,0.8951983864449135
1.0894199683157424,1.0894199683157424
1.3092366423710988,1.3092366423710988
1.5192669576500184,1.5192669576500184
1.663803948809705,1.663803948809705
1.6404672471120472,1.6404672471120472
1.337090125042497,1.337090125042497
0.773245300153928,0.773245300153928
0.1386375733434292,0.1386375733434292
-0.29572619696458713,-0.29572619696458713
-0.38681461326834793,-0.38681461326834793
-0.1956042187133459,-0.1956042187133459
0.09798654457976735,0.09798654457976735
0.3614654347146126,0.3614654347146126
0.5534286260985712,0.5534286260985712
0.6866736648239073,0.6866736648239073
0.7627061445485341,0.7627061445485341
0.7822788621014084,0.7822788621014084
0.7536725826010536,0.7536725826010536
0.7122687570084352,0.7122687570084352
0.6911904457976475,0.6911904457976475
0.7160327411532187,0.7160327411532187
0.775503690640798,0.775503690640798
0.833469046470464,0.833469046470464
0.8455137957337713,0.8455137957337713
0.8101323447728063,0.8101323447728063
0.7634589413774908,0.7634589413774908
0.7596949572327073,0.7596949572327073
0.8041099701411527,0.8041099701411527
0.8635809196287321,0.8635809196287321
0.8921871991290867,0.8921871991290867
0.8869176213263897,0.8869176213263897
0.8711088879182991,0.8711088879182991
0.8620753259708187,0.8620753259708187
0.8530417640233383,0.8530417640233383
0.8394914211021176,0.8394914211021176
0.8289522654967239,0.8289522654967239
0.8432554052469011,0.8432554052469011
0.8718616847472558,0.8718616847472558
0.8906816054711733,0.8906816054711733
0.8816480435236929,0.8816480435236929
0.8680977006024723,0.8680977006024723
0.8733672784051691,0.8733672784051691
0.9004679642476104,0.9004679642476104
0.9207934786294413,0.9207934786294413
0.9222990722873547,0.9222990722873547
0.906490338879264,0.906490338879264
0.8936927927870001,0.8936927927870001
0.8929399959580434,0.8929399959580434
0.9110071198530042,0.9110071198530042
0.9283214469190083,0.9283214469190083
0.9245574627742248,0.9245574627742248
0.8951983864449135,0.8951983864449135
0.8748728720630826,0.8748728720630826
0.883906434010563,0.883906434010563
0.9177822913136146,0.9177822913136146
0.9471413676429259,0.9471413676429259
0.9621973042220598,0.9621973042220598
0.9576805232483196,0.9576805232483196
0.9433773834981424,0.9433773834981424
0.9260630564321383,0.9260630564321383
0.9238046659452681,0.9238046659452681
0.9335910247217052,0.9335910247217052
0.9373550088664887,0.9373550088664887
0.9222990722873547,0.9222990722873547
0.9095015261950908,0.9095015261950908
0.9177822913136146,0.9177822913136146
0.9426245866691857,0.9426245866691857
0.9606917105641465,0.9606917105641465
0.96445569470893,0.96445569470893
0.9546693359324928,0.9546693359324928
0.936602212037532,0.936602212037532
0.906490338879264,0.906490338879264
0.876378465720996,0.876378465720996
0.8545473576812517,0.8545473576812517
0.848524983049598,0.848524983049598
0.8522889671943815,0.8522889671943815
0.8658393101156022,0.8658393101156022
0.883906434010563,0.883906434010563
0.9027263547344805,0.9027263547344805
0.9110071198530042,0.9110071198530042
0.9095015261950908,0.9095015261950908
0.904231948392394,0.904231948392394
0.9095015261950908,0.9095015261950908
0.9215462754583981,0.9215462754583981
0.9298270405769218,0.9298270405769218
0.9200406818004846,0.9200406818004846
0.9012207610765671,0.9012207610765671
0.8876704181553465,0.8876704181553465
0.898962370589697,0.898962370589697
0.929074243747965,0.929074243747965
0.9621973042220598,0.9621973042220598
0.9719836629984969,0.9719836629984969
0.956927726419363,0.956927726419363
0.9207934786294413,0.9207934786294413
0.8854120276684764,0.8854120276684764
0.8598169354839486,0.8598169354839486
0.8507833735364682,0.8507833735364682
0.8515361703654248,0.8515361703654248
0.8620753259708187,0.8620753259708187
0.8771312625499527,0.8771312625499527
0.8951983864449135,0.8951983864449135
0.8997151674186536,0.8997151674186536
0.8861648244974331,0.8861648244974331
0.8583113418260352,0.8583113418260352
0.8440082020758578,0.8440082020758578
0.8530417640233383,0.8530417640233383
0.8756256688920393,0.8756256688920393
0.8869176213263897,0.8869176213263897
0.8861648244974331,0.8861648244974331
0.8801424498657795,0.8801424498657795
0.8824008403526495,0.8824008403526495
0.8824008403526495,0.8824008403526495
0.8741200752341258,0.8741200752341258
0.8620753259708187,0.8620753259708187
0.8635809196287321,0.8635809196287321
0.8771312625499527,0.8771312625499527
0.8861648244974331,0.8861648244974331
0.8756256688920393,0.8756256688920393
0.8598169354839486,0.8598169354839486
0.853794560852295,0.853794560852295
0.8628281227997754,0.8628281227997754
0.8726144815762125,0.8726144815762125
0.8778840593789093,0.8778840593789093
0.8741200752341258,0.8741200752341258
0.8628281227997754,0.8628281227997754
0.8364802337862909,0.8364802337862909
0.8026043764832393,0.8026043764832393
0.7724925033249713,0.7724925033249713
0.7634589413774908,0.7634589413774908
0.7777620811276682,0.7777620811276682
0.8131435320886331,0.8131435320886331
0.8440082020758578,0.8440082020758578
0.8507833735364682,0.8507833735364682
0.823682687694027,0.823682687694027
0.7867956430751486,0.7867956430751486
0.7596949572327073,0.7596949572327073
0.7559309730879238,0.7559309730879238
0.767975722351231,0.767975722351231
0.7860428462461919,0.7860428462461919
0.7898068303909754,0.7898068303909754
0.7739980969828847,0.7739980969828847
0.7514141921141836,0.7514141921141836
0.7581893635747938,0.7581893635747938
0.8108851416017631,0.8108851416017631
0.8891760118132599,0.8891760118132599
0.9478941644718826,0.9478941644718826
0.9689724756826702,0.9689724756826702
0.96445569470893,0.96445569470893
0.9652084915378867,0.9652084915378867
0.9847812090907608,0.9847812090907608
1.0201626600517257,1.0201626600517257
1.0442521585783402,1.0442521585783402
1.0404881744335568,1.0404881744335568
1.0036011298146783,1.0036011298146783
0.9516581486166661,0.9516581486166661
0.904231948392394,0.904231948392394
0.8756256688920393,0.8756256688920393
0.8620753259708187,0.8620753259708187
0.8635809196287321,0.8635809196287321
0.8711088879182991,0.8711088879182991
0.876378465720996,0.876378465720996
0.8545473576812517,0.8545473576812517
0.7973347986805424,0.7973347986805424
0.707751976034695,0.707751976034695
0.6189219502178043,0.6189219502178043
0.5654733753618785,0.5654733753618785
0.5609565943881383,0.5609565943881383
0.584293296085796,0.584293296085796
0.6053716072965837,0.6053716072965837
0.6136523724151073,0.6136523724151073
0.619674747046761,0.619674747046761
0.6151579660730208,0.6151579660730208
0.5963380453491032,0.5963380453491032
0.5857988897437094,0.5857988897437094
0.6400002614285919,0.6400002614285919
0.7739980969828847,0.7739980969828847
0.9471413676429259,0.9471413676429259
1.1067342953817465,1.1067342953817465
1.2550352706862165,1.2550352706862165
1.3950554808721627,1.3950554808721627
1.4537736335307854,1.4537736335307854
1.286652737502398,1.286652737502398
0.8372330306152476,0.8372330306152476
0.24628751988423742,0.24628751988423742
-0.22270490455578715,-0.22270490455578715
-0.41240970545287575,-0.41240970545287575
-0.3634779115706902,-0.3634779115706902
-0.21066015529247992,-0.21066015529247992
-0.024719338540174864,-0.024719338540174864
0.18681657039665803,0.18681657039665803
0.3975996825045342,0.3975996825045342
0.5413838768352641,0.5413838768352641
0.5910684675464063,0.5910684675464063
0.5835404992568393,0.5835404992568393
0.5782709214541424,0.5782709214541424
0.5903156707174496,0.5903156707174496
0.6053716072965837,0.6053716072965837
0.6076299977834537,0.6076299977834537
0.6046188104676269,0.6046188104676269
0.6008548263228434,0.6008548263228434
0.59934923266493,0.59934923266493
0.5955852485201465,0.5955852485201465
0.6023604199807568,0.6023604199807568
0.6166635597309341,0.6166635597309341
0.6302139026521547,0.6302139026521547
0.6287083089942413,0.6287083089942413
0.6204275438757176,0.6204275438757176
0.6159107629019774,0.6159107629019774
0.6121467787571939,0.6121467787571939
0.6031132168097135,0.6031132168097135
0.6001020294938867,0.6001020294938867
0.6113939819282372,0.6113939819282372
0.629461105823198,0.629461105823198
0.6362362772838084,0.6362362772838084
0.6347306836258949,0.6347306836258949
0.6354834804548517,0.6354834804548517
0.6430114487444186,0.6430114487444186
0.6437642455733754,0.6437642455733754
0.6309666994811115,0.6309666994811115
0.6113939819282372,0.6113939819282372
0.6061244041255404,0.6061244041255404
0.6264499185073713,0.6264499185073713
0.6663481504420764,0.6663481504420764
0.6987184140872145,0.6987184140872145
0.702482398231998,0.702482398231998
0.6761345092185135,0.6761345092185135
0.6430114487444186,0.6430114487444186
0.6151579660730208,0.6151579660730208
0.5933268580332764,0.5933268580332764
0.5835404992568393,0.5835404992568393
0.6031132168097135,0.6031132168097135
0.6445170424023321,0.6445170424023321
0.6753817123895568,0.6753817123895568
0.6686065409289464,0.6686065409289464
0.6445170424023321,0.6445170424023321
0.629461105823198,0.629461105823198
0.6249443248494578,0.6249443248494578
0.6106411850992806,0.6106411850992806
0.5895628738884929,0.5895628738884929
0.5812821087699692,0.5812821087699692
0.5933268580332764,0.5933268580332764
0.606877200954497,0.606877200954497
0.6031132168097135,0.6031132168097135
0.5827877024278826,0.5827877024278826
0.569237359506662,0.569237359506662
0.5707429531645754,0.5707429531645754
0.5782709214541424,0.5782709214541424
0.5760125309672723,0.5760125309672723
0.5662261721908352,0.5662261721908352
0.5579454070723114,0.5579454070723114
0.5579454070723114,0.5579454070723114
0.5549342197564847,0.5549342197564847
0.5436422673221342,0.5436422673221342
0.5255751434271734,0.5255751434271734
0.5142831909928228,0.5142831909928228
0.5180471751376063,0.5180471751376063
0.5338559085456971,0.5338559085456971
0.5406310800063073,0.5406310800063073
0.5240695497692599,0.5240695497692599
0.49621606709786203,0.49621606709786203
0.4909464892951651,0.4909464892951651
0.5142831909928228,0.5142831909928228
0.5398782831773506,0.5398782831773506
0.546653454637961,0.546653454637961
0.5549342197564847,0.5549342197564847
0.5865516865726661,0.5865516865726661
0.629461105823198,0.629461105823198
0.6324722931390249,0.6324722931390249
0.5797765151120559,0.5797765151120559
0.5075080195322126,0.5075080195322126
0.4713737717422909,0.4713737717422909
0.4781489432029012,0.4781489432029012
0.49395767661099194,0.49395767661099194
0.488688098808295,0.488688098808295
0.4758905527160311,0.4758905527160311
0.4796545368608146,0.4796545368608146
0.49395767661099194,0.49395767661099194
0.4909464892951651,0.4909464892951651
0.4653513971106373,0.4653513971106373
0.43975630492610945,0.43975630492610945
0.43749791443923935,0.43749791443923935
0.45104825736046,0.45104825736046
0.4615874129658538,0.4615874129658538
0.45932902247898366,0.45932902247898366
0.4578234288210703,0.4578234288210703
0.4615874129658538,0.4615874129658538
0.466104193939594,0.466104193939594
0.4638458034527239,0.4638458034527239
0.4608346161368971,0.4608346161368971
0.4608346161368971,0.4608346161368971
0.4623402097948105,0.4623402097948105
0.45932902247898366,0.45932902247898366
0.4600818193079404,0.4600818193079404
0.466104193939594,0.466104193939594
0.4713737717422909,0.4713737717422909
0.4683625844264641,0.4683625844264641
0.466104193939594,0.466104193939594
0.4653513971106373,0.4653513971106373
0.45707063199211356,0.45707063199211356
0.43072274297862906,0.43072274297862906
0.40889163493888475,0.40889163493888475
0.41491400957053837,0.41491400957053837
0.44653147638671975,0.44653147638671975
0.4623402097948105,0.4623402097948105
0.43523952395236926,0.43523952395236926
0.37953255860957347,0.37953255860957347
0.34113992033278173,0.34113992033278173
0.3351175457011281,0.3351175457011281
0.3426455139906951,0.3426455139906951
0.3358703425300848,0.3358703425300848
0.3260839837536477,0.3260839837536477
0.3351175457011281,0.3351175457011281
0.36297102837252604,0.36297102837252604
0.37576857446478995,0.37576857446478995
0.3509262791092188,0.3509262791092188
0.310275250345557,0.310275250345557
0.29973609474016316,0.29973609474016316
0.3208144059509508,0.3208144059509508
0.34339831081965183,0.34339831081965183
0.3486678886223487,0.3486678886223487
0.36522941885939614,0.36522941885939614
0.408138838109928,0.408138838109928
0.4533066478473301,0.4533066478473301
0.4728793654002043,0.4728793654002043
0.4781489432029012,0.4781489432029012
0.49395767661099194,0.49395767661099194
0.518799971966563,0.518799971966563
0.539125486348394,0.539125486348394
0.5639677817039651,0.5639677817039651
0.5963380453491032,0.5963380453491032
0.606877200954497,0.606877200954497
0.5594510007302249,0.5594510007302249
0.4721265685712476,0.4721265685712476
0.4058804476230579,0.4058804476230579
0.40061086982036104,0.40061086982036104
0.4367451176102827,0.4367451176102827
0.4630930066237672,0.4630930066237672
0.44653147638671975,0.44653147638671975
0.3975996825045342,0.3975996825045342
0.340387123503825,0.340387123503825
0.28844414230581267,0.28844414230581267
0.2334899737919735,0.2334899737919735
0.1687494465016972,0.1687494465016972
0.11304248115890136,0.11304248115890136
0.08970577946124364,0.08970577946124364
0.09572815409289726,0.09572815409289726
0.10476171604037766,0.10476171604037766
0.10551451286933436,0.10551451286933436
0.11304248115890136,0.11304248115890136
0.12809841773803538,0.12809841773803538
0.1393903701723859,0.1393903701723859
0.1521879162646498,0.1521879162646498
0.2041308974626622,0.2041308974626622
0.310275250345557,0.310275250345557
0.45481224150524346,0.45481224150524346
0.6279555121652847,0.6279555121652847
0.8440082020758578,0.8440082020758578
1.0480161427231238,1.0480161427231238
1.075116828565565,1.075116828565565
0.7627061445485341,0.7627061445485341
0.1439071511461261,0.1439071511461261
-0.5162956678489005,-0.5162956678489005
-0.9243115491434322,-0.9243115491434322
-0.9958272478943188,-0.9958272478943188
-0.8663461933137663,-0.8663461933137663
-0.6962141099695519,-0.6962141099695519
-0.5185540583357706,-0.5185540583357706
-0.3055125557410242,-0.3055125557410242
-0.09096545948836453,-0.09096545948836453
0.043032376065928205,0.043032376065928205
0.07464984288210963,0.07464984288210963
0.06561628093462922,0.06561628093462922
0.07540263971106632,0.07540263971106632
0.10476171604037766,0.10476171604037766
0.12433443359325187,0.12433443359325187
0.11906485579055498,0.11906485579055498
0.09949213823768076,0.09949213823768076
0.08142501434271994,0.08142501434271994
0.07766103019793644,0.07766103019793644
0.08368340482959004,0.08368340482959004
0.10099773189559416,0.10099773189559416
0.1296040113959488,0.1296040113959488
0.16498546235691372,0.16498546235691372
0.18531097673874464,0.18531097673874464
0.17025504015961063,0.17025504015961063
0.13788477651447248,0.13788477651447248
0.1296040113959488,0.1296040113959488
0.15519910358047662,0.15519910358047662
0.18079419576500444,0.18079419576500444
0.17025504015961063,0.17025504015961063
0.1348735891986457,0.1348735891986457
0.11228968432994467,0.11228968432994467
0.11981765261951167,0.11981765261951167
0.1386375733434292,0.1386375733434292
0.1484239321198663,0.1484239321198663
0.14315435431716939,0.14315435431716939
0.12885121456699208,0.12885121456699208
0.10927849701411786,0.10927849701411786
0.09045857629020035,0.09045857629020035
0.08518899848750344,0.08518899848750344
0.10400891921142096,0.10400891921142096
0.134120792369689,0.134120792369689
0.1521879162646498,0.1521879162646498
0.1536935099225632,0.1536935099225632
0.15519910358047662,0.15519910358047662
0.16272707187004362,0.16272707187004362
0.1559519004094333,0.1559519004094333
0.11680646530368487,0.11680646530368487
0.07013306190836943,0.07013306190836943
0.05432432850027871,0.05432432850027871
0.07841382702689313,0.07841382702689313
0.11153688750098796,0.11153688750098796
0.12282883993533848,0.12282883993533848
0.11003129384307457,0.11003129384307457
0.09271696677707045,0.09271696677707045
0.08293060800063334,0.08293060800063334
0.07841382702689313,0.07841382702689313
0.07163865556628282,0.07163865556628282
0.06335789044775912,0.06335789044775912
0.05206593801340861,0.05206593801340861
0.033998814118447795,0.033998814118447795
0.00990931559183337,0.00990931559183337
-0.010416198789997548,-0.010416198789997548
-0.01116899561895425,-0.01116899561895425
0.005392534618093167,0.005392534618093167
0.01668448705244368,0.01668448705244368
0.006145331447049867,0.006145331447049867
-0.026224932198088264,-0.026224932198088264
-0.0593479926721831,-0.0593479926721831
-0.07666231973818721,-0.07666231973818721
-0.07666231973818721,-0.07666231973818721
-0.07365113242236042,-0.07365113242236042
-0.07515672608027382,-0.07515672608027382
-0.07590952290923052,-0.07590952290923052
-0.0653703673038367,-0.0653703673038367
-0.046550446579919184,-0.046550446579919184
-0.03224730682974187,-0.03224730682974187
-0.03224730682974187,-0.03224730682974187
-0.043539259264092384,-0.043539259264092384
-0.0518200243826161,-0.0518200243826161
-0.04956163389574599,-0.04956163389574599
-0.04278646243513568,-0.04278646243513568
-0.04278646243513568,-0.04278646243513568
-0.0548312116984429,-0.0548312116984429
-0.07590952290923052,-0.07590952290923052
-0.09548224046210474,-0.09548224046210474
-0.10903258338332535,-0.10903258338332535
-0.11430216118602225,-0.11430216118602225
-0.11806614533080576,-0.11806614533080576
-0.12709970727828618,-0.12709970727828618
-0.1421556438574202,-0.1421556438574202
-0.15344759629177068,-0.15344759629177068
-0.15344759629177068,-0.15344759629177068
-0.1444140343442903,-0.1444140343442903
-0.1398972533705501,-0.1398972533705501
-0.1466724248311604,-0.1466724248311604
-0.1587171740944676,-0.1587171740944676
-0.1639867518971645,-0.1639867518971645
-0.16323395506820781,-0.16323395506820781
-0.1624811582392511,-0.1624811582392511
-0.1662451423840346,-0.1662451423840346
-0.1692563296998614,-0.1692563296998614
-0.1669979392129913,-0.1669979392129913
-0.1579643772655109,-0.1579643772655109
-0.14817801848907378,-0.14817801848907378
-0.14366123751533358,-0.14366123751533358
-0.14893081531803049,-0.14893081531803049
-0.1549531899496841,-0.1549531899496841
-0.1549531899496841,-0.1549531899496841
-0.14893081531803049,-0.14893081531803049
-0.1496836121469872,-0.1496836121469872
-0.1579643772655109,-0.1579643772655109
-0.1647395487261212,-0.1647395487261212
-0.1654923455550779,-0.1654923455550779
-0.1722675170156882,-0.1722675170156882
-0.18958184408169232,-0.18958184408169232
-0.20388498383186962,-0.20388498383186962
-0.197862609200216,-0.197862609200216
-0.17753709481838512,-0.17753709481838512
-0.16097556458133772,-0.16097556458133772
-0.1587171740944676,-0.1587171740944676
-0.1647395487261212,-0.1647395487261212
-0.17302031384464492,-0.17302031384464492
-0.18280667262108202,-0.18280667262108202
-0.19409862505543252,-0.19409862505543252
-0.20012099968708613,-0.20012099968708613
-0.1933458282264758,-0.1933458282264758
-0.17828989164734182,-0.17828989164734182
-0.16850353287090472,-0.16850353287090472
-0.17979548530525521,-0.17979548530525521
-0.21066015529247992,-0.21066015529247992
-0.24001923162179126,-0.24001923162179126
-0.24754719991135826,-0.24754719991135826
-0.23249126333222425,-0.23249126333222425
-0.21367134260830672,-0.21367134260830672
-0.205390577489783,-0.205390577489783
-0.20764896797665314,-0.20764896797665314
-0.20990735846352324,-0.20990735846352324
-0.20990735846352324,-0.20990735846352324
-0.20764896797665314,-0.20764896797665314
-0.19936820285812942,-0.19936820285812942
-0.17302031384464492,-0.17302031384464492
-0.12785250410724286,-0.12785250410724286
-0.07892071022505733,-0.07892071022505733
-0.047303243408875886,-0.047303243408875886
-0.03902247829035218,-0.03902247829035218
-0.034505697316611975,-0.034505697316611975
-0.008157808303127446,-0.008157808303127446
0.0407739855790581,0.0407739855790581
0.08142501434271994,0.08142501434271994
0.07389704605315293,0.07389704605315293
0.020448471197227182,0.020448471197227182
-0.04278646243513568,-0.04278646243513568
-0.08117910071192742,-0.08117910071192742
-0.09924622460688824,-0.09924622460688824
-0.11881894215976246,-0.11881894215976246
-0.14366123751533358,-0.14366123751533358
-0.16097556458133772,-0.16097556458133772
-0.1669979392129913,-0.1669979392129913
-0.17753709481838512,-0.17753709481838512
-0.20915456163456653,-0.20915456163456653
-0.26335593331944895,-0.26335593331944895
-0.32884925743868193,-0.32884925743868193
-0.3800394418077376,-0.3800394418077376
-0.4003649561895686,-0.4003649561895686
-0.3913313942420881,-0.3913313942420881
-0.3785338481498242,-0.3785338481498242
-0.3732642703471273,-0.3732642703471273
-0.37175867668921386,-0.37175867668921386
-0.3679946925444304,-0.3679946925444304
-0.366489098886517,-0.366489098886517
-0.34992756864946956,-0.34992756864946956
-0.2851870413591933,-0.2851870413591933
-0.15344759629177068,-0.15344759629177068
0.03098762680262099,0.03098762680262099
0.25005150402902093,0.25005150402902093
0.4826657241766414,0.4826657241766414
0.6535506043498125,0.6535506043498125
0.619674747046761,0.619674747046761
0.2703770184108518,0.2703770184108518
-0.3401412098730325,-0.3401412098730325
-0.980018514486228,-0.980018514486228
-1.397820754557197,-1.397820754557197
-1.488156374032001,-1.488156374032001
-1.3353386177537907,-1.3353386177537907
-1.0921852420007765,-1.0921852420007765
-0.8618294123400261,-0.8618294123400261
-0.6691134241271107,-0.6691134241271107
-0.5170484646778571,-0.5170484646778571
-0.41843208008452937,-0.41843208008452937
-0.3845562227814778,-0.3845562227814778
-0.3935897847289582,-0.3935897847289582
-0.40412894033435204,-0.40412894033435204
-0.38756741009730467,-0.38756741009730467
-0.3529387559652964,-0.3529387559652964
-0.32884925743868193,-0.32884925743868193
-0.3333660384124221,-0.3333660384124221
-0.3469163813336428,-0.3469163813336428
-0.33863561621511906,-0.33863561621511906
-0.3047597589120675,-0.3047597589120675
-0.2769062762406696,-0.2769062762406696
-0.2814230572144098,-0.2814230572144098
-0.3070181493989376,-0.3070181493989376
-0.31454611768850466,-0.31454611768850466
-0.29572619696458713,-0.29572619696458713
-0.2686255111221459,-0.2686255111221459
-0.2641087301484057,-0.2641087301484057
-0.2754006825827562,-0.2754006825827562
-0.2776590730696263,-0.2776590730696263
-0.2573335586877954,-0.2573335586877954
-0.23550245064805106,-0.23550245064805106
-0.22948007601639744,-0.22948007601639744
-0.23550245064805106,-0.23550245064805106
-0.23776084113492116,-0.23776084113492116
-0.23851363796387787,-0.23851363796387787
-0.24604160625344487,-0.24604160625344487
-0.2618503396615356,-0.2618503396615356
-0.2701311047800593,-0.2701311047800593
-0.2663671206352758,-0.2663671206352758
-0.2573335586877954,-0.2573335586877954
-0.2528167777140552,-0.2528167777140552
-0.2513111840561418,-0.2513111840561418
-0.24604160625344487,-0.24604160625344487
-0.23098566967431086,-0.23098566967431086
-0.20614337431873972,-0.20614337431873972
-0.17979548530525521,-0.17979548530525521
-0.1654923455550779,-0.1654923455550779
-0.1662451423840346,-0.1662451423840346
-0.17828989164734182,-0.17828989164734182
-0.19033464091064903,-0.19033464091064903
-0.19861540602917271,-0.19861540602917271
-0.2008737965160428,-0.2008737965160428
-0.19936820285812942,-0.19936820285812942
-0.197862609200216,-0.197862609200216
-0.20162659334499952,-0.20162659334499952
-0.20764896797665314,-0.20764896797665314
-0.20689617114769643,-0.20689617114769643
-0.19710981237125932,-0.19710981237125932
-0.19033464091064903,-0.19033464091064903
-0.19936820285812942,-0.19936820285812942
-0.22195210772683044,-0.22195210772683044
-0.24303041893761806,-0.24303041893761806
-0.25206398088509846,-0.25206398088509846
-0.24453601259553145,-0.24453601259553145
-0.22722168552952735,-0.22722168552952735
-0.21216574895039333,-0.21216574895039333
-0.21291854577935004,-0.21291854577935004
-0.22421049821370054,-0.22421049821370054
-0.23173846650326754,-0.23173846650326754
-0.23098566967431086,-0.23098566967431086
-0.23550245064805106,-0.23550245064805106
-0.24980559039822836,-0.24980559039822836
-0.25658076185883866,-0.25658076185883866
-0.23926643479283455,-0.23926643479283455
-0.20990735846352324,-0.20990735846352324
-0.18958184408169232,-0.18958184408169232
-0.18130107896316863,-0.18130107896316863
-0.1692563296998614,-0.1692563296998614
-0.1519420026338573,-0.1519420026338573
-0.13914445654159338,-0.13914445654159338
-0.1444140343442903,-0.1444140343442903
-0.1647395487261212,-0.1647395487261212
-0.18581785993690883,-0.18581785993690883
-0.18882904725273564,-0.18882904725273564
-0.1700091265288181,-0.1700091265288181
-0.1504364089759439,-0.1504364089759439
-0.160222767752381,-0.160222767752381
-0.19710981237125932,-0.19710981237125932
-0.22948007601639744,-0.22948007601639744
-0.23399685699013764,-0.23399685699013764
-0.22345770138474383,-0.22345770138474383
-0.22270490455578715,-0.22270490455578715
-0.23249126333222425,-0.23249126333222425
-0.22722168552952735,-0.22722168552952735
-0.2031321870029129,-0.2031321870029129
-0.18506506310795212,-0.18506506310795212
-0.1956042187133459,-0.1956042187133459
-0.22195210772683044,-0.22195210772683044
-0.22646888870057064,-0.22646888870057064
-0.19409862505543252,-0.19409862505543252
-0.1557059867786408,-0.1557059867786408
-0.14817801848907378,-0.14817801848907378
-0.17377311067360163,-0.17377311067360163
-0.19710981237125932,-0.19710981237125932
-0.18657065676586554,-0.18657065676586554
-0.13914445654159338,-0.13914445654159338
-0.08569588168566762,-0.08569588168566762
-0.06085358633009651,-0.06085358633009651
-0.08795427217253773,-0.08795427217253773
-0.1504364089759439,-0.1504364089759439
-0.20463778066082633,-0.20463778066082633
-0.21442413943726343,-0.21442413943726343
-0.1820538757921253,-0.1820538757921253
-0.14140284702846348,-0.14140284702846348
-0.12484131679141607,-0.12484131679141607
-0.13312208190993977,-0.13312208190993977
-0.1466724248311604,-0.1466724248311604
-0.14893081531803049,-0.14893081531803049
-0.14366123751533358,-0.14366123751533358
-0.13538047239680986,-0.13538047239680986
-0.12559411362037276,-0.12559411362037276
-0.11806614533080576,-0.11806614533080576
-0.12183012947558926,-0.12183012947558926
-0.13613326922576657,-0.13613326922576657
-0.14591962800220368,-0.14591962800220368
-0.1421556438574202,-0.1421556438574202
-0.1398972533705501,-0.1398972533705501
-0.1519420026338573,-0.1519420026338573
-0.1700091265288181,-0.1700091265288181
-0.17377311067360163,-0.17377311067360163
-0.1594699709234243,-0.1594699709234243
-0.14591962800220368,-0.14591962800220368
-0.14893081531803049,-0.14893081531803049
-0.1654923455550779,-0.1654923455550779
-0.18506506310795212,-0.18506506310795212
-0.19485142188438923,-0.19485142188438923
-0.18958184408169232,-0.18958184408169232
-0.1722675170156882,-0.1722675170156882
-0.14893081531803049,-0.14893081531803049
-0.12183012947558926,-0.12183012947558926
-0.09322384997523464,-0.09322384997523464
-0.062359179988009904,-0.062359179988009904
-0.03224730682974187,-0.03224730682974187
-0.003641027329387242,-0.003641027329387242
0.024212455342010684,0.024212455342010684
0.05959390630297561,0.05959390630297561
0.10551451286933436,0.10551451286933436
0.1544463067515199,0.1544463067515199
0.18531097673874464,0.18531097673874464
0.18606377356770135,0.18606377356770135
0.1536935099225632,0.1536935099225632
0.08970577946124364,0.08970577946124364
0.0023813473022663637,0.0023813473022663637
-0.07515672608027382,-0.07515672608027382
-0.10075181826480165,-0.10075181826480165
-0.06838155461966351,-0.06838155461966351
-0.02246094805330476,-0.02246094805330476
-0.010416198789997548,-0.010416198789997548
-0.03902247829035218,-0.03902247829035218
-0.09096545948836453,-0.09096545948836453
-0.1564587836075975,-0.1564587836075975
-0.22345770138474383,-0.22345770138474383
-0.26711991746423247,-0.26711991746423247
-0.2595919491746655,-0.2595919491746655
-0.21818812358204695,-0.21818812358204695
-0.18506506310795212,-0.18506506310795212
-0.19259303139751913,-0.19259303139751913
-0.22797448235848405,-0.22797448235848405
-0.255827965029882,-0.255827965029882
-0.2550751682009253,-0.2550751682009253
-0.22044651406891705,-0.22044651406891705
-0.1421556438574202,-0.1421556438574202
-0.008157808303127446,-0.008157808303127446
0.1664910560148271,0.1664910560148271
0.35393746642504564,0.35393746642504564
0.548911845124831,0.548911845124831
0.7371110523640063,0.7371110523640063
0.8056155637990661,0.8056155637990661
0.5790237182830991,0.5790237182830991
0.0031341441312230647,0.0031341441312230647
-0.718798014838253,-0.718798014838253
-1.2540365602264671,-1.2540365602264671
-1.4068543165046774,-1.4068543165046774
-1.2359694363315064,-1.2359694363315064
-0.9393674857225662,-0.9393674857225662
-0.6668550336402406,-0.6668550336402406
-0.45983590567714794,-0.45983590567714794
-0.3100293367147644,-0.3100293367147644
-0.22195210772683044,-0.22195210772683044
-0.19936820285812942,-0.19936820285812942
-0.21517693626622014,-0.21517693626622014
-0.23098566967431086,-0.23098566967431086
-0.23399685699013764,-0.23399685699013764
-0.23173846650326754,-0.23173846650326754
-0.22496329504265725,-0.22496329504265725
-0.20463778066082633,-0.20463778066082633
-0.1715147201867315,-0.1715147201867315
-0.14366123751533358,-0.14366123751533358
-0.12935809776515628,-0.12935809776515628
-0.11957173898871916,-0.11957173898871916
-0.10677419289645525,-0.10677419289645525
-0.09849342777793155,-0.09849342777793155
-0.11053817704123875,-0.11053817704123875
-0.13763886288368,-0.13763886288368
-0.1647395487261212,-0.1647395487261212
-0.1639867518971645,-0.1639867518971645
-0.13312208190993977,-0.13312208190993977
-0.08945986583045114,-0.08945986583045114
-0.060100789501139805,-0.060100789501139805
-0.0563368053563563,-0.0563368053563563
-0.07590952290923052,-0.07590952290923052
-0.09924622460688824,-0.09924622460688824
-0.10752698972541196,-0.10752698972541196
-0.09096545948836453,-0.09096545948836453
-0.0585951958432264,-0.0585951958432264
-0.035258494145568677,-0.035258494145568677
-0.04203366560617898,-0.04203366560617898
-0.07289833559340371,-0.07289833559340371
-0.09999902143584494,-0.09999902143584494
-0.09774063094897484,-0.09774063094897484
-0.06988714827757692,-0.06988714827757692
-0.03826968146139548,-0.03826968146139548
-0.026977729027044966,-0.026977729027044966
-0.03826968146139548,-0.03826968146139548
-0.06461757047488001,-0.06461757047488001
-0.09096545948836453,-0.09096545948836453
-0.10526859923854184,-0.10526859923854184
-0.10150461509375834,-0.10150461509375834
-0.08343749119879752,-0.08343749119879752
-0.0585951958432264,-0.0585951958432264
-0.03375290048765527,-0.03375290048765527
-0.008157808303127446,-0.008157808303127446
0.017437283881400378,0.017437283881400378
0.02722364265783749,0.02722364265783749
0.005392534618093167,0.005392534618093167
-0.03902247829035218,-0.03902247829035218
-0.07365113242236042,-0.07365113242236042
-0.08268469436984083,-0.08268469436984083
-0.08494308485671093,-0.08494308485671093
-0.10150461509375834,-0.10150461509375834
-0.11806614533080576,-0.11806614533080576
-0.10903258338332535,-0.10903258338332535
-0.07816791339610062,-0.07816791339610062
-0.057089602185313,-0.057089602185313
-0.06838155461966351,-0.06838155461966351
-0.09698783412001814,-0.09698783412001814
-0.11129097387019546,-0.11129097387019546
-0.09397664680419134,-0.09397664680419134
-0.0638647736459233,-0.0638647736459233
-0.04956163389574599,-0.04956163389574599
-0.06913435144862021,-0.06913435144862021
-0.10903258338332535,-0.10903258338332535
-0.1398972533705501,-0.1398972533705501
-0.1421556438574202,-0.1421556438574202
-0.12032453581767587,-0.12032453581767587
-0.09397664680419134,-0.09397664680419134
-0.07967350705401402,-0.07967350705401402
-0.08042630388297073,-0.08042630388297073
-0.08569588168566762,-0.08569588168566762
-0.08720147534358103,-0.08720147534358103
-0.09096545948836453,-0.09096545948836453
-0.10075181826480165,-0.10075181826480165
-0.11430216118602225,-0.11430216118602225
-0.11806614533080576,-0.11806614533080576
-0.11053817704123875,-0.11053817704123875
-0.09924622460688824,-0.09924622460688824
-0.10150461509375834,-0.10150461509375834
-0.12333572313350266,-0.12333572313350266
-0.1587171740944676,-0.1587171740944676
-0.19259303139751913,-0.19259303139751913
-0.21592973309517682,-0.21592973309517682
-0.22797448235848405,-0.22797448235848405
-0.23399685699013764,-0.23399685699013764
-0.23249126333222425,-0.23249126333222425
-0.22270490455578715,-0.22270490455578715
-0.21216574895039333,-0.21216574895039333
-0.21216574895039333,-0.21216574895039333
-0.21969371723996034,-0.21969371723996034
-0.22044651406891705,-0.22044651406891705
-0.21216574895039333,-0.21216574895039333
-0.21517693626622014,-0.21517693626622014
-0.24077202845074797,-0.24077202845074797
-0.270883901609016,-0.270883901609016
-0.2731422920958861,-0.2731422920958861
-0.24528880942448816,-0.24528880942448816
-0.21743532675309024,-0.21743532675309024
-0.21818812358204695,-0.21818812358204695
-0.23550245064805106,-0.23550245064805106
-0.23776084113492116,-0.23776084113492116
-0.21141295212143663,-0.21141295212143663
-0.1843122662789954,-0.1843122662789954
-0.18506506310795212,-0.18506506310795212
-0.21969371723996034,-0.21969371723996034
-0.25883915234570876,-0.25883915234570876
-0.2814230572144098,-0.2814230572144098
-0.2874454318460634,-0.2874454318460634
-0.2949734001356304,-0.2949734001356304
-0.3032541652541541,-0.3032541652541541
-0.3032541652541541,-0.3032541652541541
-0.29572619696458713,-0.29572619696458713
-0.2972317906225005,-0.2972317906225005
-0.3122877272016345,-0.3122877272016345
-0.32960205426763867,-0.32960205426763867
-0.33713002255720564,-0.33713002255720564
-0.34842197499155614,-0.34842197499155614
-0.3710058798602572,-0.3710058798602572
-0.39283698790000154,-0.39283698790000154
-0.39885936253165516,-0.39885936253165516
-0.3958481752158284,-0.3958481752158284
-0.40111775301852526,-0.40111775301852526
-0.4176792832555727,-0.4176792832555727
-0.42972403251887986,-0.42972403251887986
-0.4342408134926201,-0.4342408134926201
-0.4364992039794902,-0.4364992039794902
-0.447038359584884,-0.447038359584884
-0.4605887025061046,-0.4605887025061046
-0.4651054834798448,-0.4651054834798448
-0.4432743754401005,-0.4432743754401005
-0.3981065657026985,-0.3981065657026985
-0.3469163813336428,-0.3469163813336428
-0.32132128914911495,-0.32132128914911495
-0.33035485109659535,-0.33035485109659535
-0.3529387559652964,-0.3529387559652964
-0.34766917816259946,-0.34766917816259946
-0.3002429779383273,-0.3002429779383273
-0.23851363796387787,-0.23851363796387787
-0.21291854577935004,-0.21291854577935004
-0.24001923162179126,-0.24001923162179126
-0.2987373842804139,-0.2987373842804139
-0.3597139274259067,-0.3597139274259067
-0.41692648642661595,-0.41692648642661595
-0.47112785811149843,-0.47112785811149843
-0.5095204963882901,-0.5095204963882901
-0.5102732932172469,-0.5102732932172469
-0.48166701371689224,-0.48166701371689224
-0.4590831088481912,-0.4590831088481912
-0.48392540420376234,-0.48392540420376234
-0.5584522902704757,-0.5584522902704757
-0.6487879097452798,-0.6487879097452798
-0.7127756402065993,-0.7127756402065993
-0.7391235292200838,-0.7391235292200838
-0.7323483577594736,-0.7323483577594736
-0.7150340306934695,-0.7150340306934695
-0.7067532655749458,-0.7067532655749458
-0.7278315767857334,-0.7278315767857334
-0.7654714182335685,-0.7654714182335685
-0.8001000723655766,-0.8001000723655766
-0.8196727899184508,-0.8196727899184508
-0.8294591486948879,-0.8294591486948879
-0.8016056660234899,-0.8016056660234899
-0.7014836877722489,-0.7014836877722489
-0.5388795727176015,-0.5388795727176015
-0.3679946925444304,-0.3679946925444304
-0.19409862505543252,-0.19409862505543252
0.015931690223486977,0.015931690223486977
0.2109060689232725,0.2109060689232725
0.19208614819935493,0.19208614819935493
-0.20840176480560982,-0.20840176480560982
-0.9152779871959518,-0.9152779871959518
-1.6131206476388134,-1.6131206476388134
-2.0128557638148217,-2.0128557638148217
-2.05200119892057,-2.05200119892057
-1.8750939441157453,-1.8750939441157453
-1.6311877715337741,-1.6311877715337741
-1.3910455830965867,-1.3910455830965867
-1.178756877330797,-1.178756877330797
-1.0485230259212879,-1.0485230259212879
-1.0266919178815435,-1.0266919178815435
-1.068095743474162,-1.068095743474162
-1.075623711763729,-1.075623711763729
-1.0289503083684135,-1.0289503083684135
-0.9815241081441415,-0.9815241081441415
-0.9935688574074486,-0.9935688574074486
-1.0394894639738075,-1.0394894639738075
-1.0590621815266816,-1.0590621815266816
-1.0259391210525868,-1.0259391210525868
-0.9837824986310115,-0.9837824986310115
-0.977760123999358,-0.977760123999358
-1.0138943717892797,-1.0138943717892797
-1.0598149783556383,-1.0598149783556383
-1.1019716007772136,-1.1019716007772136
-1.1298250834486114,-1.1298250834486114
-1.1456338168567022,-1.1456338168567022
-1.1350946612513084,-1.1350946612513084
-1.113263553211564,-1.113263553211564
-1.0876684610270362,-1.0876684610270362
-1.0688485403031187,-1.0688485403031187
-1.0613205720135517,-1.0613205720135517
-1.0876684610270362,-1.0876684610270362
-1.1456338168567022,-1.1456338168567022
-1.2035991726863682,-1.2035991726863682
-1.2148911251207186,-1.2148911251207186
-1.1802624709887104,-1.1802624709887104
-1.1373530517381785,-1.1373530517381785
-1.1366002549092218,-1.1366002549092218
-1.1772512836728837,-1.1772512836728837
-1.231452655357766,-1.231452655357766
-1.251778169739597,-1.251778169739597
-1.2306998585288094,-1.2306998585288094
-1.1877904392782774,-1.1877904392782774
-1.16671212806749,-1.16671212806749
-1.1817680646466238,-1.1817680646466238
-1.226935874384026,-1.226935874384026
-1.2608117316870775,-1.2608117316870775
-1.2630701221739475,-1.2630701221739475
-1.2382278268183764,-1.2382278268183764
-1.2276886712129826,-1.2276886712129826
-1.2457557951079434,-1.2457557951079434
-1.281890042897865,-1.281890042897865
-1.3029683541086527,-1.3029683541086527
-1.3067323382534362,-1.3067323382534362
-1.2976987763059558,-1.2976987763059558
-1.2886652143584754,-1.2886652143584754
-1.277373261924125,-1.277373261924125
-1.281890042897865,-1.281890042897865
-1.3089907287403062,-1.3089907287403062
-1.3526529448197948,-1.3526529448197948
-1.3842704116359763,-1.3842704116359763
-1.397820754557197,-1.397820754557197
-1.4030903323598938,-1.4030903323598938
-1.427932627715465,-1.427932627715465
-1.4678308596501701,-1.4678308596501701
-1.5069762947559187,-1.5069762947559187
-1.5242906218219228,-1.5242906218219228
-1.5303129964535762,-1.5303129964535762
-1.5348297774273165,-1.5348297774273165
-1.5400993552300133,-1.5400993552300133
-1.516009856703399,-1.516009856703399
-1.4618084850185165,-1.4618084850185165
-1.4136294879652878,-1.4136294879652878
-1.4324494086892052,-1.4324494086892052
-1.5167626535323557,-1.5167626535323557
-1.6055926793492463,-1.6055926793492463
-1.6183902254415103,-1.6183902254415103
-1.5574136822960176,-1.5574136822960176
-1.4904147645188712,-1.4904147645188712
-1.495684342321568,-1.495684342321568
-1.563436056927671,-1.563436056927671
-1.6394685366522979,-1.6394685366522979
-1.6703332066395227,-1.6703332066395227
-1.669580409810566,-1.669580409810566
-1.6575356605472586,-1.6575356605472586
-1.649254895428735,-1.649254895428735
-1.6334461620206442,-1.6334461620206442
-1.6304349747048175,-1.6304349747048175
-1.6537716764024752,-1.6537716764024752
-1.7057146576004876,-1.7057146576004876
-1.7441072958772792,-1.7441072958772792
-1.7501296705089329,-1.7501296705089329
-1.7282985624691887,-1.7282985624691887
-1.7192650005217083,-1.7192650005217083
-1.729804156127102,-1.729804156127102
-1.7538936546537165,-1.7538936546537165
-1.7689495912328503,-1.7689495912328503
-1.7840055278119844,-1.7840055278119844
-1.797555870733205,-1.797555870733205
-1.8148701977992092,-1.8148701977992092
-1.820139775601906,-1.820139775601906
-1.825409353404603,-1.825409353404603
-1.827667743891473,-1.827667743891473
-1.8314317280362566,-1.8314317280362566
-1.823150962917733,-1.823150962917733
-1.8171285882860793,-1.8171285882860793
-1.8111062136544256,-1.8111062136544256
-1.8088478231675555,-1.8088478231675555
-1.8005670580490318,-1.8005670580490318
-1.8065894326806855,-1.8065894326806855
-1.8299261343783433,-1.8299261343783433
-1.8653075853393082,-1.8653075853393082
-1.885633099721139,-1.885633099721139
-1.8939138648396627,-1.8939138648396627
-1.8901498806948793,-1.8901498806948793
-1.8939138648396627,-1.8939138648396627
-1.9119809887346235,-1.9119809887346235
-1.953384814327242,-1.953384814327242
-1.9850022811434236,-1.9850022811434236
-1.9797327033407266,-1.9797327033407266
-1.9323065031164546,-1.9323065031164546
-1.898430645813403,-1.898430645813403
-1.9037002236160998,-1.9037002236160998
-1.9390816745770647,-1.9390816745770647
-1.9624183762747225,-1.9624183762747225
-1.9827438906565533,-1.9827438906565533
-2.009091779670038,-2.009091779670038
-2.0444732306310027,-2.0444732306310027
-2.0527539957495264,-2.0527539957495264
-2.0346868718545656,-2.0346868718545656
-2.009091779670038,-2.009091779670038
-2.0128557638148217,-2.0128557638148217
-2.0376980591703924,-2.0376980591703924
-2.0640459481838773,-2.0640459481838773
-2.0580235735522234,-2.0580235735522234
-2.028664497222912,-2.028664497222912
-1.9970470304067307,-1.9970470304067307
-2.003822201867341,-2.003822201867341
-2.0452260274599596,-2.0452260274599596
-2.0979218054869286,-2.0979218054869286
-2.1084609610923226,-2.1084609610923226
-2.066304338670747,-2.066304338670747
-1.9932830462619473,-1.9932830462619473
-1.9473624396955884,-1.9473624396955884
-1.933812096774368,-1.933812096774368
-1.9300481126295843,-1.9300481126295843
-1.8999362394713164,-1.8999362394713164
-1.8668131789972215,-1.8668131789972215
-1.8510044455891308,-1.8510044455891308
-1.8653075853393082,-1.8653075853393082
-1.8848803028921823,-1.8848803028921823
-1.9089698014187968,-1.9089698014187968
-1.9368232840901947,-1.9368232840901947
-1.9850022811434236,-1.9850022811434236
-2.033934075025609,-2.033934075025609
-2.0753379006182278,-2.0753379006182278
-2.094157821342145,-2.094157821342145
-2.099427399144842,-2.099427399144842
-2.0911466340263183,-2.0911466340263183
-2.0881354467104916,-2.0881354467104916
-2.1084609610923226,-2.1084609610923226
-2.177718269356339,-2.177718269356339
-2.262784311028446,-2.262784311028446
-2.326019244660809,-2.326019244660809
-2.331288822463506,-2.331288822463506
-2.3124689017395883,-2.3124689017395883
-2.3041881366210646,-2.3041881366210646
-2.3245136510028956,-2.3245136510028956
-2.3373111970951594,-2.3373111970951594
-2.3327944161214194,-2.3327944161214194
-2.315480089055415,-2.315480089055415
-2.305693730278978,-2.305693730278978
-2.2770874507786236,-2.2770874507786236
-2.20256056471191,-2.20256056471191
-2.069315525986574,-2.069315525986574
-1.9134865823925369,-1.9134865823925369
-1.7328153434429288,-1.7328153434429288
-1.5340769805983598,-1.5340769805983598
-1.3677088813989289,-1.3677088813989289
-1.3985735513861537,-1.3985735513861537
-1.7501296705089329,-1.7501296705089329
-2.3817262100036047,-2.3817262100036047
-3.025367498761584,-3.025367498761584
-3.4092938815295017,-3.4092938815295017
-3.433383380056116,-3.433383380056116
-3.2308810330667637,-3.2308810330667637
-2.9786940953662686,-2.9786940953662686
-2.778450138863786,-2.778450138863786
-2.6158460238091386,-2.6158460238091386
-2.4863649692285863,-2.4863649692285863
-2.3922653656089987,-2.3922653656089987
-2.356131117819077,-2.356131117819077
-2.3598951019638603,-2.3598951019638603
-2.389254178293172,-2.389254178293172
-2.406568505359176,-2.406568505359176
-2.399040537069609,-2.399040537069609
-2.3553783209901202,-2.3553783209901202
-2.3139744953975017,-2.3139744953975017
-2.301176949305238,-2.301176949305238
-2.3297832288055926,-2.3297832288055926
-2.364411882937601,-2.364411882937601
-2.3809734131746483,-2.3809734131746483
-2.3614006956217737,-2.3614006956217737
-2.3320416192924625,-2.3320416192924625
-2.3071993239368913,-2.3071993239368913
-2.307952120765848,-2.307952120765848
-2.3139744953975017,-2.3139744953975017
-2.3245136510028956,-2.3245136510028956
-2.3192440732001987,-2.3192440732001987
-2.3094577144237616,-2.3094577144237616
-2.291390590528801,-2.291390590528801
-2.286121012726104,-2.286121012726104
-2.2816042317523637,-2.2816042317523637
-2.2770874507786236,-2.2770874507786236
-2.263537107857403,-2.263537107857403
-2.2567619363967926,-2.2567619363967926
-2.2417059998176585,-2.2417059998176585
-2.2191220949489576,-2.2191220949489576
-2.197290986909213,-2.197290986909213
-2.2221332822647843,-2.2221332822647843
-2.288379403212974,-2.288379403212974
-2.3523671336742935,-2.3523671336742935
-2.356131117819077,-2.356131117819077
-2.3245136510028956,-2.3245136510028956
-2.306446527107935,-2.306446527107935
-2.3275248383187224,-2.3275248383187224
-2.3320416192924625,-2.3320416192924625
-2.2838626222392335,-2.2838626222392335
-2.1987965805671266,-2.1987965805671266
-2.1558871613165946,-2.1558871613165946
-2.176965472527382,-2.176965472527382
-2.2319196410412214,-2.2319196410412214
-2.255256342738879,-2.255256342738879
-2.2507395617651387,-2.2507395617651387
-2.2447171871334852,-2.2447171871334852
-2.262784311028446,-2.262784311028446
-2.2688066856601,-2.2688066856601
-2.2492339681072253,-2.2492339681072253
-2.2168637044620874,-2.2168637044620874
-2.220627688606871,-2.220627688606871
-2.2507395617651387,-2.2507395617651387
-2.2718178729759266,-2.2718178729759266
-2.2424587966466154,-2.2424587966466154
-2.1987965805671266,-2.1987965805671266
-2.182987847159036,-2.182987847159036
-2.2221332822647843,-2.2221332822647843
-2.2688066856601,-2.2688066856601
-2.2921433873577572,-2.2921433873577572
-2.2770874507786236,-2.2770874507786236
-2.2597731237126193,-2.2597731237126193
-2.2612787173705327,-2.2612787173705327
-2.2951545746735844,-2.2951545746735844
-2.3237608541739387,-2.3237608541739387
-2.3290304319766357,-2.3290304319766357
-2.3139744953975017,-2.3139744953975017
-2.3177384795422853,-2.3177384795422853
-2.3275248383187224,-2.3275248383187224
-2.313221698568545,-2.313221698568545
-2.2514923585940956,-2.2514923585940956
-2.192774205935473,-2.192774205935473
-2.1596511454613783,-2.1596511454613783
-2.1438424120532873,-2.1438424120532873
-2.1129777420660627,-2.1129777420660627
-2.1024385864606687,-2.1024385864606687
-2.1415840215664175,-2.1415840215664175
-2.2191220949489576,-2.2191220949489576
-2.2590203268836624,-2.2590203268836624
-2.235683625186005,-2.235683625186005
-2.1867518313038192,-2.1867518313038192
-2.189763018619646,-2.189763018619646
-2.2417059998176585,-2.2417059998176585
-2.2951545746735844,-2.2951545746735844
-2.3041881366210646,-2.3041881366210646
-2.2996713556473245,-2.2996713556473245
-2.301176949305238,-2.301176949305238
-2.300424152476281,-2.300424152476281
-2.2567619363967926,-2.2567619363967926
-2.1867518313038192,-2.1867518313038192
-2.1302920691320666,-2.1302920691320666
-2.12502249132937,-2.12502249132937
-2.152123177171811,-2.152123177171811
-2.1957853932513,-2.1957853932513
-2.228155656896438,-2.228155656896438
-2.2424587966466154,-2.2424587966466154
-2.220627688606871,-2.220627688606871
-2.1859990344748628,-2.1859990344748628
-2.1611567391192916,-2.1611567391192916
-2.1739542852115554,-2.1739542852115554
-2.1942797995933865,-2.1942797995933865
-2.187504628132776,-2.187504628132776
-2.1317976627899804,-2.1317976627899804
-2.0730795101313575,-2.0730795101313575
-2.0429676369730894,-2.0429676369730894
-2.05200119892057,-2.05200119892057
-2.0685627291576174,-2.0685627291576174
-2.0881354467104916,-2.0881354467104916
-2.1062025706054524,-2.1062025706054524
-2.1280336786451968,-2.1280336786451968
-2.139325631079547,-2.139325631079547
-2.1491119898559843,-2.1491119898559843
-2.1513703803428545,-2.1513703803428545
-2.1483591930270274,-2.1483591930270274
-2.1265280849872834,-2.1265280849872834
-2.103944180118582,-2.103944180118582
-2.079854681591968,-2.079854681591968
-2.0632931513549204,-2.0632931513549204
-2.0429676369730894,-2.0429676369730894
-2.032428481367696,-2.032428481367696
-2.028664497222912,-2.028664497222912
-2.036192465512479,-2.036192465512479
-2.0407092464862195,-2.0407092464862195
-2.0535067925784833,-2.0535067925784833
-2.066304338670747,-2.066304338670747
-2.076090697447184,-2.076090697447184
-2.0632931513549204,-2.0632931513549204
-2.042214840144133,-2.042214840144133
-2.028664497222912,-2.028664497222912
-2.039203652828306,-2.039203652828306
-2.0354396686835226,-2.0354396686835226
-1.991777452604034,-1.991777452604034
-1.9180033633662772,-1.9180033633662772
-1.878105131431572,-1.878105131431572
-1.883374709234269,-1.883374709234269
-1.8961722553265328,-1.8961722553265328
-1.8622963980234812,-1.8622963980234812
-1.8073422295096422,-1.8073422295096422
-1.765185607088067,-1.765185607088067
-1.7441072958772792,-1.7441072958772792
-1.7042090639425742,-1.7042090639425742
-1.6515132859156052,-1.6515132859156052
-1.6131206476388134,-1.6131206476388134
-1.6176374286125537,-1.6176374286125537
-1.6379629429943845,-1.6379629429943845
-1.6612996446920423,-1.6612996446920423
-1.6944227051661371,-1.6944227051661371
-1.7689495912328503,-1.7689495912328503
-1.8570268202207845,-1.8570268202207845
-1.8969250521554895,-1.8969250521554895
-1.8412180868126937,-1.8412180868126937
-1.7456128895351928,-1.7456128895351928
-1.6974338924819639,-1.6974338924819639
-1.7486240768510195,-1.7486240768510195
-1.8487460551022608,-1.8487460551022608
-1.9323065031164546,-1.9323065031164546
-1.9556432048141121,-1.9556432048141121
-1.943598455550805,-1.943598455550805
-1.9172505665373205,-1.9172505665373205
-1.8946666616686194,-1.8946666616686194
-1.863049194852438,-1.863049194852438
-1.840465289983737,-1.840465289983737
-1.83519571218104,-1.83519571218104
-1.8547684297339142,-1.8547684297339142
-1.8615436011945246,-1.8615436011945246
-1.823150962917733,-1.823150962917733
-1.7117370322321412,-1.7117370322321412
-1.5431105425458402,-1.5431105425458402
-1.342113789214401,-1.342113789214401
-1.1388586453960918,-1.1388586453960918
-0.9340979079198694,-0.9340979079198694
-0.7857969326153993,-0.7857969326153993
-0.8256951645501044,-0.8256951645501044
-1.1960712043968011,-1.1960712043968011
-1.8449820709574771,-1.8449820709574771
-2.5066904836104174,-2.5066904836104174
-2.86878575833859,-2.86878575833859
-2.846201853469889,-2.846201853469889
-2.5932621189404377,-2.5932621189404377
-2.3297832288055926,-2.3297832288055926
-2.1265280849872834,-2.1265280849872834
-1.9503736270114154,-1.9503736270114154
-1.7794887468382443,-1.7794887468382443
-1.674097190784306,-1.674097190784306
-1.6522660827445619,-1.6522660827445619
-1.654524473231432,-1.654524473231432
-1.596559117401766,-1.596559117401766
-1.5092346852427887,-1.5092346852427887
-1.4746060311107805,-1.4746060311107805
-1.531065793282533,-1.531065793282533
-1.601828695204463,-1.601828695204463
-1.6183902254415103,-1.6183902254415103
-1.5860199617963722,-1.5860199617963722
-1.5694584315593247,-1.5694584315593247
-1.570964025217238,-1.570964025217238
-1.5476273235195803,-1.5476273235195803
-1.4843923898872176,-1.4843923898872176
-1.448258142097296,-1.448258142097296
-1.4640668755053867,-1.4640668755053867
-1.4836395930582609,-1.4836395930582609
-1.4362133928339886,-1.4362133928339886
-1.3601809131093618,-1.3601809131093618
-1.3353386177537907,-1.3353386177537907
-1.3895399894386733,-1.3895399894386733
-1.4475053452683393,-1.4475053452683393
-1.452774923071036,-1.452774923071036
-1.405348722846764,-1.405348722846764
-1.3541585384777084,-1.3541585384777084
-1.3187770875167433,-1.3187770875167433
-1.296945979476999,-1.296945979476999
-1.2758676682662113,-1.2758676682662113
-1.2630701221739475,-1.2630701221739475
-1.259306138029164,-1.259306138029164
-1.2585533412002072,-1.2585533412002072
-1.2299470616998527,-1.2299470616998527
-1.1795096741597537,-1.1795096741597537
-1.1381058485671351,-1.1381058485671351
-1.1441282231987888,-1.1441282231987888
-1.178756877330797,-1.178756877330797
-1.1923072202520177,-1.1923072202520177
-1.1501505978304425,-1.1501505978304425
-1.0846572737112095,-1.0846572737112095
-1.0462646354344176,-1.0462646354344176
-1.0635789625004217,-1.0635789625004217
-1.1117579595536506,-1.1117579595536506
-1.1584313629489662,-1.1584313629489662
-1.1682177217254033,-1.1682177217254033
-1.135847458080265,-1.135847458080265
-1.0726125244479023,-1.0726125244479023
-1.0214223400788467,-1.0214223400788467
-1.0048608098417993,-1.0048608098417993
-1.02292793373676,-1.02292793373676
-1.037983870315894,-1.037983870315894
-1.030455902026327,-1.030455902026327
-1.000344028868059,-1.000344028868059
-0.980018514486228,-0.980018514486228
-0.980018514486228,-0.980018514486228
-0.9950744510653621,-0.9950744510653621
-0.9980856383811889,-0.9980856383811889
-0.9815241081441415,-0.9815241081441415
-0.9446370635252631,-0.9446370635252631
-0.9085028157353414,-0.9085028157353414
-0.8874245045245539,-0.8874245045245539
-0.8934468791562075,-0.8934468791562075
-0.8987164569589043,-0.8987164569589043
-0.8814021298929002,-0.8814021298929002
-0.8505374599056755,-0.8505374599056755
-0.8475262725898487,-0.8475262725898487
-0.8701101774585497,-0.8701101774585497
-0.8701101774585497,-0.8701101774585497
-0.8159088057736673,-0.8159088057736673
-0.7594490436019148,-0.7594490436019148
-0.7564378562860881,-0.7564378562860881
-0.7978416818787064,-0.7978416818787064
-0.8053696501682734,-0.8053696501682734
-0.7474042943386076,-0.7474042943386076
-0.6721246114429376,-0.6721246114429376
-0.6570686748638035,-0.6570686748638035
-0.6999780941143354,-0.6999780941143354
-0.7346067482463436,-0.7346067482463436
-0.7082588592328591,-0.7082588592328591
-0.65330469071902,-0.65330469071902
-0.6352375668240592,-0.6352375668240592
-0.6736302051008509,-0.6736302051008509
-0.713528437035556,-0.713528437035556
-0.7014836877722489,-0.7014836877722489
-0.6359903636530159,-0.6359903636530159
-0.5712498363627396,-0.5712498363627396
-0.5449019473492551,-0.5449019473492551
-0.5561938997836056,-0.5561938997836056
-0.5697442427048263,-0.5697442427048263
-0.5667330553889994,-0.5667330553889994
-0.5486659314940386,-0.5486659314940386
-0.5388795727176015,-0.5388795727176015
-0.5486659314940386,-0.5486659314940386
-0.5674858522179561,-0.5674858522179561
-0.5614634775863026,-0.5614634775863026
-0.5132844805330736,-0.5132844805330736
-0.4380047976374036,-0.4380047976374036
-0.38756741009730467,-0.38756741009730467
-0.3853090196104345,-0.3853090196104345
-0.40563453399226546,-0.40563453399226546
-0.40412894033435204,-0.40412894033435204
-0.3702530830313005,-0.3702530830313005
-0.32734366378076857,-0.32734366378076857
-0.3070181493989376,-0.3070181493989376
-0.31454611768850466,-0.31454611768850466
-0.3401412098730325,-0.3401412098730325
-0.3619723179127768,-0.3619723179127768
-0.3634779115706902,-0.3634779115706902
-0.33863561621511906,-0.33863561621511906
-0.2987373842804139,-0.2987373842804139
-0.2603447460036222,-0.2603447460036222
-0.23474965381909435,-0.23474965381909435
-0.22119931089787373,-0.22119931089787373
-0.21442413943726343,-0.21442413943726343
-0.205390577489783,-0.205390577489783
-0.19108743773960574,-0.19108743773960574
-0.17603150116047173,-0.17603150116047173
-0.1700091265288181,-0.1700091265288181
-0.1745259075025583,-0.1745259075025583
-0.18355946945003873,-0.18355946945003873
-0.19184023456856245,-0.19184023456856245
-0.19409862505543252,-0.19409862505543252
-0.1767842979894284,-0.1767842979894284
-0.12935809776515628,-0.12935809776515628
-0.07063994510653361,-0.07063994510653361
-0.04504485292200578,-0.04504485292200578
-0.07590952290923052,-0.07590952290923052
-0.13387487873889647,-0.13387487873889647
-0.1669979392129913,-0.1669979392129913
-0.1572115804365542,-0.1572115804365542
-0.12258292630454597,-0.12258292630454597
-0.08419028802775423,-0.08419028802775423
-0.04278646243513568,-0.04278646243513568
0.013673299736616875,0.013673299736616875
0.08970577946124364,0.08970577946124364
0.17176063381752402,0.17176063381752402
0.2259620055024065,0.2259620055024065
0.23198438013406011,0.23198438013406011
0.2169284435549261,0.2169284435549261
0.2304787864761467,0.2304787864761467
0.28091617401624563,0.28091617401624563
0.3155448281482539,0.3155448281482539
0.28242176767415905,0.28242176767415905
0.19660292917309516,0.19660292917309516
0.12659282408012199,0.12659282408012199
0.11304248115890136,0.11304248115890136
0.1371319796855158,0.1371319796855158
0.15294071309360652,0.15294071309360652
0.1424015574882127,0.1424015574882127
0.12282883993533848,0.12282883993533848
0.10325612238246426,0.10325612238246426
0.08067221751376323,0.08067221751376323
0.051313141184451905,0.051313141184451905
0.03174042363157769,0.03174042363157769
0.03098762680262099,0.03098762680262099
0.02872923631575089,0.02872923631575089
0.013673299736616875,0.013673299736616875
0.004639737789136466,0.004639737789136466
0.023459658513053986,0.023459658513053986
0.05733551581610551,0.05733551581610551
0.07239145239523953,0.07239145239523953
0.05733551581610551,0.05733551581610551
0.024965252170967386,0.024965252170967386
0.005392534618093167,0.005392534618093167
0.0422795792369715,0.0422795792369715
0.17100783698856734,0.17100783698856734
0.36673501251730956,0.36673501251730956
0.5699901563356187,0.5699901563356187
0.7536725826010536,0.7536725826010536
0.9170294944846579,0.9170294944846579
0.9855340059197176,0.9855340059197176
0.8063683606280229,0.8063683606280229
0.30425287571390336,0.30425287571390336
-0.35594994328112317,-0.35594994328112317
-0.8625822091689828,-0.8625822091689828
-1.010130387644496,-1.010130387644496
-0.854301444050459,-0.854301444050459
-0.5960921317183108,-0.5960921317183108
-0.3747698640050407,-0.3747698640050407
-0.19409862505543252,-0.19409862505543252
-0.020955354395391357,-0.020955354395391357
0.12358163676429518,0.12358163676429518
0.20488369429161887,0.20488369429161887
0.2410179420815405,0.2410179420815405
0.2726354088977219,0.2726354088977219
0.2967249074243364,0.2967249074243364
0.28618575181894257,0.28618575181894257
0.259837862805458,0.259837862805458
0.2681186279239817,0.2681186279239817
0.3230727964378209,0.3230727964378209
0.3592070442277425,0.3592070442277425
0.3200616091219941,0.3200616091219941
0.2244564118444931,0.2244564118444931
0.16347986869900033,0.16347986869900033
0.20036691331787868,0.20036691331787868
0.3110280471745137,0.3110280471745137
0.4058804476230579,0.4058804476230579
0.4277115556628023,0.4277115556628023
0.4058804476230579,0.4058804476230579
0.4058804476230579,0.4058804476230579
0.44653147638671975,0.44653147638671975
0.4856769114924682,0.4856769114924682
0.4766433495449878,0.4766433495449878
0.43147553980758574,0.43147553980758574
0.4058804476230579,0.4058804476230579
0.4344867271234126,0.4344867271234126
0.4856769114924682,0.4856769114924682
0.511272003676996,0.511272003676996
0.5022384417295156,0.5022384417295156
0.4992272544136888,0.4992272544136888
0.518799971966563,0.518799971966563
0.5315975180588269,0.5315975180588269
0.5105192068480393,0.5105192068480393
0.4849241146635115,0.4849241146635115
0.5075080195322126,0.5075080195322126
0.5873044834016228,0.5873044834016228
0.6640897599552062,0.6640897599552062
0.6814040870212104,0.6814040870212104
0.6362362772838084,0.6362362772838084
0.5805293119410125,0.5805293119410125
0.548911845124831,0.548911845124831
0.546653454637961,0.546653454637961
0.561709391217095,0.561709391217095
0.59709084217806,0.59709084217806
0.6490338233760723,0.6490338233760723
0.6979656172582578,0.6979656172582578
0.7137743506663485,0.7137743506663485
0.6994712109161713,0.6994712109161713
0.6746289155606001,0.6746289155606001
0.6633369631262496,0.6633369631262496
0.6663481504420764,0.6663481504420764
0.6753817123895568,0.6753817123895568
0.6693593377579032,0.6693593377579032
0.6377418709417217,0.6377418709417217
0.5925740612043198,0.5925740612043198
0.5745069373093589,0.5745069373093589
0.6128995755861506,0.6128995755861506
0.6949544299424311,0.6949544299424311
0.7687285191801877,0.7687285191801877
0.7905596272199321,0.7905596272199321
0.7461446143114867,0.7461446143114867
0.67237052507373,0.67237052507373
0.6181691533888476,0.6181691533888476
0.6204275438757176,0.6204275438757176
0.6678537440999898,0.6678537440999898
0.7235607094427856,0.7235607094427856
0.7581893635747938,0.7581893635747938
0.7785148779566249,0.7785148779566249
0.7905596272199321,0.7905596272199321
0.795829205022629,0.795829205022629
0.7928180177068022,0.7928180177068022
0.8078739542859362,0.8078739542859362
0.853794560852295,0.853794560852295
0.9117599166819609,0.9117599166819609
0.9396133993533589,0.9396133993533589
0.9185350881425712,0.9185350881425712
0.8553001545102084,0.8553001545102084
0.7845372525882784,0.7845372525882784
0.7408750365087897,0.7408750365087897
0.7499085984562702,0.7499085984562702
0.7920652208778455,0.7920652208778455
0.8274466718388105,0.8274466718388105
0.8244354845229837,0.8244354845229837
0.8071211574569795,0.8071211574569795
0.8063683606280229,0.8063683606280229
0.8312106559835939,0.8312106559835939
0.853794560852295,0.853794560852295
0.8620753259708187,0.8620753259708187
0.8658393101156022,0.8658393101156022
0.8884232149843032,0.8884232149843032
0.9238046659452681,0.9238046659452681
0.9516581486166661,0.9516581486166661
0.9539165391035361,0.9539165391035361
0.9448829771560557,0.9448829771560557
0.9433773834981424,0.9433773834981424
0.9561749295904063,0.9561749295904063
0.9539165391035361,0.9539165391035361
0.9207934786294413,0.9207934786294413
0.8673449037735156,0.8673449037735156
0.8432554052469011,0.8432554052469011
0.8854120276684764,0.8854120276684764
0.9923091773803279,0.9923091773803279
1.1037231080659196,1.1037231080659196
1.1624412607245422,1.1624412607245422
1.1519021051191485,1.1519021051191485
1.1074870922107032,1.1074870922107032
1.0480161427231238,1.0480161427231238
0.9757476471432804,0.9757476471432804
0.904231948392394,0.904231948392394
0.8854120276684764,0.8854120276684764
0.9381078056954455,0.9381078056954455
1.0163986759069423,1.0163986759069423
1.0472633458941671,1.0472633458941671
1.0216682537096393,1.0216682537096393
0.9825228186038908,0.9825228186038908
0.9810172249459774,0.9810172249459774
1.0201626600517257,1.0201626600517257
1.082644796855132,1.082644796855132
1.1285654034214907,1.1285654034214907
1.1345877780531444,1.1345877780531444
1.0916783588026124,1.0916783588026124
1.0329602061439898,1.0329602061439898
1.0005899424988516,1.0005899424988516
1.0201626600517257,1.0201626600517257
1.0615664856443443,1.0615664856443443
1.0841503905130454,1.0841503905130454
1.0668360634470413,1.0668360634470413
1.0389825807756434,1.0389825807756434
1.029949018828163,1.029949018828163
1.0510273300389505,1.0510273300389505
1.0909255619736558,1.0909255619736558
1.1458797304874948,1.1458797304874948
1.2015866958302908,1.2015866958302908
1.2444961150808227,1.2444961150808227
1.2633160358047402,1.2633160358047402
1.2821359565286576,1.2821359565286576
1.311495032857969,1.311495032857969
1.344618093332064,1.344618093332064
1.356662842595371,1.356662842595371
1.356662842595371,1.356662842595371
1.3596740299111978,1.3596740299111978
1.3754827633192885,1.3754827633192885
1.389785903069466,1.389785903069466
1.3927970903852926,1.3927970903852926
1.3762355601482452,1.3762355601482452
1.3521460616216308,1.3521460616216308
1.3378429218714536,1.3378429218714536
1.3574156394243277,1.3574156394243277
1.384516325266769,1.384516325266769
1.3762355601482452,1.3762355601482452
1.3077310487131855,1.3077310487131855
1.2279345848437753,1.2279345848437753
1.1820139782774164,1.1820139782774164
1.1752388068168063,1.1752388068168063
1.1677108385272392,1.1677108385272392
1.142868543171668,1.142868543171668
1.1187790446450536,1.1187790446450536
1.120284638302967,1.120284638302967
1.1315765907373174,1.1315765907373174
1.1248014192767073,1.1248014192767073
1.0894199683157424,1.0894199683157424
1.0638248761312146,1.0638248761312146
1.0736112349076516,1.0736112349076516
1.1285654034214907,1.1285654034214907
1.2173954292383815,1.2173954292383815
1.3506404679637174,1.3506404679637174
1.5185141608210617,1.5185141608210617
1.7127357426918906,1.7127357426918906
1.92276605797081,1.92276605797081
2.1207516239864224,2.1207516239864224
2.1689306210396513,2.1689306210396513
1.9062045277337627,1.9062045277337627
1.3318205472398,1.3318205472398
0.6972128204293011,0.6972128204293011
0.28317456450311573,0.28317456450311573
0.18154699259396115,0.18154699259396115
0.28693854864789925,0.28693854864789925
0.4826657241766414,0.4826657241766414
0.702482398231998,0.702482398231998
0.9102543230240475,0.9102543230240475
1.0668360634470413,1.0668360634470413
1.1692164321851526,1.1692164321851526
1.2271817880148186,1.2271817880148186
1.2572936611730865,1.2572936611730865
1.2678328167784805,1.2678328167784805
1.2798775660417876,1.2798775660417876
1.2949335026209217,1.2949335026209217
1.306225455055272,1.306225455055272
1.300955877252575,1.300955877252575
1.3054726582263154,1.3054726582263154
1.3303149535818866,1.3303149535818866
1.3664492013718081,1.3664492013718081
1.3709659823455485,1.3709659823455485
1.343865296503107,1.343865296503107
1.311495032857969,1.311495032857969
1.3175174074896225,1.3175174074896225
1.3611796235691112,1.3611796235691112
1.40935862062234,1.40935862062234
1.4198977762277338,1.4198977762277338
1.3950554808721627,1.3950554808721627
1.3649436077138948,1.3649436077138948
1.3679547950297215,1.3679547950297215
1.4003250586748597,1.4003250586748597
1.4394704937806082,1.4394704937806082
1.450009649386002,1.450009649386002
1.4379649001226948,1.4379649001226948
1.4296841350041711,1.4296841350041711
1.4560320240176556,1.4560320240176556
1.4891550844917505,1.4891550844917505
1.4921662718075772,1.4921662718075772
1.4590432113334824,1.4590432113334824
1.4492568525570453,1.4492568525570453
1.4936718654654906,1.4936718654654906
1.5576595959268102,1.5576595959268102
1.565940361045334,1.565940361045334
1.507975005215668,1.507975005215668
1.4319425254910412,1.4319425254910412
1.4063474333065134,1.4063474333065134
1.434953712806868,1.434953712806868
1.4868966940048802,1.4868966940048802
1.5139973798473214,1.5139973798473214
1.510233395702538,1.510233395702538
1.4936718654654906,1.4936718654654906
1.4996942400971442,1.4996942400971442
1.5298061132554122,1.5298061132554122
1.5689515483611607,1.5689515483611607
1.5794907039665544,1.5794907039665544
1.5538956117820266,1.5538956117820266
1.5011998337550576,1.5011998337550576
1.459796008162439,1.459796008162439
1.4492568525570453,1.4492568525570453
1.4763575383994865,1.4763575383994865
1.5185141608210617,1.5185141608210617
1.562929173729507,1.562929173729507
1.5772323134796844,1.5772323134796844
1.5546484086109833,1.5546484086109833
1.5042110210708843,1.5042110210708843
1.4710879605967895,1.4710879605967895
1.4756047415705298,1.4756047415705298
1.5064694115577546,1.5064694115577546
1.5230309417948018,1.5230309417948018
1.5185141608210617,1.5185141608210617
1.4996942400971442,1.4996942400971442
1.4861438971759235,1.4861438971759235
1.4733463510836597,1.4733463510836597
1.4688295701099194,1.4688295701099194
1.474851944741573,1.474851944741573
1.4989414432681876,1.4989414432681876
1.5192669576500184,1.5192669576500184
1.5245365354527154,1.5245365354527154
1.5109861925314947,1.5109861925314947
1.512491786189408,1.512491786189408
1.5448620498345462,1.5448620498345462
1.6005690151773422,1.6005690151773422
1.62842249784874,1.62842249784874
1.608849780295866,1.608849780295866
1.562929173729507,1.562929173729507
1.5448620498345462,1.5448620498345462
1.5471204403214163,1.5471204403214163
1.532817300571239,1.532817300571239
1.4891550844917505,1.4891550844917505
1.474851944741573,1.474851944741573
1.515502973505235,1.515502973505235
1.5719627356769874,1.5719627356769874
1.5794907039665544,1.5794907039665544
1.5508844244662,1.5508844244662
1.5343228942291525,1.5343228942291525
1.545614846663503,1.545614846663503
1.5365812847160225,1.5365812847160225
1.4868966940048802,1.4868966940048802
1.4357065096358246,1.4357065096358246
1.452268039872872,1.452268039872872
1.532817300571239,1.532817300571239
1.6148721549275193,1.6148721549275193
1.6246585137039564,1.6246585137039564
1.5764795166507277,1.5764795166507277
1.5260421291106288,1.5260421291106288
1.5275477227685421,1.5275477227685421
1.5599179864136803,1.5599179864136803
1.5840074849402948,1.5840074849402948
1.560670783242637,1.560670783242637
1.507975005215668,1.507975005215668
1.4628071954782658,1.4628071954782658
1.4710879605967895,1.4710879605967895
1.5192669576500184,1.5192669576500184
1.5689515483611607,1.5689515483611607
1.5772323134796844,1.5772323134796844
1.5561540022688967,1.5561540022688967
1.532817300571239,1.532817300571239
1.5305589100843688,1.5305589100843688
1.5358284878870658,1.5358284878870658
1.5426036593476762,1.5426036593476762
1.5471204403214163,1.5471204403214163
1.565940361045334,1.565940361045334
1.5870186722561215,1.5870186722561215
1.5975578278615152,1.5975578278615152
1.5817490944534245,1.5817490944534245
1.5576595959268102,1.5576595959268102
1.5335700974001958,1.5335700974001958
1.520019754478975,1.520019754478975
1.510233395702538,1.510233395702538
1.5117389893604514,1.5117389893604514
1.5072222083867113,1.5072222083867113
1.4861438971759235,1.4861438971759235
1.4507624462149586,1.4507624462149586
1.442481681096435,1.442481681096435
1.4680767732809628,1.4680767732809628
1.5034582242419277,1.5034582242419277
1.507975005215668,1.507975005215668
1.4981886464392309,1.4981886464392309
1.5034582242419277,1.5034582242419277
1.5350756910581091,1.5350756910581091
1.5523900181241133,1.5523900181241133
1.5448620498345462,1.5448620498345462
1.5343228942291525,1.5343228942291525
1.5666931578742906,1.5666931578742906
1.6367032629672638,1.6367032629672638
1.7021965870864968,1.7021965870864968
1.724027695126241,1.724027695126241
1.7202637109814576,1.7202637109814576
1.7210165078104143,1.7210165078104143
1.7420948190212018,1.7420948190212018
1.7563979587713792,1.7563979587713792
1.7541395682845091,1.7541395682845091
1.7330612570737214,1.7330612570737214
1.7044549775733668,1.7044549775733668
1.6525119963753545,1.6525119963753545
1.5794907039665544,1.5794907039665544
1.5139973798473214,1.5139973798473214
1.5064694115577546,1.5064694115577546
1.547873237150373,1.547873237150373
1.5877714690850782,1.5877714690850782
1.5749739229928144,1.5749739229928144
1.5335700974001958,1.5335700974001958
1.4944246622944473,1.4944246622944473
1.474851944741573,1.474851944741573
1.4560320240176556,1.4560320240176556
1.4409760874385216,1.4409760874385216
1.4281785413462575,1.4281785413462575
1.4101114174512968,1.4101114174512968
1.361932420398068,1.361932420398068
1.2919223153050947,1.2919223153050947
1.2294401785016886,1.2294401785016886
1.2113730546067278,1.2113730546067278
1.2377209436202123,1.2377209436202123
1.3054726582263154,1.3054726582263154
1.4086058237933834,1.4086058237933834
1.55314281495307,1.55314281495307
1.7157469300077173,1.7157469300077173
1.8843734196940183,1.8843734196940183
2.0627862681567564,2.0627862681567564
2.244963100764278,2.244963100764278
2.302175659764987,2.302175659764987
2.060527877669886,2.060527877669886
1.4823799130311401,1.4823799130311401
0.8018515796542826,0.8018515796542826
0.3306007647273879,0.3306007647273879
0.2229508181865797,0.2229508181865797
0.37576857446478995,0.37576857446478995
0.6098883882703239,0.6098883882703239
0.8123907352596764,0.8123907352596764
0.979511631288064,0.979511631288064
1.1127566700134,1.1127566700134
1.2053506799750742,1.2053506799750742
1.2467545055676927,1.2467545055676927
1.2685856136074372,1.2685856136074372
1.2896639248182247,1.2896639248182247
1.3122478296869258,1.3122478296869258
1.3250453757791896,1.3250453757791896
1.3453708901610206,1.3453708901610206
1.358921233082241,1.358921233082241
1.339348515529367,1.339348515529367
1.276113581897004,1.276113581897004
1.2316985689885587,1.2316985689885587
1.248260099225606,1.248260099225606
1.3069782518842288,1.3069782518842288
1.3408541091872803,1.3408541091872803
1.3385957187004103,1.3385957187004103
1.3257981726081463,1.3257981726081463
1.3205285948054495,1.3205285948054495
1.3047198613973587,1.3047198613973587
1.2768663787259609,1.2768663787259609
1.2557880675151731,1.2557880675151731
1.2708440040943072,1.2708440040943072
1.311495032857969,1.311495032857969
1.351393264792674,1.351393264792674
1.3664492013718081,1.3664492013718081
1.3694603886876349,1.3694603886876349
1.3694603886876349,1.3694603886876349
1.3634380140559814,1.3634380140559814
1.3303149535818866,1.3303149535818866
1.2768663787259609,1.2768663787259609
1.226428991185862,1.226428991185862
1.2128786482646412,1.2128786482646412
1.236215349962299,1.236215349962299
1.2828887533576143,1.2828887533576143
1.311495032857969,1.311495032857969
1.3024614709104887,1.3024614709104887
1.2595520516599568,1.2595520516599568
1.2241706006989916,1.2241706006989916
1.2166426324094246,1.2166426324094246
1.2324513658175154,1.2324513658175154
1.2422377245939527,1.2422377245939527
1.2414849277649957,1.2414849277649957
1.236215349962299,1.236215349962299
1.2399793341070824,1.2399793341070824
1.2429905214229093,1.2429905214229093
1.2377209436202123,1.2377209436202123
1.221159413383165,1.221159413383165
1.2030922894882041,1.2030922894882041
1.175991603645763,1.175991603645763
1.142868543171668,1.142868543171668
1.1187790446450536,1.1187790446450536
1.1338349812241877,1.1338349812241877
1.1752388068168063,1.1752388068168063
1.1993283053434205,1.1993283053434205
1.1677108385272392,1.1677108385272392
1.105228701723833,1.105228701723833
1.0630720793022577,1.0630720793022577
1.065330469789128,1.065330469789128
1.072858438078695,1.072858438078695
1.0502745332099939,1.0502745332099939
0.9990843488409382,0.9990843488409382
0.9621973042220598,0.9621973042220598
0.9546693359324928,0.9546693359324928
0.9667140851958,0.9667140851958
0.9734892566564104,0.9734892566564104
0.9862868027486743,0.9862868027486743
1.012634691762159,1.012634691762159
1.0389825807756434,1.0389825807756434
1.029949018828163,1.029949018828163
0.9885451932355444,0.9885451932355444
0.9554221327614496,0.9554221327614496
0.9742420534853671,0.9742420534853671
1.0276906283412928,1.0276906283412928
1.060060891986431,1.060060891986431
1.0276906283412928,1.0276906283412928
0.9561749295904063,0.9561749295904063
0.9027263547344805,0.9027263547344805
0.9004679642476104,0.9004679642476104
0.9185350881425712,0.9185350881425712
0.9132655103398744,0.9132655103398744
0.8703560910893424,0.8703560910893424
0.8274466718388105,0.8274466718388105
0.8199187035492435,0.8199187035492435
0.8409970147600311,0.8409970147600311
0.8379858274442042,0.8379858274442042
0.7837844557593218,0.7837844557593218
0.7107631633505217,0.7107631633505217
0.6911904457976475,0.6911904457976475
0.7491558016273134,0.7491558016273134
0.8327162496415074,0.8327162496415074
0.8658393101156022,0.8658393101156022
0.8297050623256805,0.8297050623256805
0.7657173318643609,0.7657173318643609
0.7288302872454826,0.7288302872454826
0.7333470682192228,0.7333470682192228
0.7544253794300104,0.7544253794300104
0.7506613952852269,0.7506613952852269
0.707751976034695,0.707751976034695
0.6445170424023321,0.6445170424023321
0.6046188104676269,0.6046188104676269
0.59934923266493,0.59934923266493
0.6098883882703239,0.6098883882703239
0.6121467787571939,0.6121467787571939
0.6128995755861506,0.6128995755861506
0.6324722931390249,0.6324722931390249
0.6693593377579032,0.6693593377579032
0.6783928997053836,0.6783928997053836
0.6309666994811115,0.6309666994811115
0.5564398134143981,0.5564398134143981
0.5203055656244765,0.5203055656244765
0.5398782831773506,0.5398782831773506
0.5684845626777053,0.5684845626777053
0.5511702356117012,0.5511702356117012
0.49847445758473213,0.49847445758473213
0.45104825736046,0.45104825736046
0.43072274297862906,0.43072274297862906
0.42620596200488886,0.42620596200488886
0.43298113346549916,0.43298113346549916
0.44577867955776307,0.44577867955776307
0.45104825736046,0.45104825736046
0.42846435249175896,0.42846435249175896
0.3885661205570538,0.3885661205570538
0.3592070442277425,0.3592070442277425
0.3592070442277425,0.3592070442277425
0.36748780934626624,0.36748780934626624
0.3592070442277425,0.3592070442277425
0.3343647488721714,0.3343647488721714
0.3200616091219941,0.3200616091219941
0.3260839837536477,0.3260839837536477
0.3336119520432147,0.3336119520432147
0.310275250345557,0.310275250345557
0.26284905012128484,0.26284905012128484
0.23951234842362712,0.23951234842362712
0.28166897084520237,0.28166897084520237
0.3577014505698291,0.3577014505698291
0.40286926030723114,0.40286926030723114
0.3998580729914043,0.3998580729914043
0.3945884951887074,0.3945884951887074
0.41566680639949505,0.41566680639949505
0.4390035080971528,0.4390035080971528
0.44653147638671975,0.44653147638671975
0.4630930066237672,0.4630930066237672
0.49169928612412184,0.49169928612412184
0.4728793654002043,0.4728793654002043
0.35845424739878584,0.35845424739878584
0.20488369429161887,0.20488369429161887
0.12584002725116528,0.12584002725116528
0.1559519004094333,0.1559519004094333
0.20714208477848897,0.20714208477848897
0.18681657039665803,0.18681657039665803
0.11003129384307457,0.11003129384307457
0.06411068727671582,0.06411068727671582
0.06260509361880241,0.06260509361880241
0.02797643948679419,0.02797643948679419
-0.08117910071192742,-0.08117910071192742
-0.19485142188438923,-0.19485142188438923
-0.21743532675309024,-0.21743532675309024
-0.1624811582392511,-0.1624811582392511
-0.11430216118602225,-0.11430216118602225
-0.11354936435706556,-0.11354936435706556
-0.12935809776515628,-0.12935809776515628
-0.12634691044932947,-0.12634691044932947
-0.11430216118602225,-0.11430216118602225
-0.10150461509375834,-0.10150461509375834
-0.0593479926721831,-0.0593479926721831
0.04980754752653851,0.04980754752653851
0.2131644594101426,0.2131644594101426
0.3870605268991404,0.3870605268991404
0.5526758292696146,0.5526758292696146
0.6851680711659939,0.6851680711659939
0.6829096806791238,0.6829096806791238
0.3968468856755775,0.3968468856755775
-0.18355946945003873,-0.18355946945003873
-0.8354815233265415,-0.8354815233265415
-1.2570477475422939,-1.2570477475422939
-1.3150131033719599,-1.3150131033719599
-1.1012188039482569,-1.1012188039482569
-0.7948304945628797,-0.7948304945628797
-0.522318042480554,-0.522318042480554
-0.34164680353094584,-0.34164680353094584
-0.2595919491746655,-0.2595919491746655
-0.25432237137196856,-0.25432237137196856
-0.2806702603854531,-0.2806702603854531
-0.2972317906225005,-0.2972317906225005
-0.2866926350171067,-0.2866926350171067
-0.2580863555167521,-0.2580863555167521
-0.22195210772683044,-0.22195210772683044
-0.18054828213421192,-0.18054828213421192
-0.1421556438574202,-0.1421556438574202
-0.12785250410724286,-0.12785250410724286
-0.14591962800220368,-0.14591962800220368
-0.1700091265288181,-0.1700091265288181
-0.1745259075025583,-0.1745259075025583
-0.160222767752381,-0.160222767752381
-0.1429084406863769,-0.1429084406863769
-0.13688606605472328,-0.13688606605472328
-0.16323395506820781,-0.16323395506820781
-0.24227762210866136,-0.24227762210866136
-0.33261324158346545,-0.33261324158346545
-0.3529387559652964,-0.3529387559652964
-0.2641087301484057,-0.2641087301484057
-0.13839165971263667,-0.13839165971263667
-0.07440392925131711,-0.07440392925131711
-0.09774063094897484,-0.09774063094897484
-0.14817801848907378,-0.14817801848907378
-0.17377311067360163,-0.17377311067360163
-0.18807625042377893,-0.18807625042377893
-0.22496329504265725,-0.22496329504265725
-0.2686255111221459,-0.2686255111221459
-0.270883901609016,-0.270883901609016
-0.22646888870057064,-0.22646888870057064
-0.19184023456856245,-0.19184023456856245
-0.20614337431873972,-0.20614337431873972
-0.24227762210866136,-0.24227762210866136
-0.24905279356927168,-0.24905279356927168
-0.22496329504265725,-0.22496329504265725
-0.19485142188438923,-0.19485142188438923
-0.1745259075025583,-0.1745259075025583
-0.16097556458133772,-0.16097556458133772
-0.1700091265288181,-0.1700091265288181
-0.21066015529247992,-0.21066015529247992
-0.2550751682009253,-0.2550751682009253
-0.24980559039822836,-0.24980559039822836
-0.19033464091064903,-0.19033464091064903
-0.13538047239680986,-0.13538047239680986
-0.1504364089759439,-0.1504364089759439
-0.22722168552952735,-0.22722168552952735
-0.2987373842804139,-0.2987373842804139
-0.316051711346418,-0.316051711346418
-0.3002429779383273,-0.3002429779383273
-0.2851870413591933,-0.2851870413591933
-0.27389508892484277,-0.27389508892484277
-0.2595919491746655,-0.2595919491746655
-0.2618503396615356,-0.2618503396615356
-0.28593983818815,-0.28593983818815
-0.3032541652541541,-0.3032541652541541
-0.2904566191618902,-0.2904566191618902
-0.2776590730696263,-0.2776590730696263
-0.29798458745145723,-0.29798458745145723
-0.3401412098730325,-0.3401412098730325
-0.3619723179127768,-0.3619723179127768
-0.3529387559652964,-0.3529387559652964
-0.33863561621511906,-0.33863561621511906
-0.3333660384124221,-0.3333660384124221
-0.32583807012285515,-0.32583807012285515
-0.3077709462278943,-0.3077709462278943
-0.29346780647771703,-0.29346780647771703
-0.300995774767284,-0.300995774767284
-0.3183101018332881,-0.3183101018332881
-0.3183101018332881,-0.3183101018332881
-0.3032541652541541,-0.3032541652541541
-0.3077709462278943,-0.3077709462278943
-0.3401412098730325,-0.3401412098730325
-0.3732642703471273,-0.3732642703471273
-0.3822978322946077,-0.3822978322946077
-0.389073003755218,-0.389073003755218
-0.409398518137049,-0.409398518137049
-0.41617368959765927,-0.41617368959765927
-0.3838034259525211,-0.3838034259525211
-0.3423996003599026,-0.3423996003599026
-0.33411883524137886,-0.33411883524137886
-0.35896113059694995,-0.35896113059694995
-0.381545035465651,-0.381545035465651
-0.38606181643939125,-0.38606181643939125
-0.3755226608339974,-0.3755226608339974
-0.36272511474173347,-0.36272511474173347
-0.3536915527942531,-0.3536915527942531
-0.36272511474173347,-0.36272511474173347
-0.38982580058417476,-0.38982580058417476
-0.4131625022818325,-0.4131625022818325
-0.4071401276501789,-0.4071401276501789
-0.3838034259525211,-0.3838034259525211
-0.3785338481498242,-0.3785338481498242
-0.4071401276501789,-0.4071401276501789
-0.4304768293478366,-0.4304768293478366
-0.4086457213080923,-0.4086457213080923
-0.35670274011007985,-0.35670274011007985
-0.3423996003599026,-0.3423996003599026
-0.38832020692626135,-0.38832020692626135
-0.4417687817821871,-0.4417687817821871
-0.4440271722690572,-0.4440271722690572
-0.40789292447913555,-0.40789292447913555
-0.3838034259525211,-0.3838034259525211
-0.39057859741313145,-0.39057859741313145
-0.40563453399226546,-0.40563453399226546
-0.41843208008452937,-0.41843208008452937
-0.4312296261767933,-0.4312296261767933
-0.4462855627559273,-0.4462855627559273
-0.454566327874451,-0.454566327874451
-0.45983590567714794,-0.45983590567714794
-0.4605887025061046,-0.4605887025061046
-0.447038359584884,-0.447038359584884
-0.4109041117949624,-0.4109041117949624
-0.374017067176084,-0.374017067176084
-0.3642307083996469,-0.3642307083996469
-0.3845562227814778,-0.3845562227814778
-0.4048817371633088,-0.4048817371633088
-0.40111775301852526,-0.40111775301852526
-0.3822978322946077,-0.3822978322946077
-0.3838034259525211,-0.3838034259525211
-0.42069047057139947,-0.42069047057139947
-0.4741390454273252,-0.4741390454273252
-0.5117788868751603,-0.5117788868751603
-0.5283404171122077,-0.5283404171122077
-0.5388795727176015,-0.5388795727176015
-0.5516771188098654,-0.5516771188098654
-0.5471603378361252,-0.5471603378361252
-0.5095204963882901,-0.5095204963882901
-0.45983590567714794,-0.45983590567714794
-0.43198242300575,-0.43198242300575
-0.4176792832555727,-0.4176792832555727
-0.3785338481498242,-0.3785338481498242
-0.30626535256998094,-0.30626535256998094
-0.2528167777140552,-0.2528167777140552
-0.2595919491746655,-0.2595919491746655
-0.2987373842804139,-0.2987373842804139
-0.3002429779383273,-0.3002429779383273
-0.24980559039822836,-0.24980559039822836
-0.20463778066082633,-0.20463778066082633
-0.21743532675309024,-0.21743532675309024
-0.2641087301484057,-0.2641087301484057
-0.2836814477012799,-0.2836814477012799
-0.25432237137196856,-0.25432237137196856
-0.21894092041100363,-0.21894092041100363
-0.21141295212143663,-0.21141295212143663
-0.22044651406891705,-0.22044651406891705
-0.22421049821370054,-0.22421049821370054
-0.23776084113492116,-0.23776084113492116
-0.2799174635564964,-0.2799174635564964
-0.32659086695181183,-0.32659086695181183
-0.3378828193861624,-0.3378828193861624
-0.3228268828070283,-0.3228268828070283
-0.3378828193861624,-0.3378828193861624
-0.42294886105826957,-0.42294886105826957
-0.5471603378361252,-0.5471603378361252
-0.6397543477977994,-0.6397543477977994
-0.6480351129163231,-0.6480351129163231
-0.5817889919681334,-0.5817889919681334
-0.48994777883541596,-0.48994777883541596
-0.43198242300575,-0.43198242300575
-0.447038359584884,-0.447038359584884
-0.5260820266253375,-0.5260820266253375
-0.587811366599787,-0.587811366599787
-0.5456547441782118,-0.5456547441782118
-0.3935897847289582,-0.3935897847289582
-0.21367134260830672,-0.21367134260830672
-0.0578423990142697,-0.0578423990142697
0.11003129384307457,0.11003129384307457
0.3230727964378209,0.3230727964378209
0.4781489432029012,0.4781489432029012
0.39157730787288064,0.39157730787288064
-0.02170815122434806,-0.02170815122434806
-0.6224400207317953,-0.6224400207317953
-1.156172972462096,-1.156172972462096
-1.4497637357552093,-1.4497637357552093
-1.503212310611135,-1.503212310611135
-1.4030903323598938,-1.4030903323598938
-1.219407906094459,-1.219407906094459
-0.9867936859468384,-0.9867936859468384
-0.7579434499440014,-0.7579434499440014
-0.5900697570866571,-0.5900697570866571
-0.5019925280987232,-0.5019925280987232
-0.4628470929929747,-0.4628470929929747
-0.4477911564138407,-0.4477911564138407
-0.4515551405586242,-0.4515551405586242
-0.47564463908523863,-0.47564463908523863
-0.49672295029602626,-0.49672295029602626
-0.4891949820064592,-0.4891949820064592
-0.4500495469007108,-0.4500495469007108
-0.4109041117949624,-0.4109041117949624
-0.4063873308212222,-0.4063873308212222
-0.4387575944663603,-0.4387575944663603
-0.47715023274315205,-0.47715023274315205
-0.4869365915195891,-0.4869365915195891
-0.4613414993350613,-0.4613414993350613
-0.4259600483740964,-0.4259600483740964
-0.39735376887374174,-0.39735376887374174
-0.3838034259525211,-0.3838034259525211
-0.3755226608339974,-0.3755226608339974
-0.3747698640050407,-0.3747698640050407
-0.38832020692626135,-0.38832020692626135
-0.4199376737424428,-0.4199376737424428
-0.4500495469007108,-0.4500495469007108
-0.45983590567714794,-0.45983590567714794
-0.4492967500717541,-0.4492967500717541
-0.4387575944663603,-0.4387575944663603
-0.42972403251887986,-0.42972403251887986
-0.409398518137049,-0.409398518137049
-0.3807922386366943,-0.3807922386366943
-0.3687474893733871,-0.3687474893733871
-0.3755226608339974,-0.3755226608339974
-0.36724189571547367,-0.36724189571547367
-0.32357967963598505,-0.32357967963598505
-0.2851870413591933,-0.2851870413591933
-0.3070181493989376,-0.3070181493989376
-0.3853090196104345,-0.3853090196104345
-0.4410159849532304,-0.4410159849532304
-0.41843208008452937,-0.41843208008452937
-0.3446579908467727,-0.3446579908467727
-0.30174857159624074,-0.30174857159624074
-0.32357967963598505,-0.32357967963598505
-0.3687474893733871,-0.3687474893733871
-0.374017067176084,-0.374017067176084
-0.34089400670198916,-0.34089400670198916
-0.31078213354372114,-0.31078213354372114
-0.3122877272016345,-0.3122877272016345
-0.32809646060972525,-0.32809646060972525
-0.3356244288992922,-0.3356244288992922
-0.33863561621511906,-0.33863561621511906
-0.35896113059694995,-0.35896113059694995
-0.3913313942420881,-0.3913313942420881
-0.41617368959765927,-0.41617368959765927
-0.4191848769134861,-0.4191848769134861
-0.4109041117949624,-0.4109041117949624
-0.39885936253165516,-0.39885936253165516
-0.3822978322946077,-0.3822978322946077
-0.35896113059694995,-0.35896113059694995
-0.3469163813336428,-0.3469163813336428
-0.3551971464521665,-0.3551971464521665
-0.3710058798602572,-0.3710058798602572
-0.36272511474173347,-0.36272511474173347
-0.33411883524137886,-0.33411883524137886
-0.3333660384124221,-0.3333660384124221
-0.3958481752158284,-0.3958481752158284
-0.4741390454273252,-0.4741390454273252
-0.484678201032719,-0.484678201032719
-0.40337614350539536,-0.40337614350539536
-0.3070181493989376,-0.3070181493989376
-0.2791646667275397,-0.2791646667275397
-0.31906289866224485,-0.31906289866224485
-0.3597139274259067,-0.3597139274259067
-0.3657363020575603,-0.3657363020575603
-0.35896113059694995,-0.35896113059694995
-0.36724189571547367,-0.36724189571547367
-0.3679946925444304,-0.3679946925444304
-0.33261324158346545,-0.33261324158346545
-0.2791646667275397,-0.2791646667275397
-0.26109754283257885,-0.26109754283257885
-0.2994901811093706,-0.2994901811093706
-0.3551971464521665,-0.3551971464521665
-0.389073003755218,-0.389073003755218
-0.4109041117949624,-0.4109041117949624
-0.4425215786111438,-0.4425215786111438
-0.4718806549404551,-0.4718806549404551
-0.4613414993350613,-0.4613414993350613
-0.41165690862391907,-0.41165690862391907
-0.3687474893733871,-0.3687474893733871
-0.3710058798602572,-0.3710058798602572
-0.3981065657026985,-0.3981065657026985
-0.40111775301852526,-0.40111775301852526
-0.35670274011007985,-0.35670274011007985
-0.29346780647771703,-0.29346780647771703
-0.2528167777140552,-0.2528167777140552
-0.2595919491746655,-0.2595919491746655
-0.3077709462278943,-0.3077709462278943
-0.374017067176084,-0.374017067176084
-0.4214432674003562,-0.4214432674003562
-0.4221960642293129,-0.4221960642293129
-0.3792866449787809,-0.3792866449787809
-0.3333660384124221,-0.3333660384124221
-0.31906289866224485,-0.31906289866224485
-0.3333660384124221,-0.3333660384124221
-0.34390519401781594,-0.34390519401781594
-0.33487163207033555,-0.33487163207033555
-0.31454611768850466,-0.31454611768850466
-0.2964789937935438,-0.2964789937935438
-0.2814230572144098,-0.2814230572144098
-0.2754006825827562,-0.2754006825827562
-0.2866926350171067,-0.2866926350171067
-0.31981569549120153,-0.31981569549120153
-0.34842197499155614,-0.34842197499155614
-0.34842197499155614,-0.34842197499155614
-0.33261324158346545,-0.33261324158346545
-0.3469163813336428,-0.3469163813336428
-0.39660097204478506,-0.39660097204478506
-0.4282184388609665,-0.4282184388609665
-0.39208419107104486,-0.39208419107104486
-0.3183101018332881,-0.3183101018332881
-0.2723894952669294,-0.2723894952669294
-0.28895102550397683,-0.28895102550397683
-0.3469163813336428,-0.3469163813336428
-0.4063873308212222,-0.4063873308212222
-0.42520725154513966,-0.42520725154513966
-0.3777810513208675,-0.3777810513208675
-0.2904566191618902,-0.2904566191618902
-0.23776084113492116,-0.23776084113492116
-0.26335593331944895,-0.26335593331944895
-0.33637722572824896,-0.33637722572824896
-0.3958481752158284,-0.3958481752158284
-0.41240970545287575,-0.41240970545287575
-0.3807922386366943,-0.3807922386366943
-0.30174857159624074,-0.30174857159624074
-0.1933458282264758,-0.1933458282264758
-0.11129097387019546,-0.11129097387019546
-0.09849342777793155,-0.09849342777793155
-0.13538047239680986,-0.13538047239680986
-0.152694799462814,-0.152694799462814
-0.11053817704123875,-0.11053817704123875
-0.029988916342871767,-0.029988916342871767
0.02797643948679419,0.02797643948679419
0.023459658513053986,0.023459658513053986
-0.03826968146139548,-0.03826968146139548
-0.10903258338332535,-0.10903258338332535
-0.145166831173247,-0.145166831173247
-0.1444140343442903,-0.1444140343442903
-0.13914445654159338,-0.13914445654159338
-0.1579643772655109,-0.1579643772655109
-0.18657065676586554,-0.18657065676586554
-0.18958184408169232,-0.18958184408169232
-0.1662451423840346,-0.1662451423840346
-0.1722675170156882,-0.1722675170156882
-0.2573335586877954,-0.2573335586877954
-0.38756741009730467,-0.38756741009730467
-0.4741390454273252,-0.4741390454273252
-0.4658582803088015,-0.4658582803088015
-0.4221960642293129,-0.4221960642293129
-0.42746564203200976,-0.42746564203200976
-0.48844218517750254,-0.48844218517750254
-0.5140372773620304,-0.5140372773620304
-0.4485439532427974,-0.4485439532427974
-0.3574555369390366,-0.3574555369390366
-0.34089400670198916,-0.34089400670198916
-0.3679946925444304,-0.3679946925444304
-0.30400696208311084,-0.30400696208311084
-0.10075181826480165,-0.10075181826480165
0.134120792369689,0.134120792369689
0.30651126620077346,0.30651126620077346
0.4450258827288064,0.4450258827288064
0.5707429531645754,0.5707429531645754
0.5421366736642208,0.5421366736642208
0.18982775771248483,0.18982775771248483
-0.4447799690980139,-0.4447799690980139
-1.075623711763729,-1.075623711763729
-1.433202205518162,-1.433202205518162
-1.4693364533080835,-1.4693364533080835
-1.3157659002009165,-1.3157659002009165
-1.0974548198034733,-1.0974548198034733
-0.8565598345373291,-0.8565598345373291
-0.6134064587843149,-0.6134064587843149
-0.4289712356899232,-0.4289712356899232
-0.3506803654784263,-0.3506803654784263
-0.34842197499155614,-0.34842197499155614
-0.3446579908467727,-0.3446579908467727
-0.316051711346418,-0.316051711346418
-0.3025013684251974,-0.3025013684251974
-0.33261324158346545,-0.33261324158346545
-0.366489098886517,-0.366489098886517
-0.3536915527942531,-0.3536915527942531
-0.30626535256998094,-0.30626535256998094
-0.2799174635564964,-0.2799174635564964
-0.2987373842804139,-0.2987373842804139
-0.32659086695181183,-0.32659086695181183
-0.3228268828070283,-0.3228268828070283
-0.2987373842804139,-0.2987373842804139
-0.28895102550397683,-0.28895102550397683
-0.30400696208311084,-0.30400696208311084
-0.31078213354372114,-0.31078213354372114
-0.2927150096487603,-0.2927150096487603
-0.255827965029882,-0.255827965029882
-0.21969371723996034,-0.21969371723996034
-0.19184023456856245,-0.19184023456856245
-0.17828989164734182,-0.17828989164734182
-0.18657065676586554,-0.18657065676586554
-0.21743532675309024,-0.21743532675309024
-0.2513111840561418,-0.2513111840561418
-0.26486152697736237,-0.26486152697736237
-0.24980559039822836,-0.24980559039822836
-0.22646888870057064,-0.22646888870057064
-0.21442413943726343,-0.21442413943726343
-0.21969371723996034,-0.21969371723996034
-0.23249126333222425,-0.23249126333222425
-0.24453601259553145,-0.24453601259553145
-0.24528880942448816,-0.24528880942448816
-0.22948007601639744,-0.22948007601639744
-0.20162659334499952,-0.20162659334499952
-0.1843122662789954,-0.1843122662789954
-0.18807625042377893,-0.18807625042377893
-0.20012099968708613,-0.20012099968708613
-0.19861540602917271,-0.19861540602917271
-0.18882904725273564,-0.18882904725273564
-0.1933458282264758,-0.1933458282264758
-0.22345770138474383,-0.22345770138474383
-0.2528167777140552,-0.2528167777140552
-0.24905279356927168,-0.24905279356927168
-0.20990735846352324,-0.20990735846352324
-0.17377311067360163,-0.17377311067360163
-0.17377311067360163,-0.17377311067360163
-0.20162659334499952,-0.20162659334499952
-0.21592973309517682,-0.21592973309517682
-0.19108743773960574,-0.19108743773960574
-0.1496836121469872,-0.1496836121469872
-0.13538047239680986,-0.13538047239680986
-0.1639867518971645,-0.1639867518971645
-0.20915456163456653,-0.20915456163456653
-0.23173846650326754,-0.23173846650326754
-0.22270490455578715,-0.22270490455578715
-0.19936820285812942,-0.19936820285812942
-0.18732345359482222,-0.18732345359482222
-0.19936820285812942,-0.19936820285812942
-0.23249126333222425,-0.23249126333222425
-0.2656143238063191,-0.2656143238063191
-0.27389508892484277,-0.27389508892484277
-0.24754719991135826,-0.24754719991135826
-0.20990735846352324,-0.20990735846352324
-0.19710981237125932,-0.19710981237125932
-0.22270490455578715,-0.22270490455578715
-0.2580863555167521,-0.2580863555167521
-0.26109754283257885,-0.26109754283257885
-0.21592973309517682,-0.21592973309517682
-0.1504364089759439,-0.1504364089759439
-0.09999902143584494,-0.09999902143584494
-0.08419028802775423,-0.08419028802775423
-0.10075181826480165,-0.10075181826480165
-0.13839165971263667,-0.13839165971263667
-0.17603150116047173,-0.17603150116047173
-0.18807625042377893,-0.18807625042377893
-0.1692563296998614,-0.1692563296998614
-0.14366123751533358,-0.14366123751533358
-0.14065005019950677,-0.14065005019950677
-0.1617283614102944,-0.1617283614102944
-0.18657065676586554,-0.18657065676586554
-0.20237939017395623,-0.20237939017395623
-0.21216574895039333,-0.21216574895039333
-0.22496329504265725,-0.22496329504265725
-0.24604160625344487,-0.24604160625344487
-0.2746478857537995,-0.2746478857537995
-0.300995774767284,-0.300995774767284
-0.3115349303726778,-0.3115349303726778
-0.2972317906225005,-0.2972317906225005
-0.2603447460036222,-0.2603447460036222
-0.20012099968708613,-0.20012099968708613
-0.12709970727828618,-0.12709970727828618
-0.07214553876444701,-0.07214553876444701
-0.06838155461966351,-0.06838155461966351
-0.10301020875167174,-0.10301020875167174
-0.12860530093619957,-0.12860530093619957
-0.12860530093619957,-0.12860530093619957
-0.13914445654159338,-0.13914445654159338
-0.1843122662789954,-0.1843122662789954
-0.22797448235848405,-0.22797448235848405
-0.22646888870057064,-0.22646888870057064
-0.19635701554230262,-0.19635701554230262
-0.18882904725273564,-0.18882904725273564
-0.21517693626622014,-0.21517693626622014
-0.23249126333222425,-0.23249126333222425
-0.21141295212143663,-0.21141295212143663
-0.17527870433151502,-0.17527870433151502
-0.1617283614102944,-0.1617283614102944
-0.17076192335777482,-0.17076192335777482
-0.1639867518971645,-0.1639867518971645
-0.12408851996245937,-0.12408851996245937
-0.08945986583045114,-0.08945986583045114
-0.10827978655436865,-0.10827978655436865
-0.17979548530525521,-0.17979548530525521
-0.24604160625344487,-0.24604160625344487
-0.25206398088509846,-0.25206398088509846
-0.205390577489783,-0.205390577489783
-0.1542003931207274,-0.1542003931207274
-0.13613326922576657,-0.13613326922576657
-0.145166831173247,-0.145166831173247
-0.1549531899496841,-0.1549531899496841
-0.1542003931207274,-0.1542003931207274
-0.152694799462814,-0.152694799462814
-0.16097556458133772,-0.16097556458133772
-0.1692563296998614,-0.1692563296998614
-0.1639867518971645,-0.1639867518971645
-0.1429084406863769,-0.1429084406863769
-0.12107733264663256,-0.12107733264663256
-0.11279656752810885,-0.11279656752810885
-0.11881894215976246,-0.11881894215976246
-0.12333572313350266,-0.12333572313350266
-0.11354936435706556,-0.11354936435706556
-0.08720147534358103,-0.08720147534358103
-0.0548312116984429,-0.0548312116984429
-0.018696963908521255,-0.018696963908521255
0.02722364265783749,0.02722364265783749
0.08970577946124364,0.08970577946124364
0.15519910358047662,0.15519910358047662
0.19434453868622506,0.19434453868622506
0.17853580527813434,0.17853580527813434
0.10626730969829105,0.10626730969829105
0.015931690223486977,0.015931690223486977
-0.037516884632438775,-0.037516884632438775
-0.02321374488226146,-0.02321374488226146
0.03249322046053439,0.03249322046053439
0.07088585873732613,0.07088585873732613
0.06260509361880241,0.06260509361880241
0.030234829973664293,0.030234829973664293
0.00915651876287667,0.00915651876287667
-0.0021354336714738405,-0.0021354336714738405
-0.03977527511930888,-0.03977527511930888
-0.12408851996245937,-0.12408851996245937
-0.22646888870057064,-0.22646888870057064
-0.30626535256998094,-0.30626535256998094
-0.33938841304407574,-0.33938841304407574
-0.33637722572824896,-0.33637722572824896
-0.3092765398858077,-0.3092765398858077
-0.26486152697736237,-0.26486152697736237
-0.21216574895039333,-0.21216574895039333
-0.1722675170156882,-0.1722675170156882
-0.1617283614102944,-0.1617283614102944
-0.1587171740944676,-0.1587171740944676
-0.10301020875167174,-0.10301020875167174
0.043785172894884906,0.043785172894884906
0.23951234842362712,0.23951234842362712
0.41265561908366827,0.41265561908366827
0.546653454637961,0.546653454637961
0.6535506043498125,0.6535506043498125
0.6527978075208558,0.6527978075208558
0.3900717142149672,0.3900717142149672
-0.1572115804365542,-0.1572115804365542
-0.7699881992073087,-0.7699881992073087
-1.1644537375806197,-1.1644537375806197
-1.238980623647333,-1.238980623647333
-1.0884212578559929,-1.0884212578559929
-0.8475262725898487,-0.8475262725898487
-0.58028339831022,-0.58028339831022
-0.3356244288992922,-0.3356244288992922
-0.17979548530525521,-0.17979548530525521
-0.1519420026338573,-0.1519420026338573
-0.20237939017395623,-0.20237939017395623
-0.23550245064805106,-0.23550245064805106
-0.21141295212143663,-0.21141295212143663
-0.17076192335777482,-0.17076192335777482
-0.1579643772655109,-0.1579643772655109
-0.1564587836075975,-0.1564587836075975
-0.12634691044932947,-0.12634691044932947
-0.07590952290923052,-0.07590952290923052
-0.0518200243826161,-0.0518200243826161
-0.0653703673038367,-0.0653703673038367
-0.08795427217253773,-0.08795427217253773
-0.09171825631732124,-0.09171825631732124
-0.07590952290923052,-0.07590952290923052
-0.04880883706678929,-0.04880883706678929
-0.01192179244791095,-0.01192179244791095
0.015178893394530277,0.015178893394530277
0.012920502907660175,0.012920502907660175
-0.028483322684958366,-0.028483322684958366
-0.07892071022505733,-0.07892071022505733
-0.09472944363314803,-0.09472944363314803
-0.0578423990142697,-0.0578423990142697
0.001628550473309663,0.001628550473309663
0.030234829973664293,0.030234829973664293
0.0008757536443529623,0.0008757536443529623
-0.0585951958432264,-0.0585951958432264
-0.09924622460688824,-0.09924622460688824
-0.08870706900149443,-0.08870706900149443
-0.03300010365869857,-0.03300010365869857
0.0392683919211447,0.0392683919211447
0.10099773189559416,0.10099773189559416
0.1318624018828189,0.1318624018828189
0.12057044944846837,0.12057044944846837
0.07314424922419623,0.07314424922419623
0.015931690223486977,0.015931690223486977
-0.018696963908521255,-0.018696963908521255
-0.016438573421651153,-0.016438573421651153
0.014426096565573575,0.014426096565573575
0.05206593801340861,0.05206593801340861
0.07464984288210963,0.07464984288210963
0.07841382702689313,0.07841382702689313
0.07615543654002303,0.07615543654002303
0.07916662385584984,0.07916662385584984
0.08443620165854673,0.08443620165854673
0.07464984288210963,0.07464984288210963
0.05507712532923541,0.05507712532923541
0.05206593801340861,0.05206593801340861
0.08067221751376323,0.08067221751376323
0.11605366847472817,0.11605366847472817
0.11755926213264158,0.11755926213264158
0.07615543654002303,0.07615543654002303
0.01894287753931378,0.01894287753931378
-0.019449760737477957,-0.019449760737477957
-0.026224932198088264,-0.026224932198088264
-0.006652214645214045,-0.006652214645214045
0.022706861684097284,0.022706861684097284
0.0505603443554952,0.0505603443554952
0.08293060800063334,0.08293060800063334
0.12132324627742508,0.12132324627742508
0.1424015574882127,0.1424015574882127
0.11530087164577146,0.11530087164577146
0.049054750697581806,0.049054750697581806
-0.0006298400135604391,-0.0006298400135604391
0.001628550473309663,0.001628550473309663
0.03249322046053439,0.03249322046053439
0.046043563381755005,0.046043563381755005
0.0407739855790581,0.0407739855790581
0.05357153167132201,0.05357153167132201
0.10400891921142096,0.10400891921142096
0.1619742750410869,0.1619742750410869
0.18681657039665803,0.18681657039665803
0.1664910560148271,0.1664910560148271
0.12433443359325187,0.12433443359325187
0.08820018580333024,0.08820018580333024
0.06561628093462922,0.06561628093462922
0.048301953868625104,0.048301953868625104
0.036257204605317894,0.036257204605317894
0.0407739855790581,0.0407739855790581
0.06938026507941272,0.06938026507941272
0.09949213823768076,0.09949213823768076
0.10400891921142096,0.10400891921142096
0.09045857629020035,0.09045857629020035
0.09045857629020035,0.09045857629020035
0.11078409067203127,0.11078409067203127
0.12132324627742508,0.12132324627742508
0.11304248115890136,0.11304248115890136
0.12132324627742508,0.12132324627742508
0.16347986869900033,0.16347986869900033
0.19660292917309516,0.19660292917309516
0.17401902430439412,0.17401902430439412
0.10852570018516117,0.10852570018516117
0.04679636021071171,0.04679636021071171
0.011414909249746773,0.011414909249746773
0.00990931559183337,0.00990931559183337
0.05281873484236531,0.05281873484236531
0.12584002725116528,0.12584002725116528
0.17853580527813434,0.17853580527813434
0.17928860210709102,0.17928860210709102
0.1597158845542168,0.1597158845542168
0.1612214782121302,0.1612214782121302
0.17627741479126424,0.17627741479126424
0.16950224333065392,0.16950224333065392
0.1408959638302993,0.1408959638302993
0.12433443359325187,0.12433443359325187
0.1401431670013426,0.1401431670013426
0.16498546235691372,0.16498546235691372
0.17100783698856734,0.17100783698856734
0.15821029089630342,0.15821029089630342
0.15294071309360652,0.15294071309360652
0.16799664967274053,0.16799664967274053
0.19133335137039825,0.19133335137039825
0.19585013234413848,0.19585013234413848
0.17477182113335082,0.17477182113335082
0.1469183384619529,0.1469183384619529
0.1348735891986457,0.1348735891986457
0.1424015574882127,0.1424015574882127
0.15745749406734671,0.15745749406734671
0.164232665527957,0.164232665527957
0.1544463067515199,0.1544463067515199
0.12132324627742508,0.12132324627742508
0.07088585873732613,0.07088585873732613
0.030234829973664293,0.030234829973664293
0.037010001434274596,0.037010001434274596
0.08669459214541685,0.08669459214541685
0.1326151987117756,0.1326151987117756
0.1371319796855158,0.1371319796855158
0.11379527798785807,0.11379527798785807
0.10099773189559416,0.10099773189559416
0.12057044944846837,0.12057044944846837
0.17251343064648073,0.17251343064648073
0.24854591037110751,0.24854591037110751
0.3245783900957343,0.3245783900957343
0.36673501251730956,0.36673501251730956
0.3614654347146126,0.3614654347146126
0.34339831081965183,0.34339831081965183
0.3577014505698291,0.3577014505698291
0.40512765079410124,0.40512765079410124
0.4405091017550662,0.4405091017550662
0.42394757151801876,0.42394757151801876
0.36673501251730956,0.36673501251730956
0.31705042180616727,0.31705042180616727
0.3110280471745137,0.3110280471745137
0.34339831081965183,0.34339831081965183
0.37877976178061673,0.37877976178061673
0.3885661205570538,0.3885661205570538
0.35845424739878584,0.35845424739878584
0.3004888915691199,0.3004888915691199
0.2334899737919735,0.2334899737919735
0.18305258625187454,0.18305258625187454
0.1521879162646498,0.1521879162646498
0.12207604310638177,0.12207604310638177
0.08067221751376323,0.08067221751376323
0.0377627982632313,0.0377627982632313
0.01894287753931378,0.01894287753931378
0.030234829973664293,0.030234829973664293
0.0505603443554952,0.0505603443554952
0.05507712532923541,0.05507712532923541
0.0452907665527983,0.0452907665527983
0.04679636021071171,0.04679636021071171
0.07239145239523953,0.07239145239523953
0.11981765261951167,0.11981765261951167
0.18380538308083125,0.18380538308083125
0.27414100255563534,0.27414100255563534
0.3953412920176641,0.3953412920176641
0.5549342197564847,0.5549342197564847
0.7612005508906207,0.7612005508906207
0.9862868027486743,0.9862868027486743
1.0924311556315691,1.0924311556315691
0.8951983864449135,0.8951983864449135
0.3449039044775652,0.3449039044775652
-0.3597139274259067,-0.3597139274259067
-0.9009748474457745,-0.9009748474457745
-1.0884212578559929,-1.0884212578559929
-0.9717377493677043,-0.9717377493677043
-0.7263259831278199,-0.7263259831278199
-0.48768938834854586,-0.48768938834854586
-0.2844342445302366,-0.2844342445302366
-0.10376300558062844,-0.10376300558062844
0.043785172894884906,0.043785172894884906
0.13336799554073228,0.13336799554073228
0.16347986869900033,0.16347986869900033
0.164232665527957,0.164232665527957
0.16498546235691372,0.16498546235691372
0.17552461796230753,0.17552461796230753
0.19735572600205187,0.19735572600205187
0.2206924276997096,0.2206924276997096
0.2304787864761467,0.2304787864761467
0.2161756467259694,0.2161756467259694
0.19509733551518177,0.19509733551518177
0.19585013234413848,0.19585013234413848
0.2304787864761467,0.2304787864761467
0.26661303426606836,0.26661303426606836
0.2636018469502415,0.2636018469502415
0.2161756467259694,0.2161756467259694
0.1612214782121302,0.1612214782121302
0.1401431670013426,0.1401431670013426
0.16046868138317352,0.16046868138317352
0.20111971014683538,0.20111971014683538
0.24628751988423742,0.24628751988423742
0.28919693913476935,0.28919693913476935
0.32156720277990747,0.32156720277990747
0.3223199996088642,0.3223199996088642
0.28919693913476935,0.28919693913476935
0.24628751988423742,0.24628751988423742
0.2312315833051034,0.2312315833051034
0.25005150402902093,0.25005150402902093
0.27790498670041885,0.27790498670041885
0.28919693913476935,0.28919693913476935
0.29521931376642296,0.29521931376642296
0.317803218635124,0.317803218635124
