ECG,PPG
1.0679452167986083,1.0679452167986083
1.1444727985895722,1.1444727985895722
1.0872494716647974,1.0872494716647974
1.1451622362633644,1.1451622362633644
1.1686031171723084,1.1686031171723084
1.176876369257818,1.176876369257818
1.1844601836695352,1.1844601836695352
1.2030750008619318,1.2030750008619318
1.2189320673591584,1.2189320673591584
1.2230686934019133,1.2230686934019133
1.228584194792253,1.228584194792253
1.2416835105943098,1.2416835105943098
1.258230014765329,1.258230014765329
1.268571579872216,1.268571579872216
1.2754659566101407,1.2754659566101407
1.2816708956742728,1.2816708956742728
1.2851180840432352,1.2851180840432352
1.2858075217170277,1.2858075217170277
1.2864969593908202,1.2864969593908202
1.2885652724121974,1.2885652724121974
1.2871863970646127,1.2871863970646127
1.2851180840432352,1.2851180840432352
1.2837392086956503,1.2837392086956503
1.2851180840432352,1.2851180840432352
1.2885652724121974,1.2885652724121974
1.2913230231073674,1.2913230231073674
1.2961490868239147,1.2961490868239147
1.3009751505404619,1.3009751505404619
1.3078695272783867,1.3078695272783867
1.3126955909949338,1.3126955909949338
1.3175216547114812,1.3175216547114812
1.3154533416901038,1.3154533416901038
1.3106272779735564,1.3106272779735564
1.2968385244977072,1.2968385244977072
1.2851180840432352,1.2851180840432352
1.2733976435887633,1.2733976435887633
1.268571579872216,1.268571579872216
1.2602983277867064,1.2602983277867064
1.2540933887225743,1.2540933887225743
1.2403046352467249,1.2403046352467249
1.2251370064232907,1.2251370064232907
1.2010066878405543,1.2010066878405543
1.1803235576267803,1.1803235576267803
1.1568826767178364,1.1568826767178364
1.1410256102206098,1.1410256102206098
1.1210319176806283,1.1210319176806283
1.1072431642047789,1.1072431642047789
1.0900072223599673,1.0900072223599673
1.0755290312103254,1.0755290312103254
1.0534670256489664,1.0534670256489664
1.033473333108985,1.033473333108985
1.0100324522000412,1.0100324522000412
0.9914176350076446,0.9914176350076446
0.9714239424676631,0.9714239424676631
0.9562563136442288,0.9562563136442288
0.9424675601683795,0.9424675601683795
0.9300576820401151,0.9300576820401151
0.9148900532166808,0.9148900532166808
0.9017907374146239,0.9017907374146239
0.8914491723077369,0.8914491723077369
0.8866231085911896,0.8866231085911896
0.8831759202222274,0.8831759202222274
0.8817970448746424,0.8817970448746424
0.8790392941794726,0.8790392941794726
0.8742132304629253,0.8742132304629253
0.8631822276822458,0.8631822276822458
0.8521512249015664,0.8521512249015664
0.8390519090995096,0.8390519090995096
0.8321575323615849,0.8321575323615849
0.8231948426022828,0.8231948426022828
0.8204370919071129,0.8204370919071129
0.8142321528429808,0.8142321528429808
0.8114744021478109,0.8114744021478109
0.8032011500623013,0.8032011500623013
0.7997539616933389,0.7997539616933389
0.7956173356505841,0.7956173356505841
0.8004433993671314,0.8004433993671314
0.8059589007574711,0.8059589007574711
0.8231948426022828,0.8231948426022828
0.8431885351422643,0.8431885351422643
0.8742132304629253,0.8742132304629253
0.9059273634573788,0.9059273634573788
0.9493619369063041,0.9493619369063041
1.0072747015048713,1.0072747015048713
1.094143848402722,1.094143848402722
1.2106588152736488,1.2106588152736488
1.3650928542031613,1.3650928542031613
1.54089946102024,1.54089946102024
1.7160166301635265,1.7160166301635265
1.8552830402696046,1.8552830402696046
1.947667688557795,1.947667688557795
1.9869656359639658,1.9869656359639658
1.9848973229425884,1.9848973229425884
1.9524937522743424,1.9524937522743424
1.9097486164992095,1.9097486164992095
1.858730228638567,1.858730228638567
1.7959914003234525,1.7959914003234525
1.7105011287731868,1.7105011287731868
1.601569976313977,1.601569976313977
1.471266255967201,1.471266255967201
1.330620970513538,1.330620970513538
1.1892862473860824,1.1892862473860824
1.064498028429646,1.064498028429646
0.9659084410773233,0.9659084410773233
0.8983435490456616,0.8983435490456616
0.8576667262919061,0.8576667262919061
0.8418096597946794,0.8418096597946794
0.8424990974684718,0.8424990974684718
0.8528406625753588,0.8528406625753588
0.8624927900084534,0.8624927900084534
0.8721449174415479,0.8721449174415479
0.8721449174415479,0.8721449174415479
0.8769709811580951,0.8769709811580951
0.8652505407036233,0.8652505407036233
0.8755921058105103,0.8755921058105103
0.8673188537250006,0.8673188537250006
0.8893808592863596,0.8893808592863596
0.8880019839387746,0.8880019839387746
0.9066168011311713,0.9066168011311713
0.9079956764787561,0.9079956764787561
0.9169583662380583,0.9169583662380583
0.9148900532166808,0.9148900532166808
0.9142006155428883,0.9142006155428883
0.9031696127622089,0.9031696127622089
0.8838653578960198,0.8838653578960198
0.8452568481636418,0.8452568481636418
0.7969962109981691,0.7969962109981691
0.7576982635919985,0.7576982635919985
0.7742447677630176,0.7742447677630176
0.9183372415856431,0.9183372415856431
1.2871863970646127,1.2871863970646127
1.9545620652957199,1.9545620652957199
2.9445945648617013,2.9445945648617013
4.1724830618860835,4.1724830618860835
5.454837135140071,5.454837135140071
6.532428219277696,6.532428219277696
7.1611953777764255,7.1611953777764255
7.195667261466048,7.195667261466048
6.651700936843793,6.651700936843793
5.689245944229509,5.689245944229509
4.555120970840902,4.555120970840902
3.4727038229867304,3.4727038229867304
2.5778137224041093,2.5778137224041093
1.8952704253495678,1.8952704253495678
1.3871548597645202,1.3871548597645202
0.9990014494193616,0.9990014494193616
0.7087481887527334,0.7087481887527334
0.5191528284598051,0.5191528284598051
0.44400412201642636,0.44400412201642636
0.47020275362054004,0.47020275362054004
0.5550035874970134,0.5550035874970134
0.6446304850900341,0.6446304850900341
0.6956488729506766,0.6956488729506766
0.7032326873623936,0.7032326873623936
0.6749657427369026,0.6749657427369026
0.6370466706783169,0.6370466706783169
0.6136057897693731,0.6136057897693731
0.5984381609459388,0.5984381609459388
0.6094691637266183,0.6094691637266183
0.6170529781383354,0.6170529781383354
0.6418727343948641,0.6418727343948641
0.6591086762396758,0.6591086762396758
0.6825495571486196,0.6825495571486196
0.6990960613196389,0.6990960613196389
0.7163320031644506,0.7163320031644506
0.7246052552499601,0.7246052552499601
0.7342573826830546,0.7342573826830546
0.7404623217471868,0.7404623217471868
0.7487355738326964,0.7487355738326964
0.7528721998754513,0.7528721998754513
0.7556299505706211,0.7556299505706211
0.7521827622016588,0.7521827622016588
0.7473566984851115,0.7473566984851115
0.7314996319878848,0.7314996319878848
0.7149531278168656,0.7149531278168656
0.6915122469079218,0.6915122469079218
0.6735868673893176,0.6735868673893176
0.6563509255445059,0.6563509255445059
0.6508354241541662,0.6508354241541662
0.6556614878707135,0.6556614878707135
0.6742763050631101,0.6742763050631101
0.7032326873623936,0.7032326873623936
0.7459778231375266,0.7459778231375266
0.7990645240195465,0.7990645240195465
0.8631822276822458,0.8631822276822458
0.9335048704090774,0.9335048704090774
1.0107218898738337,1.0107218898738337
1.0920755353813447,1.0920755353813447
1.1810129953005728,1.1810129953005728
1.2761553942839332,1.2761553942839332
1.3816393583741804,1.3816393583741804
1.4947071368761449,1.4947071368761449
1.6153587297898264,1.6153587297898264
1.737389198051093,1.737389198051093
1.8580407909647745,1.8580407909647745
1.9731768824881164,1.9731768824881164
2.0807291595997413,2.0807291595997413
2.1758715585831014,2.1758715585831014
2.2613618301333673,2.2613618301333673
2.3309950351864064,2.3309950351864064
2.388218362111181,2.388218362111181
2.4261374341697666,2.4261374341697666
2.4509571904262955,2.4509571904262955
2.4585410048380125,2.4585410048380125
2.453025503447673,2.453025503447673
2.4268268718435593,2.4268268718435593
2.3847711737422186,2.3847711737422186
2.3178957193843495,2.3178957193843495
2.2330948855078763,2.2330948855078763
2.1227848577010815,2.1227848577010815
2.0042015778087774,2.0042015778087774
1.876655608157171,1.876655608157171
1.7573828905910744,1.7573828905910744
1.6408679237201476,1.6408679237201476
1.542278336367825,1.542278336367825
1.4533408764485969,1.4533408764485969
1.3857759844169353,1.3857759844169353
1.3271737821445757,1.3271737821445757
1.2878758347384052,1.2878758347384052
1.2554722640701592,1.2554722640701592
1.2340996961825927,1.2340996961825927
1.2113482529474413,1.2113482529474413
1.1934228734288372,1.1934228734288372
1.1720503055412708,1.1720503055412708
1.1575721143916289,1.1575721143916289
1.1444727985895722,1.1444727985895722
1.1403361725468173,1.1403361725468173
1.1361995465040624,1.1361995465040624
1.1361995465040624,1.1361995465040624
1.1320629204613077,1.1320629204613077
1.1279262944185529,1.1279262944185529
1.1203424800068358,1.1203424800068358
1.1175847293116659,1.1175847293116659
1.1175847293116659,1.1175847293116659
1.126547419070968,1.126547419070968
1.1410256102206098,1.1410256102206098
1.1617087404343838,1.1617087404343838
1.1803235576267803,1.1803235576267803
1.2003172501667618,1.2003172501667618
1.2175531920115734,1.2175531920115734
1.2347891338563852,1.2347891338563852
1.2444412612894797,1.2444412612894797
1.2534039510487818,1.2534039510487818
1.2554722640701592,1.2554722640701592
1.2589194524391214,1.2589194524391214
1.2568511394177442,1.2568511394177442
1.2623666408080838,1.2623666408080838
1.268571579872216,1.268571579872216
1.2809814580004804,1.2809814580004804
1.2837392086956503,1.2837392086956503
1.2851180840432352,1.2851180840432352
1.2761553942839332,1.2761553942839332
1.2692610175460084,1.2692610175460084
1.2568511394177442,1.2568511394177442
1.2540933887225743,1.2540933887225743
1.2527145133749893,1.2527145133749893
1.2568511394177442,1.2568511394177442
1.2554722640701592,1.2554722640701592
1.2568511394177442,1.2568511394177442
1.2575405770915367,1.2575405770915367
1.2637455161556688,1.2637455161556688
1.2692610175460084,1.2692610175460084
1.2768448319577257,1.2768448319577257
1.2796025826528954,1.2796025826528954
1.2775342696315182,1.2775342696315182
1.2644349538294613,1.2644349538294613
1.2506462003536118,1.2506462003536118
1.2368574468777627,1.2368574468777627
1.2278947571184604,1.2278947571184604
1.2154848789901962,1.2154848789901962
1.2072116269046864,1.2072116269046864
1.196180624124007,1.196180624124007
1.1844601836695352,1.1844601836695352
1.1644664911295537,1.1644664911295537
1.1430939232419872,1.1430939232419872
1.1203424800068358,1.1203424800068358
1.1010382251406468,1.1010382251406468
1.08518115864342,1.08518115864342
1.0817339702744577,1.0817339702744577
1.094143848402722,1.094143848402722
1.1196530423330433,1.1196530423330433
1.1513671753274968,1.1513671753274968
1.1934228734288372,1.1934228734288372
1.2540933887225743,1.2540933887225743
1.3457885993369723,1.3457885993369723
1.476092319683748,1.476092319683748
1.6581038655649594,1.6581038655649594
1.8801027965261334,1.8801027965261334
2.1138221679417795,2.1138221679417795
2.3158274063629722,2.3158274063629722
2.4537149411214654,2.4537149411214654
2.5054227666559004,2.5054227666559004
2.4757769466828243,2.4757769466828243
2.3833922983946336,2.3833922983946336
2.2634301431547446,2.2634301431547446
2.1407102372196856,2.1407102372196856
2.0221269573273815,2.0221269573273815
1.9007859267399074,1.9007859267399074
1.7649667050027915,1.7649667050027915
1.6077749153781093,1.6077749153781093
1.4319683085610304,1.4319683085610304
1.247888449658442,1.247888449658442
1.0707029674937782,1.0707029674937782
0.9093745518263411,0.9093745518263411
0.7645926403299231,0.7645926403299231
0.6294628562665998,0.6294628562665998
0.49709082289844625,0.49709082289844625
0.36678710255167013,0.36678710255167013
0.23924113290006382,0.23924113290006382
0.12410504137672196,0.12410504137672196
0.021378827981644477,0.021378827981644477
-0.07376357100171586,-0.07376357100171586
-0.16821653231128375,-0.16821653231128375
-0.2757688094229085,-0.2757688094229085
-0.3895260255986654,-0.3895260255986654
-0.5170719952502717,-0.5170719952502717
-0.6280714607308587,-0.6280714607308587
-0.734934300168691,-0.734934300168691
-0.80456750522173,-0.80456750522173
-0.8631697074940897,-0.8631697074940897
-0.9003993418788829,-0.9003993418788829
-0.9341817878947137,-0.9341817878947137
-0.9817529873863939,-0.9817529873863939
-1.041044627332546,-1.041044627332546
-1.1334292756207365,-1.1334292756207365
-1.236155489015814,-1.236155489015814
-1.367838084710175,-1.367838084710175
-1.5008995557521212,-1.5008995557521212
-1.648439217943709,-1.648439217943709
-1.7642647471408432,-1.7642647471408432
-1.8332085145200898,-1.8332085145200898
-1.760817558771881,-1.760817558771881
-1.4850424892548943,-1.4850424892548943
-0.9059148432692227,-0.9059148432692227
-0.029639559878998026,-0.029639559878998026
1.095522723750307,1.095522723750307
2.2751505836092165,2.2751505836092165
3.2934500278006893,3.2934500278006893
3.8863664272622103,3.8863664272622103
3.920148873278041,3.920148873278041
3.363772670527521,3.363772670527521
2.3758084839829166,2.3758084839829166
1.1692925548461008,1.1692925548461008
-0.0034409282748843074,-0.0034409282748843074
-0.9941628655146583,-0.9941628655146583
-1.7366872401891447,-1.7366872401891447
-2.277206376442438,-2.277206376442438
-2.676390789568276,-2.676390789568276
-2.992842681839018,-2.992842681839018
-3.227251490928457,-3.227251490928457
-3.374101715446252,-3.374101715446252
-3.41271022517863,-3.41271022517863
-3.369275651729705,-3.369275651729705
-3.273443815072552,-3.273443815072552
-3.190711294217456,-3.190711294217456
-3.136245717987851,-3.136245717987851
-3.140382344030606,-3.140382344030606
-3.1720964770250593,-3.1720964770250593
-3.227251490928457,-3.227251490928457
-3.2830959425056463,-3.2830959425056463
-3.3361826433876662,-3.3361826433876662
-3.383064405205554,-3.383064405205554
-3.41822572656897,-3.41822572656897
-3.433393355392404,-3.433393355392404
-3.4368405437613663,-3.4368405437613663
-3.418915164242762,-3.418915164242762
-3.408573599135875,-3.408573599135875
-3.390648219617271,-3.390648219617271
-3.396163721007611,-3.396163721007611
-3.394784845660026,-3.394784845660026
-3.414089100526215,-3.414089100526215
-3.4161574135475923,-3.4161574135475923
-3.4368405437613663,-3.4368405437613663
-3.432703917718612,-3.432703917718612
-3.441666607477914,-3.441666607477914
-3.421672914937932,-3.421672914937932
-3.4147785382000078,-3.4147785382000078
-3.389269344269686,-3.389269344269686
-3.392716532638649,-3.392716532638649
-3.3940954079862338,-3.3940954079862338
-3.425809540980687,-3.425809540980687
-3.4471821088682533,-3.4471821088682533
-3.480275117210292,-3.480275117210292
-3.486480056274424,-3.486480056274424
-3.4885483692958013,-3.4885483692958013
-3.4575236739751403,-3.4575236739751403
-3.420294039590347,-3.420294039590347
-3.361691837317988,-3.361691837317988
-3.307915698762175,-3.307915698762175
-3.248624058816023,-3.248624058816023
-3.204500047693305,-3.204500047693305
-3.1631337872657572,-3.1631337872657572
-3.131419654271304,-3.131419654271304
-3.088674518496171,-3.088674518496171
-3.0376561306355283,-3.0376561306355283
-2.961128548844565,-2.961128548844565
-2.8659861498612043,-2.8659861498612043
-2.745334556947523,-2.745334556947523
-2.6177885872959163,-2.6177885872959163
-2.4847271162539704,-2.4847271162539704
-2.365454398687874,-2.365454398687874
-2.251697182512117,-2.251697182512117
-2.158623096550134,-2.158623096550134
-2.071064511978491,-2.071064511978491
-2.007636245989584,-2.007636245989584
-1.9538601074337716,-1.9538601074337716
-1.9366241655889598,-1.9366241655889598
-1.9373136032627523,-1.9373136032627523
-1.9800587390378852,-1.9800587390378852
-2.0365926282888673,-2.0365926282888673
-2.1269089635556804,-2.1269089635556804
-2.216535861148701,-2.216535861148701
-2.328224764303081,-2.328224764303081
-2.4226777256126484,-2.4226777256126484
-2.529540565050481,-2.529540565050481
-2.605378709167652,-2.605378709167652
-2.687421792348956,-2.687421792348956
-2.737061304862013,-2.737061304862013
-2.795663507134373,-2.795663507134373
-2.825309327107449,-2.825309327107449
-2.866675587534997,-2.866675587534997
-2.8852904047273933,-2.8852904047273933
-2.9121784740053,-2.9121784740053
-2.917004537721847,-2.917004537721847
-2.929414415850111,-2.929414415850111
-2.930103853523904,-2.930103853523904
-2.942513731652168,-2.942513731652168
-2.9459609200211303,-2.9459609200211303
-2.9590602358231872,-2.9590602358231872
-2.9652651748873193,-2.9652651748873193
-2.973538426972829,-2.973538426972829
-2.969401800930074,-2.969401800930074
-2.965954612561112,-2.965954612561112
-2.9576813604756023,-2.9576813604756023
-2.952165859085263,-2.952165859085263
-2.941134856304583,-2.941134856304583
-2.9342404795666583,-2.9342404795666583
-2.9252777898073563,-2.9252777898073563
-2.919072850743224,-2.919072850743224
-2.905284097267375,-2.905284097267375
-2.892184781465318,-2.892184781465318
-2.874259401946714,-2.874259401946714
-2.8556445847543173,-2.8556445847543173
-2.826688202455034,-2.826688202455034
-2.798421257829543,-2.798421257829543
-2.766707124835089,-2.766707124835089
-2.741197930904768,-2.741197930904768
-2.7122415486054843,-2.7122415486054843
-2.693626731413088,-2.693626731413088
-2.6722541635255213,-2.6722541635255213
-2.655707659354502,-2.655707659354502
-2.623304088686256,-2.623304088686256
-2.5909005180180102,-2.5909005180180102
-2.541261005504953,-2.541261005504953
-2.49575811903465,-2.49575811903465
-2.437845354436083,-2.437845354436083
-2.390274154944403,-2.390274154944403
-2.3337402656934203,-2.3337402656934203
-2.286858503875533,-2.286858503875533
-2.226877426255588,-2.226877426255588
-2.177927351416323,-2.177927351416323
-2.1207040244915483,-2.1207040244915483
-2.074511700347453,-2.074511700347453
-2.0172883734226783,-2.0172883734226783
-1.9655805478882435,-1.9655805478882435
-1.8980156558565817,-1.8980156558565817
-1.8304507638249201,-1.8304507638249201
-1.7435816169270693,-1.7435816169270693
-1.657401907703011,-1.657401907703011
-1.5615700710458582,-1.5615700710458582
-1.4705642981052527,-1.4705642981052527
-1.367838084710175,-1.367838084710175
-1.2609752452723428,-1.2609752452723428
-1.1244665858614344,-1.1244665858614344
-0.95831210647745,-0.95831210647745
-0.7480336159707478,-0.7480336159707478
-0.5136248068813093,-0.5136248068813093
-0.27232162105394614,-0.27232162105394614
-0.05928537985207408,-0.05928537985207408
0.10755853720570276,0.10755853720570276
0.21442137664353503,0.21442137664353503
0.2709552658945173,0.2709552658945173
0.28819120773932894,0.28819120773932894
0.2826757063489892,0.2826757063489892
0.25854538776625285,0.25854538776625285
0.2192474403600823,0.2192474403600823
0.15512973669738295,0.15512973669738295
0.06826058979953219,0.06826058979953219
-0.04204943800726242,-0.04204943800726242
-0.1585644048781892,-0.1585644048781892
-0.27645824709670097,-0.27645824709670097
-0.3784950228179859,-0.3784950228179859
-0.46191698134687437,-0.46191698134687437
-0.5136248068813093,-0.5136248068813093
-0.542581189180593,-0.542581189180593
-0.5460283775495552,-0.5460283775495552
-0.5363762501164607,-0.5363762501164607
-0.510177618512347,-0.510177618512347
-0.4819106738868559,-0.4819106738868559
-0.4495071032186099,-0.4495071032186099
-0.4212401585931188,-0.4212401585931188
-0.3915943386200428,-0.3915943386200428
-0.36332739399455166,-0.36332739399455166
-0.34195482610698524,-0.34195482610698524
-0.3136878814814941,-0.3136878814814941
-0.29714137731047496,-0.29714137731047496
-0.2668061196636064,-0.2668061196636064
-0.2537068038615496,-0.2537068038615496
-0.22888704760502077,-0.22888704760502077
-0.2102722304126242,-0.2102722304126242
-0.18614191182988787,-0.18614191182988787
-0.16063271789956662,-0.16063271789956662
-0.13581296164303783,-0.13581296164303783
-0.11375095608167891,-0.11375095608167891
-0.10409882864858439,-0.10409882864858439
-0.10961433003892411,-0.10961433003892411
-0.13926015001200015,-0.13926015001200015
-0.1771792220705858,-0.1771792220705858
-0.19855178995815226,-0.19855178995815226
-0.13098689792649057,-0.13098689792649057
0.1130740385960425,0.1130740385960425
0.6287734185928073,0.6287734185928073
1.472645131314786,1.472645131314786
2.612975043767525,2.612975043767525
3.9029129314332294,3.9029129314332294
5.108739422896253,5.108739422896253
5.971225952810628,5.971225952810628
6.300087723209635,6.300087723209635
6.035343656473327,6.035343656473327
5.27282558925886,5.27282558925886
4.223501449746727,4.223501449746727
3.12315892237395,3.12315892237395
2.1462257386100254,2.1462257386100254
1.3692294802459162,1.3692294802459162
0.7832074575223198,0.7832074575223198
0.3433462216427262,0.3433462216427262
0.006900636832002686,0.006900636832002686
-0.2344025489953605,-0.2344025489953605
-0.3709112084062688,-0.3709112084062688
-0.39435208931521265,-0.39435208931521265
-0.3350604493690606,-0.3350604493690606
-0.23509198666915299,-0.23509198666915299
-0.1468439644237173,-0.1468439644237173
-0.09444670121548986,-0.09444670121548986
-0.08410513610860286,-0.08410513610860286
-0.10547770399616932,-0.10547770399616932
-0.1199558951458111,-0.1199558951458111
-0.13581296164303783,-0.13581296164303783
-0.11512983142926385,-0.11512983142926385
-0.10547770399616932,-0.10547770399616932
-0.0668691942637912,-0.0668691942637912
-0.046875501723809686,-0.046875501723809686
-0.013093055707978835,-0.013093055707978835
0.00827951217958762,0.00827951217958762
0.03654645680507874,0.03654645680507874
0.06136621306160752,0.06136621306160752
0.0903225953608911,0.0903225953608911
0.1130740385960425,0.1130740385960425
0.13306773113602402,0.13306773113602402
0.14616704693808089,0.14616704693808089
0.15237198600221308,0.15237198600221308
0.153750861349798,0.153750861349798
0.153750861349798,0.153750861349798
0.15306142367600553,0.15306142367600553
0.15444029902359047,0.15444029902359047
0.15719804971876034,0.15719804971876034
0.16271355110910007,0.16271355110910007
0.16822905249943979,0.16822905249943979
0.1765023045849494,0.1765023045849494
0.18339668132287407,0.18339668132287407
0.19580655945113845,0.19580655945113845
0.21166362594836516,0.21166362594836516
0.23924113290006382,0.23924113290006382
0.27509189193727207,0.27509189193727207
0.32473140445032966,0.32473140445032966
0.3819547313751044,0.3819547313751044
0.4515879364281435,0.4515879364281435
0.5253577675239374,0.5253577675239374
0.6101586014004107,0.6101586014004107
0.696338310624469,0.696338310624469
0.7901018342602444,0.7901018342602444
0.8831759202222274,0.8831759202222274
0.9810760699007576,0.9810760699007576
1.0789762195792878,1.0789762195792878
1.1803235576267803,1.1803235576267803
1.2816708956742728,1.2816708956742728
1.3823287960479729,1.3823287960479729
1.476092319683748,1.476092319683748
1.561582591234014,1.561582591234014
1.6360418600036004,1.6360418600036004
1.6994701259925074,1.6994701259925074
1.7518673892007348,1.7518673892007348
1.793923087302075,1.793923087302075
1.8235689072751513,1.8235689072751513
1.8359787854034155,1.8359787854034155
1.8270160956441135,1.8270160956441135
1.7932336496282828,1.7932336496282828
1.7353208850297155,1.7353208850297155
1.6567249902173744,1.6567249902173744
1.564340341929184,1.564340341929184
1.4650613169030688,1.4650613169030688
1.3644034165293688,1.3644034165293688
1.2671927045246312,1.2671927045246312
1.176876369257818,1.176876369257818
1.0962121614240994,1.0962121614240994
1.0265789563710603,1.0265789563710603
0.9672873164249083,0.9672873164249083
0.9183372415856431,0.9183372415856431
0.8762815434843026,0.8762815434843026
0.8383624714257171,0.8383624714257171
0.8073377761050561,0.8073377761050561
0.7832074575223198,0.7832074575223198
0.7707975793940554,0.7707975793940554
0.7639032026561307,0.7639032026561307
0.7652820780037156,0.7652820780037156
0.7666609533513006,0.7666609533513006
0.7701081417202629,0.7701081417202629
0.7673503910250931,0.7673503910250931
0.7666609533513006,0.7666609533513006
0.7639032026561307,0.7639032026561307
0.7680398286988855,0.7680398286988855
0.7714870170678478,0.7714870170678478
0.7811391445009424,0.7811391445009424
0.7873440835650746,0.7873440835650746
0.798375086345754,0.798375086345754
0.8038905877360938,0.8038905877360938
0.8128532774953958,0.8128532774953958
0.819058216559528,0.819058216559528
0.8314680946877924,0.8314680946877924
0.8445674104898493,0.8445674104898493
0.8624927900084534,0.8624927900084534
0.8755921058105103,0.8755921058105103
0.8852442332436048,0.8852442332436048
0.8866231085911896,0.8866231085911896
0.8845547955698123,0.8845547955698123
0.8804181695270575,0.8804181695270575
0.8831759202222274,0.8831759202222274
0.8914491723077369,0.8914491723077369
0.9073062388049636,0.9073062388049636
0.9224738676283979,0.9224738676283979
0.9369520587780398,0.9369520587780398
0.9472936238849268,0.9472936238849268
0.9569457513180213,0.9569457513180213
0.962461252708361,0.962461252708361
0.9693556294462856,0.9693556294462856
0.9734922554890404,0.9734922554890404
0.9796971945531726,0.9796971945531726
0.983144382922135,0.983144382922135
0.9879704466386823,0.9879704466386823
0.9907281973338521,0.9907281973338521
0.9907281973338521,0.9907281973338521
0.9852126959435124,0.9852126959435124
0.9790077568793801,0.9790077568793801
0.9748711308366254,0.9748711308366254
0.9803866322269651,0.9803866322269651
0.9955542610503993,0.9955542610503993
1.0210634549807207,1.0210634549807207
1.052777587975174,1.052777587975174
1.0900072223599673,1.0900072223599673
1.13551010883027,1.13551010883027
1.2051433138833092,1.2051433138833092
1.3064906519308017,1.3064906519308017
1.446446499710672,1.446446499710672
1.609153790725694,1.609153790725694
1.7725505194145088,1.7725505194145088
1.9035436774350774,1.9035436774350774
1.9855867606163808,1.9855867606163808
2.0097170791991172,2.0097170791991172
1.9938600127018904,1.9938600127018904
1.9497360015791725,1.9497360015791725
1.8980281760447375,1.8980281760447375
1.8345999100558306,1.8345999100558306
1.756693452917282,1.756693452917282
1.6498306134794498,1.6498306134794498
1.5153902670899189,1.5153902670899189
1.3581984774652367,1.3581984774652367
1.1941123111026297,1.1941123111026297
1.0341627707827774,1.0341627707827774
0.8976541113718691,0.8976541113718691
0.7914807096078293,0.7914807096078293
0.7177108785120354,0.7177108785120354
0.6687608036727704,0.6687608036727704
0.6384255460259018,0.6384255460259018
0.6191212911597128,0.6191212911597128
0.6018853493149011,0.6018853493149011
0.5846494074700894,0.5846494074700894
0.5729289670156176,0.5729289670156176
0.5694817786466552,0.5694817786466552
0.5798233437535422,0.5798233437535422
0.5894754711866367,0.5894754711866367
0.6094691637266183,0.6094691637266183
0.6149846651169579,0.6149846651169579
0.6322206069617696,0.6322206069617696
0.6280839809190149,0.6280839809190149
0.6398044213734868,0.6398044213734868
0.6370466706783169,0.6370466706783169
0.6418727343948641,0.6418727343948641
0.6363572330045244,0.6363572330045244
0.6267051055714299,0.6267051055714299
0.6142952274431656,0.6142952274431656
0.5977487232721463,0.5977487232721463
0.5791339060797497,0.5791339060797497
0.5536247121494284,0.5536247121494284
0.5212211414811826,0.5212211414811826
0.48054431872742703,0.48054431872742703
0.4550351247971058,0.4550351247971058
0.4929541968556915,0.4929541968556915
0.6784129311058649,0.6784129311058649
1.105864288857194,1.105864288857194
1.8414942867937554,1.8414942867937554
2.883234611894172,2.883234611894172
4.115259734961309,4.115259734961309
5.330048916183634,5.330048916183634
6.270441903236558,6.270441903236558
6.726160205613379,6.726160205613379
6.604819175025905,6.604819175025905
5.964331576072704,5.964331576072704
4.983951203939816,4.983951203939816
3.893260804000135,3.893260804000135
2.8825451742203794,2.8825451742203794
2.0531516526480424,2.0531516526480424
1.411974616021049,1.411974616021049
0.9252316183235678,0.9252316183235678
0.5515563991280511,0.5515563991280511
0.276470767284857,0.276470767284857
0.10617966185811784,0.10617966185811784
0.0455091465643808,0.0455091465643808
0.0820493432753815,0.0820493432753815
0.1702973655208172,0.1702973655208172
0.26681863985176246,0.26681863985176246
0.32611027979791457,0.32611027979791457
0.3502405983806509,0.3502405983806509
0.33507296955721666,0.33507296955721666
0.30818490027931045,0.30818490027931045
0.2840545816965741,0.2840545816965741
0.26750807752555494,0.26750807752555494
0.26957639054693233,0.26957639054693233
0.2723341412421022,0.2723341412421022
0.29163839610829123,0.29163839610829123
0.31025321330068784,0.31025321330068784
0.33507296955721666,0.33507296955721666
0.35575609977099065,0.35575609977099065
0.3716131662682174,0.3716131662682174
0.3791969806799345,0.3791969806799345
0.3791969806799345,0.3791969806799345
0.37230260394200987,0.37230260394200987
0.3612716011613304,0.3612716011613304
0.34886172303306595,0.34886172303306595
0.33507296955721666,0.33507296955721666
0.31852646538619744,0.31852646538619744
0.30404827423655567,0.30404827423655567
0.28750177006553645,0.28750177006553645
0.27784964263244194,0.27784964263244194
0.2716447035683097,0.2716447035683097
0.27509189193727207,0.27509189193727207
0.2826757063489892,0.2826757063489892
0.2992222105200084,0.2992222105200084
0.3192159030599899,0.3192159030599899
0.3461039723378961,0.3461039723378961
0.3736814792895948,0.3736814792895948
0.40746392530542563,0.40746392530542563
0.44538299736401127,0.44538299736401127
0.492264759181899,0.492264759181899
0.5453514600639189,0.5453514600639189
0.6087797260528258,0.6087797260528258
0.6797918064534498,0.6797918064534498
0.7576982635919985,0.7576982635919985
0.839741346773302,0.839741346773302
0.9252316183235678,0.9252316183235678
1.0148585159165884,1.0148585159165884
1.1072431642047789,1.1072431642047789
1.2016961255143468,1.2016961255143468
1.2961490868239147,1.2961490868239147
1.3885337351121052,1.3885337351121052
1.477471195031333,1.477471195031333
1.5595142782126366,1.5595142782126366
1.636731297677393,1.636731297677393
1.707743378078017,1.707743378078017
1.7725505194145088,1.7725505194145088
1.8270160956441135,1.8270160956441135
1.8683823560716615,1.8683823560716615
1.8904443616330204,1.8904443616330204
1.889754923959228,1.889754923959228
1.8628668546813218,1.8628668546813218
1.8139167798420566,1.8139167798420566
1.7429046994414326,1.7429046994414326
1.6587933032387518,1.6587933032387518
1.562961466581599,1.562961466581599
1.4664401922506536,1.4664401922506536
1.3678506048983312,1.3678506048983312
1.278913144979103,1.278913144979103
1.196180624124007,1.196180624124007
1.1313734827875153,1.1313734827875153
1.0769079065579104,1.0769079065579104
1.0431254605420794,1.0431254605420794
1.0169268289379658,1.0169268289379658
1.0045169508097014,1.0045169508097014
0.9893493219862671,0.9893493219862671
0.9790077568793801,0.9790077568793801
0.962461252708361,0.962461252708361
0.9486724992325116,0.9486724992325116
0.9307471197139076,0.9307471197139076
0.9162689285642658,0.9162689285642658
0.8976541113718691,0.8976541113718691
0.8852442332436048,0.8852442332436048
0.8749026681367178,0.8749026681367178
0.8749026681367178,0.8749026681367178
0.8790392941794726,0.8790392941794726
0.8928280476553219,0.8928280476553219
0.9093745518263411,0.9093745518263411
0.9314365573877,0.9314365573877
0.9507408122538891,0.9507408122538891
0.972802817815248,0.972802817815248
0.9948648233766069,0.9948648233766069
1.0162373912641733,1.0162373912641733
1.0293367070662303,1.0293367070662303
1.0389888344993248,1.0389888344993248
1.0465726489110418,1.0465726489110418
1.0555353386703439,1.0555353386703439
1.063119153082061,1.063119153082061
1.0727712805151557,1.0727712805151557
1.0810445326006652,1.0810445326006652
1.0886283470123823,1.0886283470123823
1.0900072223599673,1.0900072223599673
1.0948332860765144,1.0948332860765144
1.0982804744454768,1.0982804744454768
1.1065537265309864,1.1065537265309864
1.1079326018785713,1.1079326018785713
1.1106903525737413,1.1106903525737413
1.1010382251406468,1.1010382251406468
1.0934544107289297,1.0934544107289297
1.0824234079482502,1.0824234079482502
1.0789762195792878,1.0789762195792878
1.0727712805151557,1.0727712805151557
1.074839593536533,1.074839593536533
1.0727712805151557,1.0727712805151557
1.0775973442317028,1.0775973442317028
1.0727712805151557,1.0727712805151557
1.073460718188948,1.073460718188948
1.0727712805151557,1.0727712805151557
1.0796656572530803,1.0796656572530803
1.0879389093385898,1.0879389093385898
1.116205853964081,1.116205853964081
1.1672242418247234,1.1672242418247234
1.2534039510487818,1.2534039510487818
1.3630245411817838,1.3630245411817838
1.48781276013822,1.48781276013822
1.5960544749236374,1.5960544749236374
1.6581038655649594,1.6581038655649594
1.6567249902173744,1.6567249902173744
1.6077749153781093,1.6077749153781093
1.552619901474712,1.552619901474712
1.5402100233464475,1.5402100233464475
1.5995016632925996,1.5995016632925996
1.7201532562062813,1.7201532562062813
1.857351353290982,1.857351353290982
1.9552515029695123,1.9552515029695123
1.9842078852687959,1.9842078852687959
1.9442205001888329,1.9442205001888329
1.8732084197882088,1.8732084197882088
1.8015069017137924,1.8015069017137924
1.7408363864200553,1.7408363864200553
1.6629299292815065,1.6629299292815065
1.5388311479988626,1.5388311479988626
1.3375153472514627,1.3375153472514627
1.0755290312103254,1.0755290312103254
0.7776919561319801,0.7776919561319801
0.492264759181899,0.492264759181899
0.2357939445311015,0.2357939445311015
0.025515454024399278,0.025515454024399278
-0.15235946581405702,-0.15235946581405702
-0.29852025265805987,-0.29852025265805987
-0.4315817237000058,-0.4315817237000058
-0.5474072528971402,-0.5474072528971402
-0.6646116574418595,-0.6646116574418595
-0.774921685248654,-0.774921685248654
-0.8900577767719959,-0.8900577767719959
-0.9948523031884507,-0.9948523031884507
-1.0948207658883584,-1.0948207658883584
-1.187205414176549,-1.187205414176549
-1.285105563855079,-1.285105563855079
-1.398862780030836,-1.398862780030836
-1.5222721236396877,-1.5222721236396877
-1.6560230323554261,-1.6560230323554261
-1.7628858717932583,-1.7628858717932583
-1.8538916447338638,-1.8538916447338638
-1.9118044093324311,-1.9118044093324311
-1.9676488609096208,-1.9676488609096208
-2.0338348775936974,-2.0338348775936974
-2.117256836122586,-2.117256836122586
-2.2227408002128333,-2.2227408002128333
-2.334429703367213,-2.334429703367213
-2.45094467023814,-2.45094467023814
-2.560565260371142,-2.560565260371142
-2.6694964128303513,-2.6694964128303513
-2.75843387274958,-2.75843387274958
-2.804626196893675,-2.804626196893675
-2.7405084932309753,-2.7405084932309753
-2.490932055318103,-2.490932055318103
-1.9697171739309982,-1.9697171739309982
-1.1465285914227934,-1.1465285914227934
-0.05445931613552681,-0.05445931613552681
1.1534354883488742,1.1534354883488742
2.2634301431547446,2.2634301431547446
3.012159456893363,3.012159456893363
3.2314006371593673,3.2314006371593673
2.852209916573511,2.852209916573511
2.000754389439815,2.000754389439815
0.8728343551153404,0.8728343551153404
-0.2633589312946441,-0.2633589312946441
-1.2561491815557955,-1.2561491815557955
-2.0083256836633763,-2.0083256836633763
-2.572975138499406,-2.572975138499406
-2.9769856153417913,-2.9769856153417913
-3.307915698762175,-3.307915698762175
-3.536809006461274,-3.536809006461274
-3.687106419348032,-3.687106419348032
-3.704342361192843,-3.704342361192843
-3.656081724027371,-3.656081724027371
-3.545082258546784,-3.545082258546784
-3.467175801408235,-3.467175801408235
-3.410641912157253,-3.410641912157253
-3.419604601916555,-3.419604601916555
-3.450629297237216,-3.450629297237216
-3.500268809750273,-3.500268809750273
-3.5478400092419538,-3.5478400092419538
-3.585069643626747,-3.585069643626747
-3.625746466380502,-3.625746466380502
-3.647808471941861,-3.647808471941861
-3.66435497611288,-3.66435497611288
-3.6629761007652952,-3.6629761007652952
-3.655392286353578,-3.655392286353578
-3.647808471941861,-3.647808471941861
-3.641603532877729,-3.641603532877729
-3.642982408225314,-3.642982408225314
-3.643671845899106,-3.643671845899106
-3.647808471941861,-3.647808471941861
-3.649187347289446,-3.649187347289446
-3.660907787743918,-3.660907787743918
-3.671249352850805,-3.671249352850805
-3.685038106326654,-3.685038106326654
-3.688485294695617,-3.688485294695617
-3.687795857021824,-3.687795857021824
-3.67814372958873,-3.67814372958873
-3.676764854241145,-3.676764854241145
-3.67538597889356,-3.67538597889356
-3.686416981674239,-3.686416981674239
-3.694000796085956,-3.694000796085956
-3.712615613278353,-3.712615613278353
-3.726404366754202,-3.726404366754202
-3.7546713113796932,-3.7546713113796932
-3.771217815550713,-3.771217815550713
-3.790522070416902,-3.790522070416902
-3.7739755662458827,-3.7739755662458827
-3.7443297462728062,-3.7443297462728062
-3.669181039829428,-3.669181039829428
-3.587137956648124,-3.587137956648124
-3.4678652390820273,-3.4678652390820273
-3.358934086622818,-3.358934086622818
-3.220357114190532,-3.220357114190532
-3.101773834298228,-3.101773834298228
-2.96250742419215,-2.96250742419215
-2.849439645690185,-2.849439645690185
-2.723272551386164,-2.723272551386164
-2.626061839381426,-2.626061839381426
-2.521956750638764,-2.521956750638764
-2.4447397311740073,-2.4447397311740073
-2.362696647992704,-2.362696647992704
-2.306162758741722,-2.306162758741722
-2.24687111879557,-2.24687111879557
-2.211709797432154,-2.211709797432154
-2.179306226763908,-2.179306226763908
-2.175859038394946,-2.175859038394946
-2.1875794788494174,-2.1875794788494174
-2.2330823653197203,-2.2330823653197203
-2.2951317559610422,-2.2951317559610422
-2.3854480912278553,-2.3854480912278553
-2.482658803232593,-2.482658803232593
-2.5895216426704253,-2.5895216426704253
-2.685353479327578,-2.685353479327578
-2.777048689941976,-2.777048689941976
-2.850129083363978,-2.850129083363978
-2.9149362247004693,-2.9149362247004693
-2.961128548844565,-2.961128548844565
-3.002494809272113,-3.002494809272113
-3.0286934408762263,-3.0286934408762263
-3.05489207248034,-3.05489207248034
-3.069370263629982,-3.069370263629982
-3.088674518496171,-3.088674518496171
-3.096258332907888,-3.096258332907888
-3.11073652405753,-3.11073652405753
-3.112115399405115,-3.112115399405115
-3.122456964512002,-3.122456964512002
-3.121078089164417,-3.121078089164417
-3.1307302165975113,-3.1307302165975113
-3.127283028228549,-3.127283028228549
-3.134866842640266,-3.134866842640266
-3.123146402185794,-3.123146402185794
-3.122456964512002,-3.122456964512002
-3.0997055212768503,-3.0997055212768503
-3.090053393843756,-3.090053393843756
-3.059028698523095,-3.059028698523095
-3.041103319004491,-3.041103319004491
-3.003873684619698,-3.003873684619698
-2.982501116732131,-2.982501116732131
-2.949408108390093,-2.949408108390093
-2.933551041892866,-2.933551041892866
-2.9045946595935823,-2.9045946595935823
-2.888048155422563,-2.888048155422563
-2.857712897775695,-2.857712897775695
-2.8349614545405433,-2.8349614545405433
-2.799110695503335,-2.799110695503335
-2.770154313204052,-2.770154313204052
-2.730856365797881,-2.730856365797881
-2.696384482108258,-2.696384482108258
-2.6515710333117473,-2.6515710333117473
-2.6102047728841993,-2.6102047728841993
-2.561254698044934,-2.561254698044934
-2.512994060879462,-2.512994060879462
-2.4578390469760643,-2.4578390469760643
-2.399236844703705,-2.399236844703705
-2.334429703367213,-2.334429703367213
-2.2703119997045134,-2.2703119997045134
-2.204125983020437,-2.204125983020437
-2.1434554677267,-2.1434554677267
-2.08485326545434,-2.08485326545434
-2.0290088138771503,-2.0290088138771503
-1.9655805478882435,-1.9655805478882435
-1.8980156558565817,-1.8980156558565817
-1.8187303233704482,-1.8187303233704482
-1.7346189271677672,-1.7346189271677672
-1.6360293398154446,-1.6360293398154446
-1.5374397524631218,-1.5374397524631218
-1.4305769130252897,-1.4305769130252897
-1.3209563228922874,-1.3209563228922874
-1.183068788133794,-1.183068788133794
-1.0265664361829043,-1.0265664361829043
-0.8293872614782589,-0.8293872614782589
-0.6177298956239717,-0.6177298956239717
-0.3895260255986654,-0.3895260255986654
-0.1957940392629824,-0.1957940392629824
-0.038602249638300085,-0.038602249638300085
0.05171408562851299,0.05171408562851299
0.10549022418432537,0.10549022418432537
0.11445291394362743,0.11445291394362743
0.11376347626983496,0.11376347626983496
0.08825428233951371,0.08825428233951371
0.05722958701885272,0.05722958701885272
-0.007577554317639105,-0.007577554317639105
-0.09306782586790492,-0.09306782586790492
-0.21096166808641664,-0.21096166808641664
-0.3364393247166455,-0.3364393247166455
-0.468811358084799,-0.468811358084799
-0.5839474496081408,-0.5839474496081408
-0.6825370369604635,-0.6825370369604635
-0.746654740623163,-0.746654740623163
-0.7873315633769185,-0.7873315633769185
-0.7997414415051828,-0.7997414415051828
-0.7990520038313903,-0.7990520038313903
-0.783884375007956,-0.783884375007956
-0.7673378708369369,-0.7673378708369369
-0.7473441782969554,-0.7473441782969554
-0.7266610480831814,-0.7266610480831814
-0.7045990425218225,-0.7045990425218225
-0.6804687239390862,-0.6804687239390862
-0.663922219768067,-0.663922219768067
-0.6404813388591231,-0.6404813388591231
-0.6266925853832738,-0.6266925853832738
-0.5935995770412354,-0.5935995770412354
-0.5742953221750463,-0.5742953221750463
-0.5377551254640456,-0.5377551254640456
-0.5136248068813093,-0.5136248068813093
-0.489494488298573,-0.489494488298573
-0.47432685947513875,-0.47432685947513875
-0.46536416971583666,-0.46536416971583666
-0.4508859785661949,-0.4508859785661949
-0.4412338511331004,-0.4412338511331004
-0.4322711613737983,-0.4322711613737983
-0.44399160182827024,-0.44399160182827024
-0.468811358084799,-0.468811358084799
-0.5122459315337243,-0.5122459315337243
-0.5212086212930265,-0.5212086212930265
-0.437786662764138,-0.437786662764138
-0.15098059046647208,-0.15098059046647208
0.4143583020433503,0.4143583020433503
1.309937840299764,1.309937840299764
2.4743980713352394,2.4743980713352394
3.7595098952843964,3.7595098952843964
4.9191440626033245,4.9191440626033245
5.711997387464661,5.711997387464661
5.952611135618231,5.952611135618231
5.610650049417169,5.610650049417169
4.791598092951719,4.791598092951719
3.718833072530641,3.718833072530641
2.6178011074840724,2.6178011074840724
1.6601721785863366,1.6601721785863366
0.9086851141525486,0.9086851141525486
0.34748284768548104,0.34748284768548104
-0.0772107593706782,-0.0772107593706782
-0.397799277684175,-0.397799277684175
-0.622555959340519,-0.622555959340519
-0.7370026131900684,-0.7370026131900684
-0.745275865275578,-0.745275865275578
-0.6708165965059916,-0.6708165965059916
-0.570848133806084,-0.570848133806084
-0.4819106738868559,-0.4819106738868559
-0.4405444134593079,-0.4405444134593079
-0.4295134106786284,-0.4295134106786284
-0.44330216415447776,-0.44330216415447776
-0.45571204228274215,-0.45571204228274215
-0.458469792977912,-0.458469792977912
-0.45571204228274215,-0.45571204228274215
-0.43916553811172293,-0.43916553811172293
-0.42468734696208116,-0.42468734696208116
-0.397799277684175,-0.397799277684175
-0.36746402003730644,-0.36746402003730644
-0.33368157402147564,-0.33368157402147564
-0.30334631637460713,-0.30334631637460713
-0.2833526238346256,-0.2833526238346256
-0.27094274570636123,-0.27094274570636123
-0.26956387035877627,-0.26956387035877627
-0.26956387035877627,-0.26956387035877627
-0.2730110587277386,-0.2730110587277386
-0.27025330803256875,-0.27025330803256875
-0.27025330803256875,-0.27025330803256875
-0.27232162105394614,-0.27232162105394614
-0.28128431081324823,-0.28128431081324823
-0.2916258759201352,-0.2916258759201352
-0.30127800335322974,-0.30127800335322974
-0.30265687870081465,-0.30265687870081465
-0.29300475126772013,-0.29300475126772013
-0.26818499501119136,-0.26818499501119136
-0.23578142434294544,-0.23578142434294544
-0.20130954065332213,-0.20130954065332213
-0.16752709463749127,-0.16752709463749127
-0.12960802257890564,-0.12960802257890564
-0.0875523244775652,-0.0875523244775652
-0.03722337429071516,-0.03722337429071516
0.022757703329229412,0.022757703329229412
0.09308034605606097,0.09308034605606097
0.16753961482564733,0.16753961482564733
0.24337775894281863,0.24337775894281863
0.32059477840757483,0.32059477840757483
0.4040167369364633,0.4040167369364633
0.4929541968556915,0.4929541968556915
0.5867177204914669,0.5867177204914669
0.6825495571486196,0.6825495571486196
0.7770025184581876,0.7770025184581876
0.8631822276822458,0.8631822276822458
0.9410886848207946,0.9410886848207946
1.0107218898738337,1.0107218898738337
1.0769079065579104,1.0769079065579104
1.1382678595254399,1.1382678595254399
1.1954911864502147,1.1954911864502147
1.2444412612894797,1.2444412612894797
1.2796025826528954,1.2796025826528954
1.2947702114763298,1.2947702114763298
1.2871863970646127,1.2871863970646127
1.2540933887225743,1.2540933887225743
1.1996278124929693,1.1996278124929693
1.1258579813971754,1.1258579813971754
1.0403677098469097,1.0403677098469097
0.9479830615587191,0.9479830615587191
0.8562878509443211,0.8562878509443211
0.7701081417202629,0.7701081417202629
0.6894439338865443,0.6894439338865443
0.6177424158121279,0.6177424158121279
0.5529352744756361,0.5529352744756361
0.49709082289844625,0.49709082289844625
0.44607243503780375,0.44607243503780375
0.40539561228404825,0.40539561228404825
0.3716131662682174,0.3716131662682174
0.34679341001168856,0.34679341001168856
0.32611027979791457,0.32611027979791457
0.3130109639958577,0.3130109639958577
0.3033588365627632,0.3033588365627632
0.3012905235413858,0.3012905235413858
0.29991164819380084,0.29991164819380084
0.3019799612151782,0.3019799612151782
0.3019799612151782,0.3019799612151782
0.3033588365627632,0.3033588365627632
0.29991164819380084,0.29991164819380084
0.29991164819380084,0.29991164819380084
0.29991164819380084,0.29991164819380084
0.3033588365627632,0.3033588365627632
0.30749546260551797,0.30749546260551797
0.3123215263220652,0.3123215263220652
0.31645815236482006,0.31645815236482006
0.3212842160813673,0.3212842160813673
0.32817859281929196,0.32817859281929196
0.33645184490480157,0.33645184490480157
0.3440356593165187,0.3440356593165187
0.35093003605444334,0.35093003605444334
0.3598927258137455,0.3598927258137455
0.36954485324684,0.36954485324684
0.379886418353727,0.379886418353727
0.39298573415578386,0.39298573415578386
0.40746392530542563,0.40746392530542563
0.421252678781275,0.421252678781275
0.4309048062143695,0.4309048062143695
0.4384886206260866,0.4384886206260866
0.44400412201642636,0.44400412201642636
0.4488301857329736,0.4488301857329736
0.4515879364281435,0.4515879364281435
0.4529668117757284,0.4529668117757284
0.4502090610805585,0.4502090610805585
0.44745131038538866,0.44745131038538866
0.4433146843426339,0.4433146843426339
0.4426252466688414,0.4426252466688414
0.4384886206260866,0.4384886206260866
0.43779918295229414,0.43779918295229414
0.43366255690953937,0.43366255690953937
0.4322836815619544,0.4322836815619544
0.42676818017161466,0.42676818017161466
0.42607874249782224,0.42607874249782224
0.42676818017161466,0.42676818017161466
0.4309048062143695,0.4309048062143695
0.43366255690953937,0.43366255690953937
0.43986749597367153,0.43986749597367153
0.4515879364281435,0.4515879364281435
0.47020275362054004,0.47020275362054004
0.4943330722032764,0.4943330722032764
0.5246683298501449,0.5246683298501449
0.5674134656252778,0.5674134656252778
0.6253262302238449,0.6253262302238449
0.706679875731356,0.706679875731356
0.8163004658643581,0.8163004658643581
0.9500513745800966,0.9500513745800966
1.0886283470123823,1.0886283470123823
1.2085905022522714,1.2085905022522714
1.2947702114763298,1.2947702114763298
1.3437202863155948,1.3437202863155948
1.3581984774652367,1.3581984774652367
1.3430308486418023,1.3430308486418023
1.3016645882142543,1.3016645882142543
1.2340996961825927,1.2340996961825927
1.1320629204613077,1.1320629204613077
0.9955542610503993,0.9955542610503993
0.8356047207305471,0.8356047207305471
0.6715185543679402,0.6715185543679402
0.5170845154384278,0.5170845154384278
0.3819547313751044,0.3819547313751044
0.2723341412421022,0.2723341412421022
0.1909804957345912,0.1909804957345912
0.13444660648360895,0.13444660648360895
0.09721697209881577,0.09721697209881577
0.07791271723262672,0.07791271723262672
0.07170777816849451,0.07170777816849451
0.07239721584228698,0.07239721584228698
0.07308665351607944,0.07308665351607944
0.07515496653745685,0.07515496653745685
0.07791271723262672,0.07791271723262672
0.0820493432753815,0.0820493432753815
0.08411765629675891,0.08411765629675891
0.08894372001330618,0.08894372001330618
0.08549653164434384,0.08549653164434384
0.0923909083822685,0.0923909083822685
0.08411765629675891,0.08411765629675891
0.09170147070847603,0.09170147070847603
0.08549653164434384,0.08549653164434384
0.08825428233951371,0.08825428233951371
0.07929159258021165,0.07929159258021165
0.06963946514711712,0.06963946514711712
0.05722958701885272,0.05722958701885272
0.044130271216795865,0.044130271216795865
0.034478143783701336,0.034478143783701336
0.020689390307852013,0.020689390307852013
-0.0006831775797144423,-0.0006831775797144423
-0.03929168731209255,-0.03929168731209255
-0.07790019704447067,-0.07790019704447067
-0.07790019704447067,-0.07790019704447067
0.03792533215266367,0.03792533215266367
0.36402935185650026,0.36402935185650026
0.9824549452483425,0.9824549452483425
1.9159535555633418,1.9159535555633418
3.096270853096044,3.096270853096044
4.35035798172454,4.35035798172454
5.441737819338014,5.441737819338014
6.132554368478066,6.132554368478066
6.270441903236558,6.270441903236558
5.841611670137644,5.841611670137644
4.974988514180515,4.974988514180515
3.884298114240833,3.884298114240833
2.7942971519749435,2.7942971519749435
1.857351353290982,1.857351353290982
1.1334417958088927,1.1334417958088927
0.5949909725769764,0.5949909725769764
0.19304880875596858,0.19304880875596858
-0.11444039375547138,-0.11444039375547138
-0.3281660726311359,-0.3281660726311359
-0.44399160182827024,-0.44399160182827024
-0.45709091763032705,-0.45709091763032705
-0.4012464660531373,-0.4012464660531373
-0.31093013078632425,-0.31093013078632425
-0.23922861271190776,-0.23922861271190776
-0.1999306653057372,-0.1999306653057372
-0.193725726241605,-0.193725726241605
-0.2082039173912468,-0.2082039173912468
-0.21234054343400158,-0.21234054343400158
-0.224750421562266,-0.224750421562266
-0.21165110576020912,-0.21165110576020912
-0.21509829412917145,-0.21509829412917145
-0.1957940392629824,-0.1957940392629824
-0.19096797554643513,-0.19096797554643513
-0.17235315835403855,-0.17235315835403855
-0.162701030920944,-0.162701030920944
-0.15235946581405702,-0.15235946581405702
-0.15235946581405702,-0.15235946581405702
-0.15511721650922689,-0.15511721650922689
-0.1633904685947365,-0.1633904685947365
-0.17235315835403855,-0.17235315835403855
-0.18407359880851046,-0.18407359880851046
-0.19717291461056732,-0.19717291461056732
-0.21165110576020912,-0.21165110576020912
-0.22681873458364338,-0.22681873458364338
-0.2447441141022475,-0.2447441141022475
-0.2592223052518893,-0.2592223052518893
-0.26818499501119136,-0.26818499501119136
-0.26818499501119136,-0.26818499501119136
-0.25991174292568175,-0.25991174292568175
-0.2406074880594927,-0.2406074880594927
-0.2137194187815865,-0.2137194187815865
-0.18062641043954814,-0.18062641043954814
-0.14615452674992482,-0.14615452674992482
-0.10340939097479192,-0.10340939097479192
-0.05308044078794188,-0.05308044078794188
0.00827951217958762,0.00827951217958762
0.07308665351607944,0.07308665351607944
0.14203042089532608,0.14203042089532608
0.21166362594836516,0.21166362594836516
0.2819862686751967,0.2819862686751967
0.3529983490758208,0.3529983490758208
0.42745761784540715,0.42745761784540715
0.5074323880053332,0.5074323880053332
0.5880965958390518,0.5880965958390518
0.6694502413465628,0.6694502413465628
0.7473566984851115,0.7473566984851115
0.8259525932974526,0.8259525932974526
0.9031696127622089,0.9031696127622089
0.9852126959435124,0.9852126959435124
1.0658769037772309,1.0658769037772309
1.1437833609157797,1.1437833609157797
1.2099693775998563,1.2099693775998563
1.2644349538294613,1.2644349538294613
1.2961490868239147,1.2961490868239147
1.3030434635618393,1.3030434635618393
1.2837392086956503,1.2837392086956503
1.2437518236156873,1.2437518236156873
1.1817024329743653,1.1817024329743653
1.104485413509609,1.104485413509609
1.0183057042855508,1.0183057042855508
0.9321259950614925,0.9321259950614925
0.8473251611850191,0.8473251611850191
0.7652820780037156,0.7652820780037156
0.6887544962127519,0.6887544962127519
0.6211896041810901,0.6211896041810901
0.5612085265611456,0.5612085265611456
0.5053640749839559,0.5053640749839559
0.4571034378184832,0.4571034378184832
0.4184949280861051,0.4184949280861051
0.3895385457868215,0.3895385457868215
0.36678710255167013,0.36678710255167013
0.35368778674961326,0.35368778674961326
0.3461039723378961,0.3461039723378961
0.3447250969903112,0.3447250969903112
0.33852015792617896,0.33852015792617896
0.3336940942096317,0.3336940942096317
0.32679971747170705,0.32679971747170705
0.3233525291027447,0.3233525291027447
0.31990534073378235,0.31990534073378235
0.3219736537551598,0.3219736537551598
0.32679971747170705,0.32679971747170705
0.33645184490480157,0.33645184490480157
0.3426567839689338,0.3426567839689338
0.3523089114020283,0.3523089114020283
0.3633399141827078,0.3633399141827078
0.3791969806799345,0.3791969806799345
0.4019484239150859,0.4019484239150859
0.43986749597367153,0.43986749597367153
0.49846969824603116,0.49846969824603116
0.5812022191011271,0.5812022191011271
0.6839284324962046,0.6839284324962046
0.7949278979767916,0.7949278979767916
0.8942069230029068,0.8942069230029068
0.9569457513180213,0.9569457513180213
0.9672873164249083,0.9672873164249083
0.9252316183235678,0.9252316183235678
0.8473251611850191,0.8473251611850191
0.7549405128968286,0.7549405128968286
0.6728974297155251,0.6728974297155251
0.6129163520955806,0.6129163520955806
0.5784444684059573,0.5784444684059573
0.5570719005183908,0.5570719005183908
0.5356993326308244,0.5356993326308244
0.4998485735936161,0.4998485735936161
0.44745131038538866,0.44745131038538866
0.3791969806799345,0.3791969806799345
0.30680602493172554,0.30680602493172554
0.23510450685730902,0.23510450685730902
0.1723656785421946,0.1723656785421946
0.11169516324845756,0.11169516324845756
0.05860846236643766,0.05860846236643766
-0.002062052927299375,-0.002062052927299375
-0.06549031891620627,-0.06549031891620627
-0.14201790070717002,-0.14201790070717002
-0.22543985923605844,-0.22543985923605844
-0.32954494797872086,-0.32954494797872086
-0.44537047717585515,-0.44537047717585515
-0.5839474496081408,-0.5839474496081408
-0.7280399234307663,-0.7280399234307663
-0.888678901424411,-0.888678901424411
-1.042423502680131,-1.042423502680131
-1.196168103935851,-1.196168103935851
-1.3223351982398723,-1.3223351982398723
-1.4312663506990821,-1.4312663506990821
-1.5057256194686683,-1.5057256194686683
-1.5746693868479151,-1.5746693868479151
-1.6346504644678597,-1.6346504644678597
-1.7201407360181256,-1.7201407360181256
-1.8139042596539008,-1.8139042596539008
-1.9304192265248277,-1.9304192265248277
-2.0379715036364523,-2.0379715036364523
-2.1434554677267,-2.1434554677267
-2.2289457392769654,-2.2289457392769654
-2.3130571354796463,-2.3130571354796463
-2.388205841923025,-2.388205841923025
-2.464733423713989,-2.464733423713989
-2.5288511273766883,-2.5288511273766883
-2.586074454301463,-2.586074454301463
-2.631577340771766,-2.631577340771766
-2.679148540263446,-2.679148540263446
-2.729477490450296,-2.729477490450296
-2.794284631786788,-2.794284631786788
-2.866675587534997,-2.866675587534997
-2.942513731652168,-2.942513731652168
-3.00732087298866,-3.00732087298866
-3.06316532456585,-3.06316532456585
-3.105910460340983,-3.105910460340983
-3.146587283094738,-3.146587283094738
-3.180369729110569,-3.180369729110569
-3.216220488147777,-3.216220488147777
-3.245866308120853,-3.245866308120853
-3.275512128093929,-3.275512128093929
-3.290679756917364,-3.290679756917364
-3.30929457410976,-3.30929457410976
-3.321015014564232,-3.321015014564232
-3.3465242084945532,-3.3465242084945532
-3.37065452707729,-3.37065452707729
-3.413399662852423,-3.413399662852423
-3.446492671194461,-3.446492671194461
-3.483722305579254,-3.483722305579254
-3.489927244643386,-3.489927244643386
-3.493374433012349,-3.493374433012349
-3.472691302798575,-3.472691302798575
-3.472691302798575,-3.472691302798575
-3.462349737691688,-3.462349737691688
-3.480275117210292,-3.480275117210292
-3.4782068041889143,-3.4782068041889143
-3.494063870686141,-3.494063870686141
-3.4871694939482167,-3.4871694939482167
-3.509920937183368,-3.509920937183368
-3.523020252985425,-3.523020252985425
-3.565765388760558,-3.565765388760558
-3.586448518974332,-3.586448518974332
-3.6112682752308602,-3.6112682752308602
-3.5995478347763887,-3.5995478347763887
-3.593342895712256,-3.593342895712256
-3.5712808901508972,-3.5712808901508972
-3.565075951086765,-3.565075951086765
-3.543703383199199,-3.543703383199199
-3.532672380418519,-3.532672380418519
-3.5168153139212928,-3.5168153139212928
-3.520262502290255,-3.520262502290255
-3.526467441354387,-3.526467441354387
-3.551976635284708,-3.551976635284708
-3.573349203172275,-3.573349203172275
-3.585759081300539,-3.585759081300539
-3.567144264108143,-3.567144264108143
-3.536119568787482,-3.536119568787482
-3.496821621381311,-3.496821621381311
-3.472691302798575,-3.472691302798575
-3.46028142467031,-3.46028142467031
-3.47407017814616,-3.47407017814616
-3.499579372076481,-3.499579372076481
-3.534740693439897,-3.534740693439897
-3.5581815743488407,-3.5581815743488407
-3.583001330605369,-3.583001330605369
-3.595411208733634,-3.595411208733634
-3.6188520896425778,-3.6188520896425778
-3.636088031487389,-3.636088031487389
-3.6719387905245973,-3.6719387905245973
-3.698826859802504,-3.698826859802504
-3.736745931861089,-3.736745931861089
-3.749845247663146,-3.749845247663146
-3.767081189507958,-3.767081189507958
-3.753981873705901,-3.753981873705901
-3.748466372315561,-3.748466372315561
-3.713994488625938,-3.713994488625938
-3.695379671433541,-3.695379671433541
-3.653323973332201,-3.653323973332201
-3.634019718466012,-3.634019718466012
-3.594032333386049,-3.594032333386049
-3.579554142236407,-3.579554142236407
-3.546461133894369,-3.546461133894369
-3.536119568787482,-3.536119568787482
-3.505784311140613,-3.505784311140613
-3.4961321837075188,-3.4961321837075188
-3.472001865124782,-3.472001865124782
-3.4692441144296122,-3.4692441144296122
-3.4561447986275557,-3.4561447986275557
-3.461660300017895,-3.461660300017895
-3.455455360953763,-3.455455360953763
-3.46028142467031,-3.46028142467031
-3.452697610258593,-3.452697610258593
-3.454765923279971,-3.454765923279971
-3.4485609842158382,-3.4485609842158382
-3.449939859563423,-3.449939859563423
-3.443734920499291,-3.443734920499291
-3.443045482825499,-3.443045482825499
-3.4368405437613663,-3.4368405437613663
-3.436151106087574,-3.436151106087574
-3.432703917718612,-3.432703917718612
-3.4354616684137818,-3.4354616684137818
-3.4368405437613663,-3.4368405437613663
-3.445113795846876,-3.445113795846876
-3.449250421889631,-3.449250421889631
-3.4575236739751403,-3.4575236739751403
-3.460970862344103,-3.460970862344103
-3.46855467675582,-3.46855467675582
-3.4664863637344427,-3.4664863637344427
-3.467175801408235,-3.467175801408235
-3.452697610258593,-3.452697610258593
-3.441666607477914,-3.441666607477914
-3.413399662852423,-3.413399662852423
-3.3954742833338183,-3.3954742833338183
-3.361002399644195,-3.361002399644195
-3.329288266649742,-3.329288266649742
-3.256897310901533,-3.256897310901533
-3.16658097563472,-3.16658097563472
-3.023867377159679,-3.023867377159679
-2.880464341010846,-2.880464341010846
-2.723272551386164,-2.723272551386164
-2.613651961253162,-2.613651961253162
-2.5185095622698013,-2.5185095622698013
-2.470248925104329,-2.470248925104329
-2.4137150358533463,-2.4137150358533463
-2.3737276507733833,-2.3737276507733833
-2.3158148861748162,-2.3158148861748162
-2.284100753180363,-2.284100753180363
-2.2627281852927963,-2.2627281852927963
-2.287547941549325,-2.287547941549325
-2.3309825149982504,-2.3309825149982504
-2.4047523460940443,-2.4047523460940443
-2.472317238125706,-2.472317238125706
-2.54332931852633,-2.54332931852633
-2.5895216426704253,-2.5895216426704253
-2.621235775664879,-2.621235775664879
-2.6191674626435013,-2.6191674626435013
-2.59917377010352,-2.59917377010352
-2.553670883633217,-2.553670883633217
-2.501963058098782,-2.501963058098782
-2.4385347921098752,-2.4385347921098752
-2.377174839142346,-2.377174839142346
-2.310988822458269,-2.310988822458269
-2.2392873043838524,-2.2392873043838524
-2.1682752239832284,-2.1682752239832284
-2.0855427031281324,-2.0855427031281324
-2.015220060401301,-2.015220060401301
-1.9331769772199976,-1.9331769772199976
-1.8669909605359207,-1.8669909605359207
-1.7939105671139193,-1.7939105671139193
-1.72979286345122,-1.72979286345122
-1.6698117858312753,-1.6698117858312753
-1.6077623951899533,-1.6077623951899533
-1.555365131981726,-1.555365131981726
-1.4988312427307438,-1.4988312427307438
-1.4588438576507807,-1.4588438576507807
-1.4236825362873649,-1.4236825362873649
-1.4195459102446102,-1.4195459102446102
-1.4181670348970252,-1.4181670348970252
-1.4181670348970252,-1.4181670348970252
-1.3361239517157215,-1.3361239517157215
-1.11205670773317,-1.11205670773317
-0.6260031477094813,-0.6260031477094813
0.16547130180426994,0.16547130180426994
1.278913144979103,1.278913144979103
2.5778137224041093,2.5778137224041093
3.8718882361125684,3.8718882361125684
4.879846115197155,4.879846115197155
5.3969243705415035,5.3969243705415035
5.300403096210559,5.300403096210559
4.664052123300112,4.664052123300112
3.6602308702582813,3.6602308702582813
2.5488573401048256,2.5488573401048256
1.5236635191754284,1.5236635191754284
0.7053010003837711,0.7053010003837711
0.08894372001330618,0.08894372001330618
-0.36746402003730644,-0.36746402003730644
-0.724592735061804,-0.724592735061804
-0.9900262394719035,-0.9900262394719035
-1.1603173448986426,-1.1603173448986426
-1.216851234149625,-1.216851234149625
-1.1782427244172469,-1.1782427244172469
-1.0755165110221694,-1.0755165110221694
-0.9762374859960542,-0.9762374859960542
-0.9072937186168075,-0.9072937186168075
-0.897641591183713,-0.897641591183713
-0.9141880953547322,-0.9141880953547322
-0.947970541370563,-0.947970541370563
-0.9727902976270919,-0.9727902976270919
-0.9783057990174315,-0.9783057990174315
-0.9707219846057145,-0.9707219846057145
-0.947970541370563,-0.947970541370563
-0.928666286504374,-0.928666286504374
-0.9059148432692227,-0.9059148432692227
-0.8838528377078637,-0.8838528377078637
-0.8631697074940897,-0.8631697074940897
-0.8417971396065232,-0.8417971396065232
-0.825250635435504,-0.825250635435504
-0.8066358182431075,-0.8066358182431075
-0.7976731284838054,-0.7976731284838054
-0.7907787517458807,-0.7907787517458807
-0.7935365024410507,-0.7935365024410507
-0.7893998763982958,-0.7893998763982958
-0.7893998763982958,-0.7893998763982958
-0.7831949373341637,-0.7831949373341637
-0.7804371866389938,-0.7804371866389938
-0.7721639345534842,-0.7721639345534842
-0.7673378708369369,-0.7673378708369369
-0.7583751810776348,-0.7583751810776348
-0.7507913666659177,-0.7507913666659177
-0.7321765494735212,-0.7321765494735212
-0.7121828569335396,-0.7121828569335396
-0.684605349981841,-0.684605349981841
-0.654959530008765,-0.654959530008765
-0.6163510202763868,-0.6163510202763868
-0.5756741975226313,-0.5756741975226313
-0.5301713110523285,-0.5301713110523285
-0.4832895492344408,-0.4832895492344408
-0.4302028483524209,-0.4302028483524209
-0.3764267097966085,-0.3764267097966085
-0.31920338287183386,-0.31920338287183386
-0.2592223052518893,-0.2592223052518893
-0.1916574132202276,-0.1916574132202276
-0.12064533281960357,-0.12064533281960357
-0.044117751028639816,-0.044117751028639816
0.034478143783701336,0.034478143783701336
0.11445291394362743,0.11445291394362743
0.18891218271321378,0.18891218271321378
0.25716651241866795,0.25716651241866795
0.31990534073378235,0.31990534073378235
0.3819547313751044,0.3819547313751044
0.441935808995049,0.441935808995049
0.5005380112674086,0.5005380112674086
0.5543141498232209,0.5543141498232209
0.6039536623362786,0.6039536623362786
0.6411832967210717,0.6411832967210717
0.6680713659989779,0.6680713659989779
0.6804812441272423,0.6804812441272423
0.6797918064534498,0.6797918064534498
0.6604875515872608,0.6604875515872608
0.6232579172024676,0.6232579172024676
0.5667240279514854,0.5667240279514854
0.5005380112674086,0.5005380112674086
0.42676818017161466,0.42676818017161466
0.35782441279236804,0.35782441279236804
0.2923278337820837,0.2923278337820837
0.23648338220489395,0.23648338220489395
0.1861544320180439,0.1861544320180439
0.1454776092642884,0.1454776092642884
0.11169516324845756,0.11169516324845756
0.08618596931813631,0.08618596931813631
0.06688171445194725,0.06688171445194725
0.053092960976097926,0.053092960976097926
0.03999364517404107,0.03999364517404107
0.02620489169819174,0.02620489169819174
0.012416138222342417,0.012416138222342417
0.002764010789247889,0.002764010789247889
-0.0027514906010918413,-0.0027514906010918413
-0.006198678970054172,-0.006198678970054172
-0.006888116643846639,-0.006888116643846639
-0.006198678970054172,-0.006198678970054172
-0.0034409282748843074,-0.0034409282748843074
-0.002062052927299375,-0.002062052927299375
0.004142886136832821,0.004142886136832821
0.014484451243719816,0.014484451243719816
0.027583767045776676,0.027583767045776676
0.03792533215266367,0.03792533215266367
0.04619858423817327,0.04619858423817327
0.053782398649890394,0.053782398649890394
0.06136621306160752,0.06136621306160752
0.07101834049470206,0.07101834049470206
0.08549653164434384,0.08549653164434384
0.10617966185811784,0.10617966185811784
0.12617335439809935,0.12617335439809935
0.1413409832215336,0.1413409832215336
0.1496142353070432,0.1496142353070432
0.15444029902359047,0.15444029902359047
0.15444029902359047,0.15444029902359047
0.153750861349798,0.153750861349798
0.15306142367600553,0.15306142367600553
0.153750861349798,0.153750861349798
0.15237198600221308,0.15237198600221308
0.1496142353070432,0.1496142353070432
0.14478817159049595,0.14478817159049595
0.14203042089532608,0.14203042089532608
0.1413409832215336,0.1413409832215336
0.14616704693808089,0.14616704693808089
0.15444029902359047,0.15444029902359047
0.16547130180426994,0.16547130180426994
0.17374455388977952,0.17374455388977952
0.18132836830149665,0.18132836830149665
0.18477555667045897,0.18477555667045897
0.1861544320180439,0.1861544320180439
0.18477555667045897,0.18477555667045897
0.18546499434425145,0.18546499434425145
0.18546499434425145,0.18546499434425145
0.18546499434425145,0.18546499434425145
0.18546499434425145,0.18546499434425145
0.1861544320180439,0.1861544320180439
0.18477555667045897,0.18477555667045897
0.18132836830149665,0.18132836830149665
0.174433991563572,0.174433991563572
0.16547130180426994,0.16547130180426994
0.15444029902359047,0.15444029902359047
0.14271985856911854,0.14271985856911854
0.13030998044085415,0.13030998044085415
0.11790010231258975,0.11790010231258975
0.10342191116294797,0.10342191116294797
0.08549653164434384,0.08549653164434384
0.06688171445194725,0.06688171445194725
0.050335210280928064,0.050335210280928064
0.03861476982645613,0.03861476982645613
0.025515454024399278,0.025515454024399278
0.014484451243719816,0.014484451243719816
0.0013851354416629564,0.0013851354416629564
-0.013782493381771302,-0.013782493381771302
-0.03308674824796036,-0.03308674824796036
-0.05101212776656448,-0.05101212776656448
-0.06549031891620627,-0.06549031891620627
-0.07652132169688573,-0.07652132169688573
-0.08617344912998026,-0.08617344912998026
-0.09168895052031999,-0.09168895052031999
-0.08824176215135766,-0.08824176215135766
-0.07858963471826313,-0.07858963471826313
-0.06135369287345147,-0.06135369287345147
-0.037912811964507624,-0.037912811964507624
6.260094078023943e-06,6.260094078023943e-06
0.053092960976097926,0.053092960976097926
0.13444660648360895,0.13444660648360895
0.2461355096379885,0.2461355096379885
0.3909174211344064,0.3909174211344064
0.5453514600639189,0.5453514600639189
0.6901333715603368,0.6901333715603368
0.7976856486719616,0.7976856486719616
0.8624927900084534,0.8624927900084534
0.8797287318532651,0.8797287318532651
0.8659399783774157,0.8659399783774157
0.8287103439926226,0.8287103439926226
0.7763130807843951,0.7763130807843951
0.7032326873623936,0.7032326873623936
0.6108480390742032,0.6108480390742032
0.4929541968556915,0.4929541968556915
0.35782441279236804,0.35782441279236804
0.21373193896974257,0.21373193896974257
0.07446552886366438,0.07446552886366438
-0.05308044078794188,-0.05308044078794188
-0.16132215557335908,-0.16132215557335908
-0.2488807401450023,-0.2488807401450023
-0.31093013078632425,-0.31093013078632425
-0.35367526656145715,-0.35367526656145715
-0.3791844604917784,-0.3791844604917784
-0.39642040233659004,-0.39642040233659004
-0.4074514051172695,-0.4074514051172695
-0.4191718455717414,-0.4191718455717414
-0.4308922860262134,-0.4308922860262134
-0.43916553811172293,-0.43916553811172293
-0.4501965408924024,-0.4501965408924024
-0.44743879019723254,-0.44743879019723254
-0.45364372926136476,-0.45364372926136476
-0.43571834974276064,-0.43571834974276064
-0.43296059904759077,-0.43296059904759077
-0.408140842791062,-0.408140842791062
-0.3991781530317599,-0.3991781530317599
-0.38469996188211814,-0.38469996188211814
-0.38401052420832565,-0.38401052420832565
-0.3909049009462503,-0.3909049009462503
-0.4012464660531373,-0.4012464660531373
-0.4198612832455339,-0.4198612832455339
-0.4412338511331004,-0.4412338511331004
-0.47639517249651614,-0.47639517249651614
-0.5163825575764792,-0.5163825575764792
-0.5646431947419518,-0.5646431947419518
-0.5749847598488388,-0.5749847598488388
-0.4915628013199504,-0.4915628013199504
-0.2082039173912468,-0.2082039173912468
0.35368778674961326,0.35368778674961326
1.2430623859418948,1.2430623859418948
2.4068331793035775,2.4068331793035775
3.6960816292954894,3.6960816292954894
4.859852422657172,4.859852422657172
5.6471902461281696,5.6471902461281696
5.8747046784796835,5.8747046784796835
5.514818212760016,5.514818212760016
4.679219752123546,4.679219752123546
3.5919765405528272,3.5919765405528272
2.4874973871372963,2.4874973871372963
1.5360733973036929,1.5360733973036929
0.7963067733243766,0.7963067733243766
0.2475143849855734,0.2475143849855734
-0.16476934394232143,-0.16476934394232143
-0.4729479841275538,-0.4729479841275538
-0.6859842253294259,-0.6859842253294259
-0.7928470647672582,-0.7928470647672582
-0.7976731284838054,-0.7976731284838054
-0.7266610480831814,-0.7266610480831814
-0.6363447128163683,-0.6363447128163683
-0.5653326324157443,-0.5653326324157443
-0.5446495022019703,-0.5446495022019703
-0.5577488180040272,-0.5577488180040272
-0.591531264019858,-0.591531264019858
-0.6184193332977642,-0.6184193332977642
-0.6266925853832738,-0.6266925853832738
-0.622555959340519,-0.622555959340519
-0.5998045161053676,-0.5998045161053676
-0.579810823565386,-0.579810823565386
-0.5556805049826498,-0.5556805049826498
-0.5384445631378381,-0.5384445631378381
-0.5267241226833662,-0.5267241226833662
-0.5170719952502717,-0.5170719952502717
-0.5143142445551018,-0.5143142445551018
-0.5081093054909696,-0.5081093054909696
-0.5046621171220073,-0.5046621171220073
-0.49569942736270517,-0.49569942736270517
-0.49500998968891274,-0.49500998968891274
-0.4929416766675353,-0.4929416766675353
-0.5025938041006298,-0.5025938041006298
-0.5129353692075168,-0.5129353692075168
-0.5267241226833662,-0.5267241226833662
-0.5370656877902532,-0.5370656877902532
-0.5453389398757628,-0.5453389398757628
-0.55016500359231,-0.55016500359231
-0.5556805049826498,-0.5556805049826498
-0.5584382556778196,-0.5584382556778196
-0.5577488180040272,-0.5577488180040272
-0.5453389398757628,-0.5453389398757628
-0.5225874966406113,-0.5225874966406113
-0.48673673760340314,-0.48673673760340314
-0.4412338511331004,-0.4412338511331004
-0.38814715025108043,-0.38814715025108043
-0.33161326100009825,-0.33161326100009825
-0.27232162105394614,-0.27232162105394614
-0.2082039173912468,-0.2082039173912468
-0.1323657732740755,-0.1323657732740755
-0.04618606405001722,-0.04618606405001722
0.049645772607135596,0.049645772607135596
0.153750861349798,0.153750861349798
0.2647503268303851,0.2647503268303851
0.3778181053323496,0.3778181053323496
0.4929541968556915,0.4929541968556915
0.6060219753576559,0.6060219753576559
0.7149531278168656,0.7149531278168656
0.8114744021478109,0.8114744021478109
0.8935174853291143,0.8935174853291143
0.9569457513180213,0.9569457513180213
1.0065852638310788,1.0065852638310788
1.0410571475207022,1.0410571475207022
1.0665663414510234,1.0665663414510234
1.0741501558627404,1.0741501558627404
1.0651874661034384,1.0651874661034384
1.0300261447400227,1.0300261447400227
0.9741816931628329,0.9741816931628329
0.8948963606766993,0.8948963606766993
0.8038905877360938,0.8038905877360938
0.7004749366672238,0.7004749366672238
0.5956804102507689,0.5956804102507689
0.48468094477018187,0.48468094477018187
0.37574979231097216,0.37574979231097216
0.26888695287313985,0.26888695287313985
0.17374455388977952,0.17374455388977952
0.09101203303468357,0.09101203303468357
0.022068265655436944,0.022068265655436944
-0.035155061269337755,-0.035155061269337755
-0.08203682308722546,-0.08203682308722546
-0.12133477049339604,-0.12133477049339604
-0.15649609185681182,-0.15649609185681182
-0.1854524741560954,-0.1854524741560954
-0.20889335506503925,-0.20889335506503925
-0.22612929690985092,-0.22612929690985092
-0.2406074880594927,-0.2406074880594927
-0.25025961549258724,-0.25025961549258724
-0.2564645545567194,-0.2564645545567194
-0.2571539922305119,-0.2571539922305119
-0.255775116882927,-0.255775116882927
-0.25025961549258724,-0.25025961549258724
-0.24405467642845505,-0.24405467642845505
-0.23716029969053037,-0.23716029969053037
-0.23233423597398312,-0.23233423597398312
-0.22681873458364338,-0.22681873458364338
-0.21923492017192625,-0.21923492017192625
-0.20751447971745432,-0.20751447971745432
-0.1916574132202276,-0.1916574132202276
-0.173042596027831,-0.173042596027831
-0.15235946581405702,-0.15235946581405702
-0.13305521094786796,-0.13305521094786796
-0.11581926910305632,-0.11581926910305632
-0.10203051562720698,-0.10203051562720698
-0.08824176215135766,-0.08824176215135766
-0.0772107593706782,-0.0772107593706782
-0.06824806961137614,-0.06824806961137614
-0.06273256822103641,-0.06273256822103641
-0.057217066830696675,-0.057217066830696675
-0.053769878461734345,-0.053769878461734345
-0.05308044078794188,-0.05308044078794188
-0.05239100311414941,-0.05239100311414941
-0.048254377071394614,-0.048254377071394614
-0.04549662637622475,-0.04549662637622475
-0.044807188702432284,-0.044807188702432284
-0.050322690092772016,-0.050322690092772016
-0.05652762915690421,-0.05652762915690421
-0.0689375072851686,-0.0689375072851686
-0.07996851006584807,-0.07996851006584807
-0.09031007517273505,-0.09031007517273505
-0.09237838819411245,-0.09237838819411245
-0.09099951284652752,-0.09099951284652752
-0.08617344912998026,-0.08617344912998026
-0.0772107593706782,-0.0772107593706782
-0.05859594217828161,-0.05859594217828161
-0.024124058488658295,-0.024124058488658295
0.03172039308853147,0.03172039308853147
0.10893741255328769,0.10893741255328769
0.19925374782010077,0.19925374782010077
0.2806073933276118,0.2806073933276118
0.3330046565358392,0.3330046565358392
0.33852015792617896,0.33852015792617896
0.29715389749863097,0.29715389749863097
0.2171791273387049,0.2171791273387049
0.12479447905051443,0.12479447905051443
0.03585701913128627,0.03585701913128627
-0.02895012220520556,-0.02895012220520556
-0.06617975658999874,-0.06617975658999874
-0.06411144356862133,-0.06411144356862133
-0.027571246857620628,-0.027571246857620628
0.053092960976097926,0.053092960976097926
0.1661607394780624,0.1661607394780624
0.30818490027931045,0.30818490027931045
0.4446935596902188,0.4446935596902188
0.5605190888873531,0.5605190888873531
0.6218790418548826,0.6218790418548826
0.6370466706783169,0.6370466706783169
0.5922332218818066,0.5922332218818066
0.5115690140480881,0.5115690140480881
0.38264416904889686,0.38264416904889686
0.22476294175042202,0.22476294175042202
0.020689390307852013,0.020689390307852013
-0.20130954065332213,-0.20130954065332213
-0.44605991484964763,-0.44605991484964763
-0.6777109732439163,-0.6777109732439163
-0.9072937186168075,-0.9072937186168075
-1.1113672700593775,-1.1113672700593775
-1.320266885218495,-1.320266885218495
-1.515377746901763,-1.515377746901763
-1.7139357969539932,-1.7139357969539932
-1.8849163400545248,-1.8849163400545248
-2.046244755721962,-2.046244755721962
-2.182063977459078,-2.182063977459078
-2.3144360108272313,-2.3144360108272313
-2.429572102350573,-2.429572102350573
-2.541261005504953,-2.541261005504953
-2.637782279835898,-2.637782279835898
-2.720514800690994,-2.720514800690994
-2.786011379701278,-2.786011379701278
-2.839098080583298,-2.839098080583298
-2.890805906117733,-2.890805906117733
-2.931482728871489,-2.931482728871489
-2.9756067399942063,-2.9756067399942063
-3.01559412507417,-3.01559412507417
-3.070749138977567,-3.070749138977567
-3.1410717817043983,-3.1410717817043983
-3.2134627374526072,-3.2134627374526072
-3.295505820633911,-3.295505820633911
-3.363070712665573,-3.363070712665573
-3.433393355392404,-3.433393355392404
-3.4961321837075188,-3.4961321837075188
-3.579554142236407,-3.579554142236407
-3.66711272680805,-3.66711272680805
-3.7636340011389957,-3.7636340011389957
-3.805689699240336,-3.805689699240336
-3.753981873705901,-3.753981873705901
-3.5064737488144058,-3.5064737488144058
-3.00732087298866,-3.00732087298866
-2.1889583541970024,-2.1889583541970024
-1.11205670773317,-1.11205670773317
0.11996841533396715,0.11996841533396715
1.2561617017439517,1.2561617017439517
2.0841763479687034,2.0841763479687034
2.3633986058546523,2.3633986058546523
2.0690087191452693,2.0690087191452693
1.2451306989632722,1.2451306989632722
0.1496142353070432,0.1496142353070432
-1.0224298101401494,-1.0224298101401494
-2.0290088138771503,-2.0290088138771503
-2.832893141519166,-2.832893141519166
-3.394784845660026,-3.394784845660026
-3.82085732806377,-3.82085732806377
-4.122141591511078,-4.122141591511078
-4.3620659019908565,-4.3620659019908565
-4.493748497685218,-4.493748497685218
-4.54752463624103,-4.54752463624103
-4.493748497685218,-4.493748497685218
-4.408947663808744,-4.408947663808744
-4.3027742620447045,-4.3027742620447045
-4.255203062553024,-4.255203062553024
-4.246929810467514,-4.246929810467514
-4.3027742620447045,-4.3027742620447045
-4.374475780119121,-4.374475780119121
-4.446177298193537,-4.446177298193537
-4.4965062483803875,-4.4965062483803875
-4.510295001856236,-4.510295001856236
-4.504779500465896,-4.504779500465896
-4.474444242819028,-4.474444242819028
-4.442040672150783,-4.442040672150783
-4.409637101482536,-4.409637101482536
-4.382059594530838,-4.382059594530838
-4.366891965707404,-4.366891965707404
-4.357929275948101,-4.357929275948101
-4.3648236526860265,-4.3648236526860265
-4.369649716402574,-4.369649716402574
-4.391711721963932,-4.391711721963932
-4.411705414503913,-4.411705414503913
-4.446177298193537,-4.446177298193537
-4.461344927016971,-4.461344927016971
-4.473754805145235,-4.473754805145235
-4.453761112605254,-4.453761112605254
-4.433767420065273,-4.433767420065273
-4.3930905973115175,-4.3930905973115175
-4.378612406161875,-4.378612406161875
-4.360687026643271,-4.360687026643271
-4.371718029423951,-4.371718029423951
-4.357929275948101,-4.357929275948101
-4.357239838274309,-4.357239838274309
-4.325525705279856,-4.325525705279856
-4.315184140172969,-4.315184140172969
-4.285538320199892,-4.285538320199892
-4.288296070895062,-4.288296070895062
-4.274507317419213,-4.274507317419213
-4.276575630440591,-4.276575630440591
-4.241414309077174,-4.241414309077174
-4.204184674692382,-4.204184674692382
-4.1269676552276255,-4.1269676552276255
-4.0525083864580385,-4.0525083864580385
-3.951161048410546,-3.951161048410546
-3.861534150817526,-3.861534150817526
-3.7532924360321087,-3.7532924360321087
-3.6526345356584082,-3.6526345356584082
-3.5299146297233492,-3.5299146297233492
-3.413399662852423,-3.413399662852423
-3.289300881569779,-3.289300881569779
-3.183127479805739,-3.183127479805739
-3.084537892453416,-3.084537892453416
-3.012836374379,-3.012836374379
-2.952855296759055,-2.952855296759055
-2.9176939753956392,-2.9176939753956392
-2.893563656812903,-2.893563656812903
-2.894942532160488,-2.894942532160488
-2.913557349352885,-2.913557349352885
-2.96250742419215,-2.96250742419215
-3.025935690181057,-3.025935690181057
-3.11625202544787,-3.11625202544787
-3.20863667373606,-3.20863667373606
-3.3127417624787228,-3.3127417624787228
-3.399610909376573,-3.399610909376573
-3.489237806969594,-3.489237806969594
-3.556802699001256,-3.556802699001256
-3.6291936547494648,-3.6291936547494648
-3.678833167262522,-3.678833167262522
-3.738124807208674,-3.738124807208674
-3.7739755662458827,-3.7739755662458827
-3.820167890389978,-3.820167890389978
-3.837403832234789,-3.837403832234789
-3.864981339186488,-3.864981339186488
-3.8642919015126957,-3.8642919015126957
-3.8773912173147522,-3.8773912173147522
-3.864981339186488,-3.864981339186488
-3.87394402894579,-3.87394402894579
-3.864981339186488,-3.864981339186488
-3.87945953033613,-3.87945953033613
-3.872565153598205,-3.872565153598205
-3.881527843357507,-3.881527843357507
-3.86842852755545,-3.86842852755545
-3.867739089881658,-3.867739089881658
-3.849813710363054,-3.849813710363054
-3.849813710363054,-3.849813710363054
-3.842919333625129,-3.842919333625129
-3.852571461058224,-3.852571461058224
-3.849124272689261,-3.849124272689261
-3.851192585710639,-3.851192585710639
-3.837403832234789,-3.837403832234789
-3.827062267127902,-3.827062267127902
-3.8036213862189587,-3.8036213862189587
-3.785006569026562,-3.785006569026562
-3.758118499748656,-3.758118499748656
-3.7326093058183347,-3.7326093058183347
-3.698826859802504,-3.698826859802504
-3.66711272680805,-3.66711272680805
-3.632640843118427,-3.632640843118427
-3.604373898492936,-3.604373898492936
-3.57197032782469,-3.57197032782469
-3.541635070177821,-3.541635070177821
-3.500958247424066,-3.500958247424066
-3.4561447986275557,-3.4561447986275557
-3.403058097745536,-3.403058097745536
-3.351350272211101,-3.351350272211101
-3.295505820633911,-3.295505820633911
-3.247245183468438,-3.247245183468438
-3.196226795607796,-3.196226795607796
-3.1527922221588702,-3.1527922221588702
-3.1010843966244352,-3.1010843966244352
-3.056270947827925,-3.056270947827925
-2.9976687455555653,-2.9976687455555653
-2.941824293978376,-2.941824293978376
-2.861160086144657,-2.861160086144657
-2.782564191332316,-2.782564191332316
-2.681906290958616,-2.681906290958616
-2.595037144060765,-2.595037144060765
-2.489553179970518,-2.489553179970518
-2.39785796935612,-2.39785796935612
-2.273759188073476,-2.273759188073476
-2.13793996633636,-2.13793996633636
-1.9448974176744696,-1.9448974176744696
-1.7325506141463898,-1.7325506141463898
-1.4891791152976492,-1.4891791152976492
-1.2726956857268146,-1.2726956857268146
-1.082410887760094,-1.082410887760094
-0.96106985717262,-0.96106985717262
-0.8845422753816562,-0.8845422753816562
-0.8604119567989198,-0.8604119567989198
-0.8507598293658253,-0.8507598293658253
-0.8652380205154672,-0.8652380205154672
-0.8866105884030335,-0.8866105884030335
-0.9369395385898837,-0.9369395385898837
-1.007262181316715,-1.007262181316715
-1.109298957038,-1.109298957038
-1.2202984225185873,-1.2202984225185873
-1.3375028270633065,-1.3375028270633065
-1.4367818520894218,-1.4367818520894218
-1.5181354975969328,-1.5181354975969328
-1.5691538854575753,-1.5691538854575753
-1.6001785807782363,-1.6001785807782363
-1.6084518328637458,-1.6084518328637458
-1.6063835198423686,-1.6063835198423686
-1.5891475779975568,-1.5891475779975568
-1.5698433231313678,-1.5698433231313678
-1.545023566874839,-1.545023566874839
-1.5229615613134801,-1.5229615613134801
-1.4981418050569513,-1.4981418050569513
-1.4747009241480074,-1.4747009241480074
-1.453328356260441,-1.453328356260441
-1.4236825362873649,-1.4236825362873649
-1.400241655378421,-1.400241655378421
-1.3581859572770805,-1.3581859572770805
-1.3347450763681366,-1.3347450763681366
-1.294068253614381,-1.294068253614381
-1.273385123400607,-1.273385123400607
-1.245118178775116,-1.245118178775116
-1.224435048561342,-1.224435048561342
-1.2044413560213605,-1.2044413560213605
-1.1796215997648318,-1.1796215997648318
-1.1630750955938125,-1.1630750955938125
-1.1472180290965859,-1.1472180290965859
-1.156180718855888,-1.156180718855888
-1.1747955360482845,-1.1747955360482845
-1.214093483454455,-1.214093483454455
-1.2237456108875495,-1.2237456108875495
-1.1630750955938125,-1.1630750955938125
-0.9279768488305815,-0.9279768488305815
-0.4412338511331004,-0.4412338511331004
0.3702342909206325,0.3702342909206325
1.472645131314786,1.472645131314786
2.748794265504641,2.748794265504641
3.9663411974221363,3.9663411974221363
4.878467239849569,4.878467239849569
5.269378400889898,5.269378400889898
5.06875203781629,5.06875203781629
4.351736857072125,4.351736857072125
3.32723247381652,3.32723247381652
2.2262005087699515,2.2262005087699515
1.23892575989914,1.23892575989914
0.4502090610805585,0.4502090610805585
-0.1385707123382077,-0.1385707123382077
-0.5839474496081408,-0.5839474496081408
-0.928666286504374,-0.928666286504374
-1.184447663481379,-1.184447663481379
-1.3347450763681366,-1.3347450763681366
-1.3774902121432695,-1.3774902121432695
-1.327850699630212,-1.327850699630212
-1.233397738320644,-1.233397738320644
-1.1348081509683214,-1.1348081509683214
-1.0789636993911316,-1.0789636993911316
-1.06448550824149,-1.06448550824149
-1.082410887760094,-1.082410887760094
-1.105851768669038,-1.105851768669038
-1.1141250207545474,-1.1141250207545474
-1.11481445842834,-1.11481445842834
-1.094131328214566,-1.094131328214566
-1.0775848240435468,-1.0775848240435468
-1.0555228184821879,-1.0555228184821879
-1.038286876637376,-1.038286876637376
-1.021740372466357,-1.021740372466357
-1.001057242252583,-1.001057242252583
-0.9824424250601864,-0.9824424250601864
-0.9569332311298652,-0.9569332311298652
-0.937628976263676,-0.937628976263676
-0.916945846049902,-0.916945846049902
-0.909362031638185,-0.909362031638185
-0.9010887795526754,-0.9010887795526754
-0.9059148432692227,-0.9059148432692227
-0.909362031638185,-0.909362031638185
-0.9190141590712795,-0.9190141590712795
-0.9224613474402418,-0.9224613474402418
-0.9252190981354117,-0.9252190981354117
-0.9231507851140343,-0.9231507851140343
-0.916945846049902,-0.916945846049902
-0.9024676549002603,-0.9024676549002603
-0.8845422753816562,-0.8845422753816562
-0.8597225191251274,-0.8597225191251274
-0.8307661368258438,-0.8307661368258438
-0.7921576270934657,-0.7921576270934657
-0.745275865275578,-0.745275865275578
-0.6887419760245957,-0.6887419760245957
-0.6204876463191416,-0.6204876463191416
-0.5384445631378381,-0.5384445631378381
-0.44537047717585515,-0.44537047717585515
-0.34195482610698524,-0.34195482610698524
-0.23233423597398312,-0.23233423597398312
-0.11581926910305632,-0.11581926910305632
-0.0013726152535069086,-0.0013726152535069086
0.1151423516174199,0.1151423516174199
0.22614181709800696,0.22614181709800696
0.33714128257859405,0.33714128257859405
0.43504143225712427,0.43504143225712427
0.5212211414811826,0.5212211414811826
0.5805127814273346,0.5805127814273346
0.6232579172024676,0.6232579172024676
0.6480776734589964,0.6480776734589964
0.6804812441272423,0.6804812441272423
0.7128848147954882,0.7128848147954882
0.7542510752230361,0.7542510752230361
0.7742447677630176,0.7742447677630176
0.7776919561319801,0.7776919561319801
0.7390834463996019,0.7390834463996019
0.6818601194748272,0.6818601194748272
0.5970592855983539,0.5970592855983539
0.5095007010267106,0.5095007010267106
0.39850123554612354,0.39850123554612354
0.2730235789158947,0.2730235789158947
0.1130740385960425,0.1130740385960425
-0.059974817525866544,-0.059974817525866544
-0.24750186479741737,-0.24750186479741737
-0.42330847161449625,-0.42330847161449625
-0.5880840756508957,-0.5880840756508957
-0.7287293611045588,-0.7287293611045588
-0.8548964554085802,-0.8548964554085802
-0.9638276078677898,-0.9638276078677898
-1.0651749459152824,-1.0651749459152824
-1.161006782572435,-1.161006782572435
-1.2589069322509654,-1.2589069322509654
-1.3581859572770805,-1.3581859572770805
-1.4629804836935356,-1.4629804836935356
-1.5705327608051602,-1.5705327608051602
-1.6849794146547097,-1.6849794146547097
-1.800804943851844,-1.800804943851844
-1.9207670990917332,-1.9207670990917332
-2.032456002246113,-2.032456002246113
-2.1358716533149824,-2.1358716533149824
-2.2213619248652483,-2.2213619248652483
-2.3027155703727593,-2.3027155703727593
-2.384758653554063,-2.384758653554063
-2.485416553927763,-2.485416553927763
-2.594347706386973,-2.594347706386973
-2.715688736974447,-2.715688736974447
-2.820483263390902,-2.820483263390902
-2.915625662374262,-2.915625662374262
-2.979053928363169,-2.979053928363169
-3.039724443656906,-3.039724443656906
-3.082469579432039,-3.082469579432039
-3.136935155661644,-3.136935155661644
-3.176233103067814,-3.176233103067814
-3.2327669923187963,-3.2327669923187963
-3.276201565767722,-3.276201565767722
-3.338250956409044,-3.338250956409044
-3.381685529857969,-3.381685529857969
-3.436151106087574,-3.436151106087574
-3.458213111648933,-3.458213111648933
-3.481653992557877,-3.481653992557877
-3.4754490534937448,-3.4754490534937448
-3.477517366515122,-3.477517366515122
-3.465107488386858,-3.465107488386858
-3.4678652390820273,-3.4678652390820273
-3.460970862344103,-3.460970862344103
-3.46579692606065,-3.46579692606065
-3.458213111648933,-3.458213111648933
-3.460970862344103,-3.460970862344103
-3.459591986996518,-3.459591986996518
-3.4754490534937448,-3.4754490534937448
-3.491306119990971,-3.491306119990971
-3.52164137763784,-3.52164137763784
-3.544392820872991,-3.544392820872991
-3.562318200391595,-3.562318200391595
-3.554044948306086,-3.554044948306086
-3.534740693439897,-3.534740693439897
-3.496821621381311,-3.496821621381311
-3.453387047932386,-3.453387047932386
-3.3851327182269313,-3.3851327182269313
-3.298263571329081,-3.298263571329081
-3.177611978415399,-3.177611978415399
-3.044550507373453,-3.044550507373453
-2.9073524102887522,-2.9073524102887522
-2.8128994489791843,-2.8128994489791843
-2.768775437856467,-2.768775437856467
-2.7949740694605802,-2.7949740694605802
-2.85633402242811,-2.85633402242811
-2.952855296759055,-2.952855296759055
-3.0390350059831133,-3.0390350059831133
-3.133487967292681,-3.133487967292681
-3.210015549083645,-3.210015549083645
-3.310673449457345,-3.310673449457345
-3.407884161462083,-3.407884161462083
-3.5402561948302362,-3.5402561948302362
-3.6602183500701257,-3.6602183500701257
-3.800863635523789,-3.800863635523789
-3.903589848918866,-3.903589848918866
-4.010452688356699,-4.010452688356699
-4.070433765976643,-4.070433765976643
-4.134551469639343,-4.134551469639343
-4.154545162179324,-4.154545162179324
-4.188327608195155,-4.188327608195155
-4.193843109585495,-4.193843109585495
-4.2207311788634,-4.2207311788634
-4.22624668025374,-4.22624668025374
-4.251755874184061,-4.251755874184061
-4.262786876964741,-4.262786876964741
-4.289674946242648,-4.289674946242648
-4.3000165113495346,-4.3000165113495346
-4.315873577846761,-4.315873577846761
-4.3213890792371,-4.3213890792371
-4.326215142953648,-4.326215142953648
-4.32690458062744,-4.32690458062744
-4.327594018301233,-4.327594018301233
-4.328972893648817,-4.328972893648817
-4.336556708060535,-4.336556708060535
-4.33793558340812,-4.33793558340812
-4.349656023862591,-4.349656023862591
-4.353103212231554,-4.353103212231554
-4.368960278728781,-4.368960278728781
-4.377922968488083,-4.377922968488083
-4.402742724744612,-4.402742724744612
-4.4241152926321785,-4.4241152926321785
-4.454450550279047,-4.454450550279047
-4.448935048888707,-4.448935048888707
-4.379991281509461,-4.379991281509461
-4.153855724505531,-4.153855724505531
-3.705031798866636,-3.705031798866636
-2.952165859085263,-2.952165859085263
-1.9242142874606956,-1.9242142874606956
-0.7011518541528602,-0.7011518541528602
0.49502250987706886,0.49502250987706886
1.4560986271437666,1.4560986271437666
1.9393944364722855,1.9393944364722855
1.8801027965261334,1.8801027965261334
1.2851180840432352,1.2851180840432352
0.3612716011613304,0.3612716011613304
-0.715630045302502,-0.715630045302502
-1.709109733237446,-1.709109733237446
-2.556428634328387,-2.556428634328387
-3.186574668174701,-3.186574668174701
-3.683659230979069,-3.683659230979069
-4.038030195308397,-4.038030195308397
-4.314494702499176,-4.314494702499176
-4.458587176321801,-4.458587176321801
-4.510295001856236,-4.510295001856236
-4.43859348378182,-4.43859348378182
-4.32414682993227,-4.32414682993227
-4.173159979371721,-4.173159979371721
-4.0676760152814735,-4.0676760152814735
-3.983564619078792,-3.983564619078792
-3.9470244223677917,-3.9470244223677917
-3.911173663330583,-3.911173663330583
-3.8746334666195827,-3.8746334666195827
-3.8256833917803172,-3.8256833917803172
-3.755360749053486,-3.755360749053486
-3.6809014802838997,-3.6809014802838997
-3.591274582690879,-3.591274582690879
-3.505094873466821,-3.505094873466821
-3.41271022517863,-3.41271022517863
-3.319636139216647,-3.319636139216647
-3.224493740233287,-3.224493740233287
-3.127283028228549,-3.127283028228549
-3.030761753897604,-3.030761753897604
-2.932861604219074,-2.932861604219074
-2.843234706626053,-2.843234706626053
-2.757744435075787,-2.757744435075787
-2.685353479327578,-2.685353479327578
-2.615030836600747,-2.615030836600747
-2.556428634328387,-2.556428634328387
-2.4964475567084423,-2.4964475567084423
-2.4433608558264224,-2.4433608558264224
-2.3854480912278553,-2.3854480912278553
-2.334429703367213,-2.334429703367213
-2.275138063421061,-2.275138063421061
-2.2213619248652483,-2.2213619248652483
-2.155175908181172,-2.155175908181172
-2.09312651753985,-2.09312651753985
-2.0159094980750933,-2.0159094980750933
-1.945586855348262,-1.945586855348262
-1.861475459145581,-1.861475459145581
-1.7883950657235796,-1.7883950657235796
-1.7022153564995213,-1.7022153564995213
-1.6270666500561426,-1.6270666500561426
-1.5395080654844993,-1.5395080654844993
-1.4609121706721582,-1.4609121706721582
-1.365080334015005,-1.365080334015005
-1.2754534364219845,-1.2754534364219845
-1.1699694723317373,-1.1699694723317373
-1.070690447305622,-1.070690447305622
-0.959690981825035,-0.959690981825035
-0.8617908321465048,-0.8617908321465048
-0.7618223694465972,-0.7618223694465972
-0.6756426602225389,-0.6756426602225389
-0.5853263249557258,-0.5853263249557258
-0.5039726794482148,-0.5039726794482148
-0.4191718455717414,-0.4191718455717414
-0.3433337014545702,-0.3433337014545702
-0.2716321833801537,-0.2716321833801537
-0.2199243578457187,-0.2199243578457187
-0.18407359880851046,-0.18407359880851046
-0.1751109090492084,-0.1751109090492084
-0.18889966252505774,-0.18889966252505774
-0.22957648527881325,-0.22957648527881325
-0.2881786875511729,-0.2881786875511729
-0.36539570701592905,-0.36539570701592905
-0.4522648539137798,-0.4522648539137798
-0.5453389398757628,-0.5453389398757628
-0.6322080867736135,-0.6322080867736135
-0.712872294607332,-0.712872294607332
-0.7783688736176163,-0.7783688736176163
-0.8335238875210137,-0.8335238875210137
-0.8714429595795993,-0.8714429595795993
-0.9024676549002603,-0.9024676549002603
-0.9224613474402418,-0.9224613474402418
-0.940386726958846,-0.940386726958846
-0.949349416718148,-0.949349416718148
-0.9590015441512425,-0.9590015441512425
-0.9624487325202049,-0.9624487325202049
-0.968653671584337,-0.968653671584337
-0.9693431092581295,-0.9693431092581295
-0.9727902976270919,-0.9727902976270919
-0.9693431092581295,-0.9693431092581295
-0.9672747962367522,-0.9672747962367522
-0.95831210647745,-0.95831210647745
-0.950728292065733,-0.950728292065733
-0.937628976263676,-0.937628976263676
-0.927287411156789,-0.927287411156789
-0.9141880953547322,-0.9141880953547322
-0.9059148432692227,-0.9059148432692227
-0.8941944028147507,-0.8941944028147507
-0.885921150729241,-0.885921150729241
-0.8735112726009767,-0.8735112726009767
-0.8631697074940897,-0.8631697074940897
-0.8466232033230705,-0.8466232033230705
-0.8314555744996363,-0.8314555744996363
-0.8142196326548246,-0.8142196326548246
-0.8011203168527677,-0.8011203168527677
-0.786642125703126,-0.786642125703126
-0.7776794359438239,-0.7776794359438239
-0.7707850592058992,-0.7707850592058992
-0.7694061838583143,-0.7694061838583143
-0.7666484331631445,-0.7666484331631445
-0.764580120141767,-0.764580120141767
-0.7583751810776348,-0.7583751810776348
-0.7487230536445403,-0.7487230536445403
-0.734934300168691,-0.734934300168691
-0.7225244220404266,-0.7225244220404266
-0.7121828569335396,-0.7121828569335396
-0.7045990425218225,-0.7045990425218225
-0.694946915088728,-0.694946915088728
-0.6839159123080485,-0.6839159123080485
-0.6721954718535765,-0.6721954718535765
-0.6604750313991047,-0.6604750313991047
-0.6494440286184252,-0.6494440286184252
-0.6411707765329155,-0.6411707765329155
-0.6356552751425758,-0.6356552751425758
-0.632897524447406,-0.632897524447406
-0.6287608984046512,-0.6287608984046512
-0.6280714607308587,-0.6280714607308587
-0.6287608984046512,-0.6287608984046512
-0.6335869621211985,-0.6335869621211985
-0.631518649099821,-0.631518649099821
-0.6294503360784437,-0.6294503360784437
-0.6156615826025943,-0.6156615826025943
-0.601872829126745,-0.601872829126745
-0.5770530728702162,-0.5770530728702162
-0.5549910673088573,-0.5549910673088573
-0.5143142445551018,-0.5143142445551018
-0.45778035530411954,-0.45778035530411954
-0.36332739399455166,-0.36332739399455166
-0.24198636340707763,-0.24198636340707763
-0.09375726354169739,-0.09375726354169739
0.04826689725955066,0.04826689725955066
0.16891849017323227,0.16891849017323227
0.24682494731178095,0.24682494731178095
0.2888806454131214,0.2888806454131214
0.29715389749863097,0.29715389749863097
0.286812332391744,0.286812332391744
0.25647707474487547,0.25647707474487547
0.2068375622318179,0.2068375622318179
0.12410504137672196,0.12410504137672196
0.00827951217958762,0.00827951217958762
-0.13788127466441524,-0.13788127466441524
-0.2964519396366825,-0.2964519396366825
-0.45709091763032705,-0.45709091763032705
-0.601872829126745,-0.601872829126745
-0.7225244220404266,-0.7225244220404266
-0.8121513196334472,-0.8121513196334472
-0.8728218349271842,-0.8728218349271842
-0.9072937186168075,-0.9072937186168075
-0.9245296604616192,-0.9245296604616192
-0.9279768488305815,-0.9279768488305815
-0.9279768488305815,-0.9279768488305815
-0.9224613474402418,-0.9224613474402418
-0.9162564083761097,-0.9162564083761097
-0.9024676549002603,-0.9024676549002603
-0.8845422753816562,-0.8845422753816562
-0.859033081451335,-0.859033081451335
-0.8328344498472212,-0.8328344498472212
-0.8135301949810322,-0.8135301949810322
-0.7976731284838054,-0.7976731284838054
-0.8018097545265602,-0.8018097545265602
-0.7962942531362205,-0.7962942531362205
-0.8142196326548246,-0.8142196326548246
-0.8087041312644849,-0.8087041312644849
-0.8169773833499945,-0.8169773833499945
-0.8066358182431075,-0.8066358182431075
-0.8018097545265602,-0.8018097545265602
-0.7921576270934657,-0.7921576270934657
-0.7831949373341637,-0.7831949373341637
-0.7804371866389938,-0.7804371866389938
-0.7831949373341637,-0.7831949373341637
-0.805946380569315,-0.805946380569315
-0.8424865772803157,-0.8424865772803157
-0.897641591183713,-0.897641591183713
-0.9314240371995439,-0.9314240371995439
-0.896262715836128,-0.896262715836128
-0.6956363527625204,-0.6956363527625204
-0.2406074880594927,-0.2406074880594927
0.5391465209997867,0.5391465209997867
1.625010857222921,1.625010857222921
2.898402240717606,2.898402240717606
4.137321740522668,4.137321740522668
5.085298541987309,5.085298541987309
5.522402027171733,5.522402027171733
5.361763049178088,5.361763049178088
4.670946500038037,4.670946500038037
3.647820992130017,3.647820992130017
2.5295530852386365,2.5295530852386365
1.514011391742334,1.514011391742334
0.6956488729506766,0.6956488729506766
0.07929159258021165,0.07929159258021165
-0.38469996188211814,-0.38469996188211814
-0.7390709262114458,-0.7390709262114458
-1.001057242252583,-1.001057242252583
-1.1554912811820954,-1.1554912811820954
-1.202373042999983,-1.202373042999983
-1.153422968160718,-1.153422968160718
-1.05897000685115,-1.05897000685115
-0.96106985717262,-0.96106985717262
-0.9017782172264678,-0.9017782172264678
-0.8810950870126938,-0.8810950870126938
-0.8893683390982035,-0.8893683390982035
-0.9086725939643925,-0.9086725939643925
-0.9114303446595624,-0.9114303446595624
-0.9141880953547322,-0.9141880953547322
-0.8921260897933733,-0.8921260897933733
-0.8790267739913165,-0.8790267739913165
-0.8528281423872027,-0.8528281423872027
-0.8362816382161835,-0.8362816382161835
-0.8211140093927493,-0.8211140093927493
-0.8121513196334472,-0.8121513196334472
-0.8100830066120698,-0.8100830066120698
-0.8100830066120698,-0.8100830066120698
-0.8128407573072397,-0.8128407573072397
-0.8100830066120698,-0.8100830066120698
-0.8100830066120698,-0.8100830066120698
-0.8066358182431075,-0.8066358182431075
-0.8121513196334472,-0.8121513196334472
-0.8183562586975794,-0.8183562586975794
-0.8314555744996363,-0.8314555744996363
-0.8424865772803157,-0.8424865772803157
-0.8528281423872027,-0.8528281423872027
-0.8548964554085802,-0.8548964554085802
-0.8521387047134102,-0.8521387047134102
-0.8397288265851459,-0.8397288265851459
-0.8197351340451643,-0.8197351340451643
-0.7914681894196732,-0.7914681894196732
-0.7576857434038424,-0.7576857434038424
-0.7163194829762944,-0.7163194829762944
-0.6708165965059916,-0.6708165965059916
-0.621177083992934,-0.621177083992934
-0.5674009454371217,-0.5674009454371217
-0.5094881808385545,-0.5094881808385545
-0.4495071032186099,-0.4495071032186099
-0.3867682749034955,-0.3867682749034955
-0.3226505712407962,-0.3226505712407962
-0.2509490531663797,-0.2509490531663797
-0.1737320337016235,-0.1737320337016235
-0.08686288680377273,-0.08686288680377273
0.003453448463040355,0.003453448463040355
0.0985958474464007,0.0985958474464007
0.18753330736562884,0.18753330736562884
0.2702658282207248,0.2702658282207248
0.3398990332737639,0.3398990332737639
0.4060850499578407,0.4060850499578407
0.4626189392088229,0.4626189392088229
0.5170845154384278,0.5170845154384278
0.5632768395825231,0.5632768395825231
0.6094691637266183,0.6094691637266183
0.6404938590472792,0.6404938590472792
0.6611769892610532,0.6611769892610532
0.6577298008920909,0.6577298008920909
0.6363572330045244,0.6363572330045244
0.5867177204914669,0.5867177204914669
0.5212211414811826,0.5212211414811826
0.4384886206260866,0.4384886206260866
0.35437722442340575,0.35437722442340575
0.2681975151993474,0.2681975151993474
0.18960162038700626,0.18960162038700626
0.11445291394362743,0.11445291394362743
0.049645772607135596,0.049645772607135596
-0.006198678970054172,-0.006198678970054172
-0.048254377071394614,-0.048254377071394614
-0.07858963471826313,-0.07858963471826313
-0.10134107795341452,-0.10134107795341452
-0.12202420816718851,-0.12202420816718851
-0.14132846303337757,-0.14132846303337757
-0.162701030920944,-0.162701030920944
-0.183384161134718,-0.183384161134718
-0.19855178995815226,-0.19855178995815226
-0.2082039173912468,-0.2082039173912468
-0.214408856455379,-0.214408856455379
-0.22130323319330364,-0.22130323319330364
-0.22888704760502077,-0.22888704760502077
-0.23509198666915299,-0.23509198666915299
-0.2385391750381153,-0.2385391750381153
-0.23922861271190776,-0.23922861271190776
-0.2385391750381153,-0.2385391750381153
-0.23647086201673792,-0.23647086201673792
-0.23784973736432283,-0.23784973736432283
-0.23922861271190776,-0.23922861271190776
-0.2406074880594927,-0.2406074880594927
-0.23509198666915299,-0.23509198666915299
-0.22681873458364338,-0.22681873458364338
-0.21165110576020912,-0.21165110576020912
-0.19717291461056732,-0.19717291461056732
-0.1792475350919632,-0.1792475350919632
-0.16545878161611388,-0.16545878161611388
-0.15167002814026456,-0.15167002814026456
-0.14339677605475495,-0.14339677605475495
-0.13581296164303783,-0.13581296164303783
-0.13374464862166044,-0.13374464862166044
-0.13167633560028302,-0.13167633560028302
-0.1323657732740755,-0.1323657732740755
-0.13167633560028302,-0.13167633560028302
-0.13305521094786796,-0.13305521094786796
-0.13167633560028302,-0.13167633560028302
-0.1323657732740755,-0.1323657732740755
-0.1323657732740755,-0.1323657732740755
-0.13305521094786796,-0.13305521094786796
-0.1323657732740755,-0.1323657732740755
-0.1323657732740755,-0.1323657732740755
-0.1323657732740755,-0.1323657732740755
-0.13374464862166044,-0.13374464862166044
-0.1323657732740755,-0.1323657732740755
-0.1302974602526981,-0.1302974602526981
-0.1282291472313207,-0.1282291472313207
-0.12547139653615083,-0.12547139653615083
-0.12133477049339604,-0.12133477049339604
-0.1178875821244337,-0.1178875821244337
-0.11306151840788645,-0.11306151840788645
-0.10478826632237685,-0.10478826632237685
-0.08479457378239533,-0.08479457378239533
-0.05445931613552681,-0.05445931613552681
-0.01033530501280897,-0.01033530501280897
0.047577459585758194,0.047577459585758194
0.1254839167243069,0.1254839167243069
0.22062631570766722,0.22062631570766722
0.3343835318834242,0.3343835318834242
0.45848231316606813,0.45848231316606813
0.583959969796297,0.583959969796297
0.6922016845817142,0.6922016845817142
0.7742447677630176,0.7742447677630176
0.8204370919071129,0.8204370919071129
0.8369835960781321,0.8369835960781321
0.8238842802760753,0.8238842802760753
0.7894123965864519,0.7894123965864519
0.7259841305975451,0.7259841305975451
0.6349783576569396,0.6349783576569396
0.5108795763742956,0.5108795763742956
0.36609766487787765,0.36609766487787765
0.2047692492104405,0.2047692492104405
0.047577459585758194,0.047577459585758194
-0.09927276493203711,-0.09927276493203711
-0.22061379551951119,-0.22061379551951119
-0.32058225821941877,-0.32058225821941877
-0.3909049009462503,-0.3909049009462503
-0.43916553811172293,-0.43916553811172293
-0.4626064190206668,-0.4626064190206668
-0.4708796711061764,-0.4708796711061764
-0.4667430450634216,-0.4667430450634216
-0.4591592306517045,-0.4591592306517045
-0.4501965408924024,-0.4501965408924024
-0.4426127264806853,-0.4426127264806853
-0.43365003672138325,-0.43365003672138325
-0.42675565998345855,-0.42675565998345855
-0.42330847161449625,-0.42330847161449625
-0.4198612832455339,-0.4198612832455339
-0.4212401585931188,-0.4212401585931188
-0.41503521952898664,-0.41503521952898664
-0.418482407897949,-0.418482407897949
-0.4108985934862318,-0.4108985934862318
-0.41434578185519416,-0.41434578185519416
-0.41710353255036403,-0.41710353255036403
-0.427445097657251,-0.427445097657251
-0.44330216415447776,-0.44330216415447776
-0.4522648539137798,-0.4522648539137798
-0.46398529436825175,-0.46398529436825175
-0.468811358084799,-0.468811358084799
-0.4832895492344408,-0.4832895492344408
-0.5053515547957997,-0.5053515547957997
-0.5508544412661025,-0.5508544412661025
-0.6025622668005375,-0.6025622668005375
-0.6397919011853307,-0.6397919011853307
-0.5880840756508957,-0.5880840756508957
-0.36608514468972153,-0.36608514468972153
0.12617335439809935,0.12617335439809935
0.9348837457566623,0.9348837457566623
2.0400523368459855,2.0400523368459855
3.2982760915172364,3.2982760915172364
4.494450455547166,4.494450455547166
5.367967988242221,5.367967988242221
5.73405939302602,5.73405939302602
5.51343933741243,5.51343933741243
4.799871345037228,4.799871345037228
3.7788141501505854,3.7788141501505854
2.6915709385798663,2.6915709385798663
1.707743378078017,1.707743378078017
0.9204055546070206,0.9204055546070206
0.31783702771240496,0.31783702771240496
-0.13581296164303783,-0.13581296164303783
-0.4888050506247805,-0.4888050506247805
-0.7445864276017855,-0.7445864276017855
-0.8983310288575055,-0.8983310288575055
-0.9355606632422987,-0.9355606632422987
-0.887300026076826,-0.887300026076826
-0.7900893140720883,-0.7900893140720883
-0.7059779178694074,-0.7059779178694074
-0.6480651532708402,-0.6480651532708402
-0.6397919011853307,-0.6397919011853307
-0.6480651532708402,-0.6480651532708402
-0.663922219768067,-0.663922219768067
-0.6687482834846142,-0.6687482834846142
-0.6563384053563498,-0.6563384053563498
-0.6453074025756703,-0.6453074025756703
-0.6232453970143115,-0.6232453970143115
-0.6101460812122546,-0.6101460812122546
-0.5949784523888203,-0.5949784523888203
-0.590152388672273,-0.590152388672273
-0.5894629509984806,-0.5894629509984806
-0.5922207016936505,-0.5922207016936505
-0.5977362030839902,-0.5977362030839902
-0.6073883305170847,-0.6073883305170847
-0.621177083992934,-0.621177083992934
-0.6370341504901608,-0.6370341504901608
-0.6604750313991047,-0.6604750313991047
-0.6873631006770108,-0.6873631006770108
-0.7183877959976718,-0.7183877959976718
-0.7432075522542005,-0.7432075522542005
-0.765958995489352,-0.765958995489352
-0.7845738126817485,-0.7845738126817485
-0.8011203168527677,-0.8011203168527677
-0.8080146935906924,-0.8080146935906924
-0.8093935689382773,-0.8093935689382773
-0.7997414415051828,-0.7997414415051828
-0.7811266243127862,-0.7811266243127862
-0.7494124913183328,-0.7494124913183328
-0.7121828569335396,-0.7121828569335396
-0.6694377211584067,-0.6694377211584067
-0.6232453970143115,-0.6232453970143115
-0.5653326324157443,-0.5653326324157443
-0.5005254910792525,-0.5005254910792525
-0.42675565998345855,-0.42675565998345855
-0.347470327497325,-0.347470327497325
-0.25991174292568175,-0.25991174292568175
-0.173042596027831,-0.173042596027831
-0.08824176215135766,-0.08824176215135766
-0.008956429665224037,-0.008956429665224037
0.07101834049470206,0.07101834049470206
0.14478817159049595,0.14478817159049595
0.21786856501249738,0.21786856501249738
0.28957008308691384,0.28957008308691384
0.36609766487787765,0.36609766487787765
0.440556933647464,0.440556933647464
0.5122584517218806,0.5122584517218806
0.5763761553845799,0.5763761553845799
0.6363572330045244,0.6363572330045244
0.6839284324962046,0.6839284324962046
0.717021440838243,0.717021440838243
0.7308101943140923,0.7308101943140923
0.7225369422285827,0.7225369422285827
0.6866861831913744,0.6866861831913744
0.6232579172024676,0.6232579172024676
0.5405253963473716,0.5405253963473716
0.4488301857329736,0.4488301857329736
0.3571349751185756,0.3571349751185756
0.2723341412421022,0.2723341412421022
0.1964959971249309,0.1964959971249309
0.13306773113602402,0.13306773113602402
0.07860215490641918,0.07860215490641918
0.034478143783701336,0.034478143783701336
-0.0034409282748843074,-0.0034409282748843074
-0.03377618592175282,-0.03377618592175282
-0.06135369287345147,-0.06135369287345147
-0.08272626076101793,-0.08272626076101793
-0.09582557656307479,-0.09582557656307479
-0.0896206374989426,-0.0896206374989426
-0.05790650450448914,-0.05790650450448914
0.003453448463040355,0.003453448463040355
0.08963315768709863,0.08963315768709863
0.18546499434425145,0.18546499434425145
0.2709552658945173,0.2709552658945173
0.32611027979791457,0.32611027979791457
0.33507296955721666,0.33507296955721666
0.29715389749863097,0.29715389749863097
0.22062631570766722,0.22062631570766722
0.12686279207189183,0.12686279207189183
0.03585701913128627,0.03585701913128627
-0.03446562359554529,-0.03446562359554529
-0.07996851006584807,-0.07996851006584807
-0.10203051562720698,-0.10203051562720698
-0.11444039375547138,-0.11444039375547138
-0.12409252118856591,-0.12409252118856591
-0.1385707123382077,-0.1385707123382077
-0.1530489034878495,-0.1530489034878495
-0.17028484533266114,-0.17028484533266114
-0.18614191182988787,-0.18614191182988787
-0.20889335506503925,-0.20889335506503925
-0.2406074880594927,-0.2406074880594927
-0.29300475126772013,-0.29300475126772013
-0.3647062693421366,-0.3647062693421366
-0.4591592306517045,-0.4591592306517045
-0.559127693351612,-0.559127693351612
-0.663922219768067,-0.663922219768067
-0.7597540564252198,-0.7597540564252198
-0.8542070177347877,-0.8542070177347877
-0.9417656023064309,-0.9417656023064309
-1.042423502680131,-1.042423502680131
-1.1437708407276235,-1.1437708407276235
-1.2589069322509654,-1.2589069322509654
-1.3630120209936278,-1.3630120209936278
-1.4712537357790452,-1.4712537357790452
-1.5643278217410281,-1.5643278217410281
-1.667743472809898,-1.667743472809898
-1.7621964341194658,-1.7621964341194658
-1.8752642126214303,-1.8752642126214303
-1.9786798636903002,-1.9786798636903002
-2.0958842682350194,-2.0958842682350194
-2.195852730934927,-2.195852730934927
-2.3013366950251744,-2.3013366950251744
-2.3854480912278553,-2.3854480912278553
-2.469559487430536,-2.469559487430536
-2.531608878071858,-2.531608878071858
-2.5984843324297273,-2.5984843324297273
-2.657086534702087,-2.657086534702087
-2.7301669281240883,-2.7301669281240883
-2.798421257829543,-2.798421257829543
-2.877017152641884,-2.877017152641884
-2.9487186707163002,-2.9487186707163002
-3.024556814833472,-3.024556814833472
-3.090053393843756,-3.090053393843756
-3.15830772354921,-3.15830772354921
-3.215531050473985,-3.215531050473985
-3.267928313682212,-3.267928313682212
-3.301021322024251,-3.301021322024251
-3.328598828975949,-3.328598828975949
-3.350660834537308,-3.350660834537308
-3.3837538428793468,-3.3837538428793468
-3.4264989786544793,-3.4264989786544793
-3.486480056274424,-3.486480056274424
-3.5478400092419538,-3.5478400092419538
-3.607131649188106,-3.607131649188106
-3.646429596594276,-3.646429596594276
-3.676764854241145,-3.676764854241145
-3.6926219207383713,-3.6926219207383713
-3.7119261756045607,-3.7119261756045607
-3.72019942769007,-3.72019942769007
-3.7326093058183347,-3.7326093058183347
-3.72847267977558,-3.72847267977558
-3.72847267977558,-3.72847267977558
-3.71468392629973,-3.71468392629973
-3.725025491406617,-3.725025491406617
-3.740193120230052,-3.740193120230052
-3.789143195069317,-3.789143195069317
-3.827751704801695,-3.827751704801695
-3.8773912173147522,-3.8773912173147522
-3.890490533116809,-3.890490533116809
-3.906347599614036,-3.906347599614036
-3.8863539070740547,-3.8863539070740547
-3.883596156378885,-3.883596156378885
-3.854639774079601,-3.854639774079601
-3.849813710363054,-3.849813710363054
-3.822236203411355,-3.822236203411355
-3.82361507875894,-3.82361507875894
-3.810515762956883,-3.810515762956883
-3.828441142475487,-3.828441142475487
-3.830509455496865,-3.830509455496865
-3.849813710363054,-3.849813710363054
-3.847745397341676,-3.847745397341676
-3.858776400122356,-3.858776400122356
-3.8567080871009782,-3.8567080871009782
-3.870496840576828,-3.870496840576828
-3.87118627825062,-3.87118627825062
-3.87670177964096,-3.87670177964096
-3.863602463838903,-3.863602463838903
-3.854639774079601,-3.854639774079601
-3.839472145256167,-3.839472145256167
-3.839472145256167,-3.839472145256167
-3.8436087712989218,-3.8436087712989218
-3.861534150817526,-3.861534150817526
-3.87670177964096,-3.87670177964096
-3.897384909854734,-3.897384909854734
-3.909794787982998,-3.909794787982998
-3.923583541458848,-3.923583541458848
-3.92703072982781,-3.92703072982781
-3.934614544239527,-3.934614544239527
-3.937372294934697,-3.937372294934697
-3.953229361431924,-3.953229361431924
-3.964949801886396,-3.964949801886396
-3.989080120469132,-3.989080120469132
-3.9987322479022267,-3.9987322479022267
-4.013210439051869,-4.013210439051869
-4.004937186966359,-4.004937186966359
-4.007694937661529,-4.007694937661529
-3.992527308838094,-3.992527308838094
-3.994595621859472,-3.994595621859472
-3.97460192931949,-3.97460192931949
-3.969775865602943,-3.969775865602943
-3.939440607956074,-3.939440607956074
-3.92978848052298,-3.92978848052298
-3.8953165968333567,-3.8953165968333567
-3.887732782421639,-3.887732782421639
-3.858776400122356,-3.858776400122356
-3.856018649427186,-3.856018649427186
-3.827751704801695,-3.827751704801695
-3.822236203411355,-3.822236203411355
-3.796037571807241,-3.796037571807241
-3.792590383438279,-3.792590383438279
-3.77328612857209,-3.77328612857209
-3.777422754614845,-3.777422754614845
-3.77052837787692,-3.77052837787692
-3.779491067636222,-3.779491067636222
-3.77328612857209,-3.77328612857209
-3.776733316941052,-3.776733316941052
-3.766391751834165,-3.766391751834165
-3.765702314160373,-3.765702314160373
-3.758807937422448,-3.758807937422448
-3.764323438812788,-3.764323438812788
-3.762944563465203,-3.762944563465203
-3.762944563465203,-3.762944563465203
-3.745708621620391,-3.745708621620391
-3.7222677407114477,-3.7222677407114477
-3.682969793305277,-3.682969793305277
-3.646429596594276,-3.646429596594276
-3.602995023145351,-3.602995023145351
-3.557492136675048,-3.557492136675048
-3.484411743253047,-3.484411743253047
-3.382374967531762,-3.382374967531762
-3.238282493709136,-3.238282493709136
-3.079711828736869,-3.079711828736869
-2.919072850743224,-2.919072850743224
-2.797042382481958,-2.797042382481958
-2.7108626732578993,-2.7108626732578993
-2.671564725851729,-2.671564725851729
-2.640540030531068,-2.640540030531068
-2.625372401707634,-2.625372401707634
-2.5971054570821424,-2.5971054570821424
-2.5895216426704253,-2.5895216426704253
-2.587453329649048,-2.587453329649048
-2.6295090277503883,-2.6295090277503883
-2.683285166306201,-2.683285166306201
-2.774980376920599,-2.774980376920599
-2.8556445847543173,-2.8556445847543173
-2.952855296759055,-2.952855296759055
-3.016283562747962,-3.016283562747962
-3.078332953389284,-3.078332953389284
-3.095568895234096,-3.095568895234096
-3.1010843966244352,-3.1010843966244352
-3.064544199913435,-3.064544199913435
-3.025246252507264,-3.025246252507264
-2.96250742419215,-2.96250742419215
-2.910110160983922,-2.910110160983922
-2.8425452689522603,-2.8425452689522603
-2.7832536290061083,-2.7832536290061083
-2.712930986279277,-2.712930986279277
-2.64398721890003,-2.64398721890003
-2.569527950130444,-2.569527950130444
-2.49300036833948,-2.49300036833948
-2.4178516618961012,-2.4178516618961012
-2.338566329409968,-2.338566329409968
-2.257212683902457,-2.257212683902457
-2.176548476068738,-2.176548476068738
-2.0883004538233023,-2.0883004538233023
-2.009015121337169,-2.009015121337169
-1.9242142874606956,-1.9242142874606956
-1.852512769386279,-1.852512769386279
-1.7856373150284097,-1.7856373150284097
-1.7442710546008617,-1.7442710546008617
-1.7187618606705406,-1.7187618606705406
-1.7111780462588233,-1.7111780462588233
-1.6711906611788603,-1.6711906611788603
-1.5484707552438013,-1.5484707552438013
-1.243739303427531,-1.243739303427531
-0.6749532225487465,-0.6749532225487465
0.2213157533814597,0.2213157533814597
1.4009436132403696,1.4009436132403696
2.7350055120287915,2.7350055120287915
3.9815088262455705,3.9815088262455705
4.895703181694381,4.895703181694381
5.257657960435425,5.257657960435425
5.017733649955647,5.017733649955647
4.255905020414972,4.255905020414972
3.210028069271801,3.210028069271801
2.1062383535300624,2.1062383535300624
1.1492988623061193,1.1492988623061193
0.3978117978723311,0.3978117978723311
-0.1468439644237173,-0.1468439644237173
-0.5653326324157443,-0.5653326324157443
-0.8845422753816562,-0.8845422753816562
-1.129982087251774,-1.129982087251774
-1.264422433641305,-1.264422433641305
-1.2975154419833435,-1.2975154419833435
-1.2306399876254743,-1.2306399876254743
-1.1306715249255666,-1.1306715249255666
-1.029324186878074,-1.029324186878074
-0.9796846743650165,-0.9796846743650165
-0.9617592948464124,-0.9617592948464124
-0.9734797353008843,-0.9734797353008843
-0.9824424250601864,-0.9824424250601864
-0.9762374859960542,-0.9762374859960542
-0.9652064832153747,-0.9652064832153747
-0.9355606632422987,-0.9355606632422987
-0.9190141590712795,-0.9190141590712795
-0.8928155274671657,-0.8928155274671657
-0.8804056493389014,-0.8804056493389014
-0.8638591451678822,-0.8638591451678822
-0.8514492670396178,-0.8514492670396178
-0.838349951237561,-0.838349951237561
-0.826629510783089,-0.826629510783089
-0.8121513196334472,-0.8121513196334472
-0.794225940114843,-0.794225940114843
-0.7756111229224465,-0.7756111229224465
-0.7590646187514273,-0.7590646187514273
-0.7487230536445403,-0.7487230536445403
-0.743896989927993,-0.743896989927993
-0.745275865275578,-0.745275865275578
-0.7473441782969554,-0.7473441782969554
-0.7480336159707478,-0.7480336159707478
-0.743896989927993,-0.743896989927993
-0.7370026131900684,-0.7370026131900684
-0.7252821727355965,-0.7252821727355965
-0.7114934192597472,-0.7114934192597472
-0.692189164393558,-0.692189164393558
-0.6666799704632368,-0.6666799704632368
-0.6280714607308587,-0.6280714607308587
-0.5839474496081408,-0.5839474496081408
-0.5343079370950833,-0.5343079370950833
-0.4853578622558182,-0.4853578622558182
