ECG,PPG
-0.12961781214378829,-0.12961781214378829
-0.08144608783994586,-0.08144608783994586
-0.030440732694700937,-0.030440732694700937
0.015841904381539828,0.015841904381539828
0.04417821279556478,0.04417821279556478
0.05787409519567684,0.05787409519567684
0.08054314192689681,0.08054314192689681
0.1306039534583409,0.1306039534583409
0.18633202667259,0.18633202667259
0.20616744256240746,0.20616744256240746
0.1660243389758721,0.1660243389758721
0.08432131638210014,0.08432131638210014
-0.0016321524737755637,-0.0016321524737755637
-0.06349975917773006,-0.06349975917773006
-0.10411513457116582,-0.10411513457116582
-0.15181458706810783,-0.15181458706810783
-0.23210079424117855,-0.23210079424117855
-0.33647286356617045,-0.33647286356617045
-0.4295104095255524,-0.4295104095255524
-0.488072113581204,-0.488072113581204
-0.5220756836780339,-0.5220756836780339
-0.5485229048644572,-0.5485229048644572
-0.5678860489473743,-0.5678860489473743
-0.5735533106301792,-0.5735533106301792
-0.5730810388232789,-0.5730810388232789
-0.5796928441198846,-0.5796928441198846
-0.594805541940698,-0.594805541940698
-0.60850142434081,-0.60850142434081
-0.6141686860236151,-0.6141686860236151
-0.6170023168650175,-0.6170023168650175
-0.6165300450581171,-0.6165300450581171
-0.6179468604788184,-0.6179468604788184
-0.6113350551822125,-0.6113350551822125
-0.6184191322857188,-0.6184191322857188
-0.6278645684237271,-0.6278645684237271
-0.636837732754835,-0.636837732754835
-0.6231418503547229,-0.6231418503547229
-0.5943332701337976,-0.5943332701337976
-0.5693028643680755,-0.5693028643680755
-0.560801971843868,-0.560801971843868
-0.5683583207542747,-0.5683583207542747
-0.5995282600097022,-0.5995282600097022
-0.6774531081482708,-0.6774531081482708
-0.7997715061354785,-0.7997715061354785
-0.8904476930603584,-0.8904476930603584
-0.819606922025296,-0.819606922025296
-0.5069629858572207,-0.5069629858572207
0.022925981485046067,0.022925981485046067
0.7176378094355579,0.7176378094355579
1.6187324170015513,1.6187324170015513
2.806023739549197,2.806023739549197
4.177501066788006,4.177501066788006
5.307647500700701,5.307647500700701
5.652878191544905,5.652878191544905
4.9652504406979,4.9652504406979
3.5314332349482362,3.5314332349482362
1.9696303695285604,1.9696303695285604
0.7950903857672261,0.7950903857672261
0.14477210766535337,0.14477210766535337
-0.1324514429851908,-0.1324514429851908
-0.23587896869638186,-0.23587896869638186
-0.2755498004760168,-0.2755498004760168
-0.2986911190141372,-0.2986911190141372
-0.3289165146557638,-0.3289165146557638
-0.3700041618561,-0.3700041618561
-0.4077859064081333,-0.4077859064081333
-0.43328858398075576,-0.43328858398075576
-0.4394281174704611,-0.4394281174704611
-0.4257322350703491,-0.4257322350703491
-0.4025909165322287,-0.4025909165322287
-0.39267320858731997,-0.39267320858731997
-0.4068413627943325,-0.4068413627943325
-0.41864815796684285,-0.41864815796684285
-0.4143977117047391,-0.4143977117047391
-0.3874782187114154,-0.3874782187114154
-0.36953189004919956,-0.36953189004919956
-0.3567805512628884,-0.3567805512628884
-0.3492242023524817,-0.3492242023524817
-0.3345837763385688,-0.3345837763385688
-0.31994335032465593,-0.31994335032465593
-0.3104979141866476,-0.3104979141866476
-0.3048306525038426,-0.3048306525038426
-0.29727430359343593,-0.29727430359343593
-0.28546750842092555,-0.28546750842092555
-0.27129935421391305,-0.27129935421391305
-0.257603471813801,-0.257603471813801
-0.24437986122058936,-0.24437986122058936
-0.23587896869638186,-0.23587896869638186
-0.23398988146878022,-0.23398988146878022
-0.23729578411708313,-0.23729578411708313
-0.23493442508258106,-0.23493442508258106
-0.21840491184106647,-0.21840491184106647
-0.19054087523394195,-0.19054087523394195
-0.1659827412751203,-0.1659827412751203
-0.15181458706810783,-0.15181458706810783
-0.14425823815770117,-0.14425823815770117
-0.12772872491618661,-0.12772872491618661
-0.09703105746765958,-0.09703105746765958
-0.05688795388112423,-0.05688795388112423
-0.018633937522190537,-0.018633937522190537
0.014897360767738994,0.014897360767738994
0.049845474478369775,0.049845474478369775
0.09471129613390929,0.09471129613390929
0.14477210766535337,0.14477210766535337
0.19105474474159415,0.19105474474159415
0.22978103290742824,0.22978103290742824
0.26897959288016277,0.26897959288016277
0.31290087092190144,0.31290087092190144
0.357766692577441,0.357766692577441
0.3979097961639763,0.3979097961639763
0.43616381252291003,0.43616381252291003
0.47489010068874415,0.47489010068874415
0.5084213989786737,0.5084213989786737
0.5320349893236944,0.5320349893236944
0.5480922307583086,0.5480922307583086
0.5632049285791219,0.5632049285791219
0.5754839955585327,0.5754839955585327
0.5773730827861344,0.5773730827861344
0.5669831030343252,0.5669831030343252
0.5476199589514081,0.5476199589514081
0.5230618249925866,0.5230618249925866
0.4947255165785616,0.4947255165785616
0.46072194648173165,0.46072194648173165
0.4177452120537938,0.4177452120537938
0.3648507696809472,0.3648507696809472
0.30392770659079354,0.30392770659079354
0.24111555627303824,0.24111555627303824
0.17877567776218334,0.17877567776218334
0.11312989660302551,0.11312989660302551
0.040400038340361454,0.040400038340361454
-0.0323298199223026,-0.0323298199223026
-0.09608651385385876,-0.09608651385385876
-0.14567505357840244,-0.14567505357840244
-0.18487361355113696,-0.18487361355113696
-0.21793264003416607,-0.21793264003416607
-0.24626894844819103,-0.24626894844819103
-0.2656320925311081,-0.2656320925311081
-0.2783834313174193,-0.2783834313174193
-0.2897179546830293,-0.2897179546830293
-0.3062474679245438,-0.3062474679245438
-0.3251383402005605,-0.3251383402005605
-0.3397787662144734,-0.3397787662144734
-0.34214012524897547,-0.34214012524897547
-0.3345837763385688,-0.3345837763385688
-0.3241937965867597,-0.3241937965867597
-0.31899880671085507,-0.31899880671085507
-0.31852653490395466,-0.31852653490395466
-0.32041562213155633,-0.32041562213155633
-0.31899880671085507,-0.31899880671085507
-0.31758199129015385,-0.31758199129015385
-0.31758199129015385,-0.31758199129015385
-0.316637447676353,-0.316637447676353
-0.3081365551521455,-0.3081365551521455
-0.2968020317865355,-0.2968020317865355
-0.2920793137175314,-0.2920793137175314
-0.2986911190141372,-0.2986911190141372
-0.3043583806969422,-0.3043583806969422
-0.3019970216624401,-0.3019970216624401
-0.29538521636583426,-0.29538521636583426
-0.29396840094513305,-0.29396840094513305
-0.29538521636583426,-0.29538521636583426
-0.2925515855244318,-0.2925515855244318
-0.2835784211933239,-0.2835784211933239
-0.2736607132484152,-0.2736607132484152
-0.26185391807590475,-0.26185391807590475
-0.2363512405032823,-0.2363512405032823
-0.18487361355113696,-0.18487361355113696
-0.11119921167467206,-0.11119921167467206
-0.03421890714990426,-0.03421890714990426
0.021509166064344817,0.021509166064344817
0.049845474478369775,0.049845474478369775
0.07015316217508766,0.07015316217508766
0.10840717853402135,0.10840717853402135
0.1660243389758721,0.1660243389758721
0.21466833508661495,0.21466833508661495
0.23355920736263158,0.23355920736263158
0.23450375097643242,0.23450375097643242
0.24631054614894282,0.24631054614894282
0.2826754752802748,0.2826754752802748
0.3317917431979181,0.3317917431979181
0.3648507696809472,0.3648507696809472
0.3568221489636401,0.3568221489636401
0.2977881731010881,0.2977881731010881
0.21419606327971452,0.21419606327971452
0.14949482573435754,0.14949482573435754
0.1244644199686355,0.1244644199686355
0.11029626576162302,0.11029626576162302
0.06354135687848184,0.06354135687848184
-0.03138527630850177,-0.03138527630850177
-0.145202781771502,-0.145202781771502
-0.23824032773088397,-0.23824032773088397
-0.29160704191063097,-0.29160704191063097
-0.3147483604487513,-0.3147483604487513
-0.32702742742816215,-0.32702742742816215
-0.3411955816351746,-0.3411955816351746
-0.36055872571809167,-0.36055872571809167
-0.3789773261872079,-0.3789773261872079
-0.39220093678041956,-0.39220093678041956
-0.398340470270125,-0.398340470270125
-0.40117410111152746,-0.40117410111152746
-0.4025909165322287,-0.4025909165322287
-0.4073136346012329,-0.4073136346012329
-0.4077859064081333,-0.4077859064081333
-0.4082581782150337,-0.4082581782150337
-0.3997572856908262,-0.3997572856908262
-0.3992850138839258,-0.3992850138839258
-0.3936177522011208,-0.3936177522011208
-0.3907841213597183,-0.3907841213597183
-0.38370004425621207,-0.38370004425621207
-0.37803278257340706,-0.37803278257340706
-0.3728377926975025,-0.3728377926975025
-0.3718932490837017,-0.3718932490837017
-0.3785050543803075,-0.3785050543803075
-0.3964513830425233,-0.3964513830425233
-0.43564994301525783,-0.43564994301525783
-0.5140470629607269,-0.5140470629607269
-0.6108627833753122,-0.6108627833753122
-0.6236141221616234,-0.6236141221616234
-0.4309272249462537,-0.4309272249462537
0.00261829378832818,0.00261829378832818
0.6293229815451802,0.6293229815451802
1.441158217606995,1.441158217606995
2.5113261320433375,2.5113261320433375
3.813379503667784,3.813379503667784
5.015311252229344,5.015311252229344
5.570230625337332,5.570230625337332
5.121572408781937,5.121572408781937
3.8478553455715145,3.8478553455715145
2.3479200868557935,2.3479200868557935
1.1757414621289612,1.1757414621289612
0.4970868756130637,0.4970868756130637
0.169330241624175,0.169330241624175
0.013952817153938162,0.013952817153938162
-0.05688795388112423,-0.05688795388112423
-0.09183606759175501,-0.09183606759175501
-0.13150689937138996,-0.13150689937138996
-0.18015089548213278,-0.18015089548213278
-0.21084856293065982,-0.21084856293065982
-0.21746036822726564,-0.21746036822726564
-0.21793264003416607,-0.21793264003416607
-0.2240721735238715,-0.2240721735238715
-0.2283226197859752,-0.2283226197859752
-0.2240721735238715,-0.2240721735238715
-0.21982172726176774,-0.21982172726176774
-0.21179310654446065,-0.21179310654446065
-0.20848720389615774,-0.20848720389615774
-0.19904176775814944,-0.19904176775814944
-0.19290223426844402,-0.19290223426844402
-0.17353909018552696,-0.17353909018552696
-0.15606503333021157,-0.15606503333021157
-0.1447305099646016,-0.1447305099646016
-0.1447305099646016,-0.1447305099646016
-0.14236915093009953,-0.14236915093009953
-0.12914554033688788,-0.12914554033688788
-0.10883785264016999,-0.10883785264016999
-0.09655878566075916,-0.09655878566075916
-0.09703105746765958,-0.09703105746765958
-0.10222604734356416,-0.10222604734356416
-0.09892014469526125,-0.09892014469526125
-0.08475199048824877,-0.08475199048824877
-0.06302748737082964,-0.06302748737082964
-0.04508115870861383,-0.04508115870861383
-0.03610799437750593,-0.03610799437750593
-0.03563572257060551,-0.03563572257060551
-0.032802091729203016,-0.032802091729203016
-0.022412111977393866,-0.022412111977393866
-0.0016321524737755637,-0.0016321524737755637
0.021981437871245235,0.021981437871245235
0.046539571830066864,0.046539571830066864
0.06873634675438642,0.06873634675438642
0.0890440344511043,0.0890440344511043
0.10746263492022053,0.10746263492022053
0.13013168165144048,0.13013168165144048
0.1603570772930671,0.1603570772930671
0.20333381172100495,0.20333381172100495
0.2548114386731503,0.2548114386731503
0.31242859911500104,0.31242859911500104
0.3662675851016485,0.3662675851016485
0.4120779503709888,0.4120779503709888
0.44749833588852,0.44749833588852
0.4819741777922504,0.4819741777922504
0.5211727377649849,0.5211727377649849
0.5688721902619269,0.5688721902619269
0.6175161863726697,0.6175161863726697
0.6600206489937072,0.6600206489937072
0.6859955983732301,0.6859955983732301
0.6949687627043379,0.6949687627043379
0.6963855781250392,0.6963855781250392
0.7020528398078442,0.7020528398078442
0.7148041785941555,0.7148041785941555
0.7247218865390642,0.7247218865390642
0.7190546248562592,0.7190546248562592
0.6992192089664417,0.6992192089664417
0.6713551723593172,0.6713551723593172
0.638296145876288,0.638296145876288
0.5972084986759518,0.5972084986759518
0.5457308717238065,0.5457308717238065
0.48480780863365286,0.48480780863365286
0.4177452120537938,0.4177452120537938
0.34454308198422934,0.34454308198422934
0.26945186468706317,0.26945186468706317
0.19624973461749873,0.19624973461749873
0.1282425944238388,0.1282425944238388
0.06637498771988433,0.06637498771988433
0.013008273540137331,0.013008273540137331
-0.0351634507637051,-0.0351634507637051
-0.07814018519164295,-0.07814018519164295
-0.11308829890227373,-0.11308829890227373
-0.13150689937138996,-0.13150689937138996
-0.1418968791231991,-0.1418968791231991
-0.15464821790951033,-0.15464821790951033
-0.1740113619924274,-0.1740113619924274
-0.18534588535803737,-0.18534588535803737
-0.18534588535803737,-0.18534588535803737
-0.1829845263235353,-0.1829845263235353
-0.1891240598132407,-0.1891240598132407
-0.1947913214960457,-0.1947913214960457
-0.1919576906546432,-0.1919576906546432
-0.18392906993733613,-0.18392906993733613
-0.1834567981304357,-0.1834567981304357
-0.18487361355113696,-0.18487361355113696
-0.18109543909593362,-0.18109543909593362
-0.17306681837862656,-0.17306681837862656
-0.1744836337993278,-0.1744836337993278
-0.18581815716493777,-0.18581815716493777
-0.20045858317885068,-0.20045858317885068
-0.20895947570305817,-0.20895947570305817
-0.20895947570305817,-0.20895947570305817
-0.19998631137195025,-0.19998631137195025
-0.1895963316201411,-0.1895963316201411
-0.1834567981304357,-0.1834567981304357
-0.18392906993733613,-0.18392906993733613
-0.18440134174423653,-0.18440134174423653
-0.18251225451663486,-0.18251225451663486
-0.17826180825453114,-0.17826180825453114
-0.1688163721165228,-0.1688163721165228
-0.14095233550939826,-0.14095233550939826
-0.08758562132965127,-0.08758562132965127
-0.01627257848768846,-0.01627257848768846
0.05220683351287186,0.05220683351287186
0.10510127588571844,0.10510127588571844
0.14288302043775172,0.14288302043775172
0.1778311341483825,0.1778311341483825
0.21891878134871867,0.21891878134871867
0.2652014184249594,0.2652014184249594
0.3053445220114948,0.3053445220114948
0.32801356874271476,0.32801356874271476
0.3322640150048185,0.3322640150048185
0.33604218946002185,0.33604218946002185
0.3653230414878476,0.3653230414878476
0.42577383277110087,0.42577383277110087
0.4824464495991508,0.4824464495991508
0.4819741777922504,0.4819741777922504
0.4092443195295863,0.4092443195295863
0.3053445220114948,0.3053445220114948
0.22883648929362743,0.22883648929362743
0.1953051910036979,0.1953051910036979
0.17594204692078083,0.17594204692078083
0.13249304068594256,0.13249304068594256
0.04748411544386769,0.04748411544386769
-0.06586111821223213,-0.06586111821223213
-0.17306681837862656,-0.17306681837862656
-0.2401294149584856,-0.2401294149584856
-0.2646875489173072,-0.2646875489173072
-0.2741329850553156,-0.2741329850553156
-0.29444067275203345,-0.29444067275203345
-0.3218324375522576,-0.3218324375522576
-0.33883422260067253,-0.33883422260067253
-0.34214012524897547,-0.34214012524897547
-0.34497375609037795,-0.34497375609037795
-0.35158556138698377,-0.35158556138698377
-0.35914191029739045,-0.35914191029739045
-0.35961418210429086,-0.35961418210429086
-0.35961418210429086,-0.35961418210429086
-0.3563082794559879,-0.3563082794559879
-0.36197554113879293,-0.36197554113879293
-0.3610309975249921,-0.3610309975249921
-0.36008645391119126,-0.36008645391119126
-0.3468628433179796,-0.3468628433179796
-0.3383619507937721,-0.3383619507937721
-0.34214012524897547,-0.34214012524897547
-0.3558360076490875,-0.3558360076490875
-0.35394692042148584,-0.35394692042148584
-0.3322224173040667,-0.3322224173040667
-0.322304709359158,-0.322304709359158
-0.36292008475259374,-0.36292008475259374
-0.4564299025188761,-0.4564299025188761
-0.5565515255817644,-0.5565515255817644
-0.5806373877336856,-0.5806373877336856
-0.43423312759455657,-0.43423312759455657
-0.06727793363293338,-0.06727793363293338
0.49661460380616324,0.49661460380616324
1.2291081763087084,1.2291081763087084
2.1830972262475483,2.1830972262475483
3.3902239646850116,3.3902239646850116
4.623325652501999,4.623325652501999
5.373293281859858,5.373293281859858
5.2018586159550075,5.2018586159550075
4.141608409463574,4.141608409463574
2.696928952155201,2.696928952155201
1.4439918484483976,1.4439918484483976
0.6562424745385038,0.6562424745385038
0.264729146618059,0.264729146618059
0.0833767727682993,0.0833767727682993
-0.003993511508277643,-0.003993511508277643
-0.03941389702580884,-0.03941389702580884
-0.0559434102673234,-0.0559434102673234
-0.08805789313655168,-0.08805789313655168
-0.13150689937138996,-0.13150689937138996
-0.15842639236471365,-0.15842639236471365
-0.162204566819917,-0.162204566819917
-0.15984320778541491,-0.15984320778541491
-0.16126002320611615,-0.16126002320611615
-0.162204566819917,-0.162204566819917
-0.1570095769440124,-0.1570095769440124
-0.15748184875091284,-0.15748184875091284
-0.15559276152331117,-0.15559276152331117
-0.15275913068190866,-0.15275913068190866
-0.1362296174403941,-0.1362296174403941
-0.1244228222678837,-0.1244228222678837
-0.11025466806087122,-0.11025466806087122
-0.10128150372976333,-0.10128150372976333
-0.09419742662625709,-0.09419742662625709
-0.08947470855725292,-0.08947470855725292
-0.0828629032606471,-0.0828629032606471
-0.07530655435024045,-0.07530655435024045
-0.06869474905363462,-0.06869474905363462
-0.06349975917773006,-0.06349975917773006
-0.054054323039721734,-0.054054323039721734
-0.044136615094813,-0.044136615094813
-0.03846935341200801,-0.03846935341200801
-0.03705253799130676,-0.03705253799130676
-0.028551645467099273,-0.028551645467099273
-0.010133044997983051,-0.010133044997983051
0.009230099084934003,0.009230099084934003
0.01773099160914149,0.01773099160914149
0.02245370967814565,0.02245370967814565
0.030010058588552303,0.030010058588552303
0.04323366918176395,0.04323366918176395
0.05456819254737393,0.05456819254737393
0.06968089036818724,0.06968089036818724
0.0951835679408097,0.0951835679408097
0.13485439972044463,0.13485439972044463
0.17499750330698,0.17499750330698
0.2075842579831087,0.2075842579831087
0.2368651100109345,0.2368651100109345
0.27842502901817107,0.27842502901817107
0.3322640150048185,0.3322640150048185
0.38751981641216715,0.38751981641216715
0.4314410944539059,0.4314410944539059
0.4715841980404412,0.4715841980404412
0.5173945633097815,0.5173945633097815
0.5693444620688273,0.5693444620688273
0.6123211964967652,0.6123211964967652
0.6378238740693877,0.6378238740693877
0.6534088436971014,0.6534088436971014
0.6732442595869188,0.6732442595869188
0.7006360243871429,0.7006360243871429
0.7266109737666658,0.7266109737666658
0.7417236715874791,0.7417236715874791
0.7464463896564832,0.7464463896564832
0.7445573024288816,0.7445573024288816
0.7370009535184749,0.7370009535184749
0.7181100812424583,0.7181100812424583
0.6874124137939313,0.6874124137939313
0.6486861256280972,0.6486861256280972
0.6071262066208606,0.6071262066208606
0.5580099387032174,0.5580099387032174
0.4975591474199641,0.4975591474199641
0.4290797354194038,0.4290797354194038
0.3643784978740468,0.3643784978740468
0.30392770659079354,0.30392770659079354
0.23969874085233697,0.23969874085233697
0.1664966107827725,0.1664966107827725
0.09660038336151096,0.09660038336151096
0.04134458195416229,0.04134458195416229
0.000729206560726516,0.000729206560726516
-0.03752480979820717,-0.03752480979820717
-0.07436201073643962,-0.07436201073643962
-0.103170590957365,-0.103170590957365
-0.1182832887781783,-0.1182832887781783
-0.12631190949548537,-0.12631190949548537
-0.1324514429851908,-0.1324514429851908
-0.1418968791231991,-0.1418968791231991
-0.15181458706810783,-0.15181458706810783
-0.16031547959231532,-0.16031547959231532
-0.1626768386268174,-0.1626768386268174
-0.16126002320611615,-0.16126002320611615
-0.1570095769440124,-0.1570095769440124
-0.1537036742957095,-0.1537036742957095
-0.14945322803360575,-0.14945322803360575
-0.14898095622670535,-0.14898095622670535
-0.15559276152331117,-0.15559276152331117
-0.16976091573032365,-0.16976091573032365
-0.18251225451663486,-0.18251225451663486
-0.1862904289718382,-0.1862904289718382
-0.18109543909593362,-0.18109543909593362
-0.1744836337993278,-0.1744836337993278
-0.17165000295792532,-0.17165000295792532
-0.17259454657172613,-0.17259454657172613
-0.1740113619924274,-0.1740113619924274
-0.1740113619924274,-0.1740113619924274
-0.17023318753722405,-0.17023318753722405
-0.1659827412751203,-0.1659827412751203
-0.16173229501301656,-0.16173229501301656
-0.16126002320611615,-0.16126002320611615
-0.16173229501301656,-0.16173229501301656
-0.15748184875091284,-0.15748184875091284
-0.13859097647489618,-0.13859097647489618
-0.10269831915046458,-0.10269831915046458
-0.04933160497071758,-0.04933160497071758
0.01773099160914149,0.01773099160914149
0.09046084987180554,0.09046084987180554
0.15138391296195922,0.15138391296195922
0.18774884209329123,0.18774884209329123
0.2075842579831087,0.2075842579831087
0.23639283820403406,0.23639283820403406
0.2836200188940757,0.2836200188940757
0.3289581123565156,0.3289581123565156
0.346432169211831,0.346432169211831
0.3412371793359264,0.3412371793359264
0.34548762559803015,0.34548762559803015
0.3818525547293622,0.3818525547293622
0.43427472529530836,0.43427472529530836
0.46024967467483124,0.46024967467483124
0.42860746361250335,0.42860746361250335
0.34501535379112974,0.34501535379112974
0.25008872060414616,0.25008872060414616
0.1834983958311875,0.1834983958311875
0.15327300018956086,0.15327300018956086
0.12965940984454008,0.12965940984454008
0.07251452120958975,0.07251452120958975
-0.028079373660198855,-0.028079373660198855
-0.14048006370249785,-0.14048006370249785
-0.22218308629626982,-0.22218308629626982
-0.25902028723450227,-0.25902028723450227
-0.2755498004760168,-0.2755498004760168
-0.3019970216624401,-0.3019970216624401
-0.3397787662144734,-0.3397787662144734
-0.3700041618561,-0.3700041618561
-0.3799218698010087,-0.3799218698010087
-0.37756051076650665,-0.37756051076650665
-0.37708823895960625,-0.37708823895960625
-0.3841723160631125,-0.3841723160631125
-0.3888950341321166,-0.3888950341321166
-0.3912563931666187,-0.3912563931666187
-0.3907841213597183,-0.3907841213597183
-0.3978681984632245,-0.3978681984632245
-0.3973959266563241,-0.3973959266563241
-0.3978681984632245,-0.3978681984632245
-0.3888950341321166,-0.3888950341321166
-0.38653367509761455,-0.38653367509761455
-0.38606140329071414,-0.38606140329071414
-0.38511685967691334,-0.38511685967691334
-0.3728377926975025,-0.3728377926975025
-0.3548914640352867,-0.3548914640352867
-0.3492242023524817,-0.3492242023524817
-0.3789773261872079,-0.3789773261872079
-0.45359627167747363,-0.45359627167747363
-0.5570237973886647,-0.5570237973886647
-0.625503209389225,-0.625503209389225
-0.5523010793196605,-0.5523010793196605
-0.26138164626900434,-0.26138164626900434
0.2316701201350299,0.2316701201350299
0.8805715828162014,0.8805715828162014
1.7287717480093483,1.7287717480093483
2.8532509202392387,2.8532509202392387
4.124134352608259,4.124134352608259
5.094180643981713,5.094180643981713
5.257114417362357,5.257114417362357
4.473143217907666,4.473143217907666
3.1106390549999654,3.1106390549999654
1.7571080564233734,1.7571080564233734
0.8054803655190353,0.8054803655190353
0.29212091141828317,0.29212091141828317
0.05787409519567684,0.05787409519567684
-0.04224752786721134,-0.04224752786721134
-0.07814018519164295,-0.07814018519164295
-0.09750332927456,-0.09750332927456
-0.1333959865989916,-0.1333959865989916
-0.18015089548213278,-0.18015089548213278
-0.20518130124785483,-0.20518130124785483
-0.204236757634054,-0.204236757634054
-0.20045858317885068,-0.20045858317885068
-0.2075426602823569,-0.2075426602823569
-0.21509900919276356,-0.21509900919276356
-0.21084856293065982,-0.21084856293065982
-0.2032922140202532,-0.2032922140202532
-0.1947913214960457,-0.1947913214960457
-0.19337450607534443,-0.19337450607534443
-0.18817951619943987,-0.18817951619943987
-0.18770724439253944,-0.18770724439253944
-0.17920635186833195,-0.17920635186833195
-0.16928864392342322,-0.16928864392342322
-0.15464821790951033,-0.15464821790951033
-0.1414246073162987,-0.1414246073162987
-0.13197917117829036,-0.13197917117829036
-0.13150689937138996,-0.13150689937138996
-0.1357573456334937,-0.1357573456334937
-0.1362296174403941,-0.1362296174403941
-0.12489509407478412,-0.12489509407478412
-0.1093101244470704,-0.1093101244470704
-0.09986468830906207,-0.09986468830906207
-0.09844787288836084,-0.09844787288836084
-0.09230833939865543,-0.09230833939865543
-0.07577882615714086,-0.07577882615714086
-0.057360225688024645,-0.057360225688024645
-0.04933160497071758,-0.04933160497071758
-0.04744251774311591,-0.04744251774311591
-0.040830712446510084,-0.040830712446510084
-0.02430119920499553,-0.02430119920499553
-0.004465783315178059,-0.004465783315178059
0.016786447995340657,0.016786447995340657
0.04087231014726187,0.04087231014726187
0.07251452120958975,0.07251452120958975
0.10604581949951927,0.10604581949951927
0.14004938959634922,0.14004938959634922
0.17169160065867708,0.17169160065867708
0.20663971436930786,0.20663971436930786
0.24678281795584323,0.24678281795584323
0.2935377268389844,0.2935377268389844
0.3402926357221256,0.3402926357221256
0.3851584573776651,0.3851584573776651
0.42766291999870254,0.42766291999870254
0.4730010134611425,0.4730010134611425
0.5230618249925866,0.5230618249925866
0.5721780929102298,0.5721780929102298
0.6099598374622631,0.6099598374622631
0.6316843405796823,0.6316843405796823
0.6420743203314914,0.6420743203314914
0.6510474846625993,0.6510474846625993
0.6586038335730059,0.6586038335730059
0.6600206489937072,0.6600206489937072
0.6524643000833005,0.6524643000833005
0.6434911357521926,0.6434911357521926
0.6340456996141843,0.6340456996141843
0.6151548273381676,0.6151548273381676
0.5802067136275368,0.5802067136275368
0.537229979199599,0.537229979199599
0.49378097296476076,0.49378097296476076
0.4470260640816196,0.4470260640816196
0.3879920882190676,0.3879920882190676
0.3204572198323081,0.3204572198323081
0.25103326421794697,0.25103326421794697
0.1839706676380879,0.1839706676380879
0.11832488647893008,0.11832488647893008
0.0592909106163781,0.0592909106163781
0.009702370891834419,0.009702370891834419
-0.03185754811540219,-0.03185754811540219
-0.07436201073643962,-0.07436201073643962
-0.1182832887781783,-0.1182832887781783
-0.15512048971641074,-0.15512048971641074
-0.1744836337993278,-0.1744836337993278
-0.18109543909593362,-0.18109543909593362
-0.18770724439253944,-0.18770724439253944
-0.2037644858271536,-0.2037644858271536
-0.22076627087556858,-0.22076627087556858
-0.23021170701357688,-0.23021170701357688
-0.22879489159287564,-0.22879489159287564
-0.22548898894457273,-0.22548898894457273
-0.2250167171376723,-0.2250167171376723
-0.22879489159287564,-0.22879489159287564
-0.23446215327568062,-0.23446215327568062
-0.2401294149584856,-0.2401294149584856
-0.2401294149584856,-0.2401294149584856
-0.23493442508258106,-0.23493442508258106
-0.22926716339977604,-0.22926716339977604
-0.23446215327568062,-0.23446215327568062
-0.2491025792895935,-0.2491025792895935
-0.2656320925311081,-0.2656320925311081
-0.2741329850553156,-0.2741329850553156
-0.2750775286691164,-0.2750775286691164
-0.2731884414415147,-0.2731884414415147
-0.26988253879321183,-0.26988253879321183
-0.2599648308483031,-0.2599648308483031
-0.24674122025509143,-0.24674122025509143
-0.23776805592398353,-0.23776805592398353
-0.23871259953778437,-0.23871259953778437
-0.24060168676538604,-0.24060168676538604
-0.23446215327568062,-0.23446215327568062
-0.22029399906866814,-0.22029399906866814
-0.2037644858271536,-0.2037644858271536
-0.18109543909593362,-0.18109543909593362
-0.14614732538530284,-0.14614732538530284
-0.09655878566075916,-0.09655878566075916
-0.0413029842534105,-0.0413029842534105
0.012536001733236915,0.012536001733236915
0.06684725952678475,0.06684725952678475
0.12635350719623717,0.12635350719623717
0.1901102011277933,0.1901102011277933
0.24631054614894282,0.24631054614894282
0.27842502901817107,0.27842502901817107
0.28314774708717527,0.28314774708717527
0.28314774708717527,0.28314774708717527
0.306761337432196,0.306761337432196
0.3572944207705406,0.3572944207705406
0.40121569881227925,0.40121569881227925
0.40168797061917966,0.40168797061917966
0.35209943089463597,0.35209943089463597
0.2751191263698682,0.2751191263698682
0.19955563726580164,0.19955563726580164
0.14666119489295504,0.14666119489295504
0.11643579925132842,0.11643579925132842
0.08479358818900055,0.08479358818900055
0.015841904381539828,0.015841904381539828
-0.09372515481935667,-0.09372515481935667
-0.2065981166685561,-0.2065981166685561
-0.280272518545021,-0.280272518545021
-0.3104979141866476,-0.3104979141866476
-0.3241937965867597,-0.3241937965867597
-0.3407233098282742,-0.3407233098282742
-0.36008645391119126,-0.36008645391119126
-0.37425460811820377,-0.37425460811820377
-0.3822832288355108,-0.3822832288355108
-0.3888950341321166,-0.3888950341321166
-0.3964513830425233,-0.3964513830425233
-0.3997572856908262,-0.3997572856908262
-0.398340470270125,-0.398340470270125
-0.3912563931666187,-0.3912563931666187
-0.3912563931666187,-0.3912563931666187
-0.39409002400802123,-0.39409002400802123
-0.4077859064081333,-0.4077859064081333
-0.412036352670237,-0.412036352670237
-0.4139254398978387,-0.4139254398978387
-0.41061953724953576,-0.41061953724953576
-0.41014726544263536,-0.41014726544263536
-0.4073136346012329,-0.4073136346012329
-0.40117410111152746,-0.40117410111152746
-0.3959791112356229,-0.3959791112356229
-0.40211864472532827,-0.40211864472532827
-0.4399003892773616,-0.4399003892773616
-0.5249093145194365,-0.5249093145194365
-0.625503209389225,-0.625503209389225
-0.6472277125066441,-0.6472277125066441
-0.48571075454670193,-0.48571075454670193
-0.10789330902636915,-0.10789330902636915
0.4479706076954204,0.4479706076954204
1.1686573850254551,1.1686573850254551
2.114617814246988,2.114617814246988
3.301909136794634,3.301909136794634
4.491561818376782,4.491561818376782
5.183912287292792,5.183912287292792
4.95533273275299,4.95533273275299
3.8601344125509254,3.8601344125509254
2.431512196677167,2.431512196677167
1.2432763305157208,1.2432763305157208
0.5150332042752794,0.5150332042752794
0.14382756405155256,0.14382756405155256
-0.02666255823949761,-0.02666255823949761
-0.0828629032606471,-0.0828629032606471
-0.09230833939865543,-0.09230833939865543
-0.11970010419887955,-0.11970010419887955
-0.17495590560622823,-0.17495590560622823
-0.21746036822726564,-0.21746036822726564
-0.22643353255837356,-0.22643353255837356
-0.22171081448936938,-0.22171081448936938
-0.22690580436527397,-0.22690580436527397
-0.23776805592398353,-0.23776805592398353
-0.2401294149584856,-0.2401294149584856
-0.23210079424117855,-0.23210079424117855
-0.2160435528065644,-0.2160435528065644
-0.2075426602823569,-0.2075426602823569
-0.20187539859955192,-0.20187539859955192
-0.20565357305475526,-0.20565357305475526
-0.19998631137195025,-0.19998631137195025
-0.19431904968914526,-0.19431904968914526
-0.18203998270973445,-0.18203998270973445
-0.16787182850272198,-0.16787182850272198
-0.1532314024888091,-0.1532314024888091
-0.14425823815770117,-0.14425823815770117
-0.14236915093009953,-0.14236915093009953
-0.145202781771502,-0.145202781771502
-0.14425823815770117,-0.14425823815770117
-0.13953552008869702,-0.13953552008869702
-0.13197917117829036,-0.13197917117829036
-0.12536736588168454,-0.12536736588168454
-0.1182832887781783,-0.1182832887781783
-0.10742103721946873,-0.10742103721946873
-0.08947470855725292,-0.08947470855725292
-0.07294519531573837,-0.07294519531573837
-0.06161067195012839,-0.06161067195012839
-0.05452659484662215,-0.05452659484662215
-0.039886168832709255,-0.039886168832709255
-0.020050752942891787,-0.020050752942891787
-0.0006876088599747318,-0.0006876088599747318
0.013008273540137331,0.013008273540137331
0.032371417623054385,0.032371417623054385
0.06354135687848184,0.06354135687848184
0.10321218865811678,0.10321218865811678
0.14099393321015005,0.14099393321015005
0.17972022137598417,0.17972022137598417
0.2250583148384241,0.2250583148384241
0.27653594179056945,0.27653594179056945
0.3223463070599098,0.3223463070599098
0.35965577980504265,0.35965577980504265
0.39271480628807176,0.39271480628807176
0.4323856380677067,0.4323856380677067
0.47866827514394744,0.47866827514394744
0.5249509122201882,0.5249509122201882
0.5636772003860223,0.5636772003860223
0.5939025960276489,0.5939025960276489
0.6175161863726697,0.6175161863726697
0.635934786841786,0.635934786841786
0.647269310207396,0.647269310207396
0.6529365718902009,0.6529365718902009
0.6548256591178025,0.6548256591178025
0.6529365718902009,0.6529365718902009
0.6444356793659934,0.6444356793659934
0.6293229815451802,0.6293229815451802
0.607598478427761,0.607598478427761
0.5783176263999352,0.5783176263999352
0.5386467946203003,0.5386467946203003
0.48669689586125453,0.48669689586125453
0.42530156096420046,0.42530156096420046
0.35965577980504265,0.35965577980504265
0.2935377268389844,0.2935377268389844
0.23072557652122908,0.23072557652122908
0.16838569801037417,0.16838569801037417
0.10651809130641969,0.10651809130641969
0.04559502821626603,0.04559502821626603
-0.007299414156580555,-0.007299414156580555
-0.050276148584518406,-0.050276148584518406
-0.08144608783994586,-0.08144608783994586
-0.10600422179876749,-0.10600422179876749
-0.12583963768858497,-0.12583963768858497
-0.14567505357840244,-0.14567505357840244
-0.16503819766131947,-0.16503819766131947
-0.1829845263235353,-0.1829845263235353
-0.19242996246154362,-0.19242996246154362
-0.1952635933029461,-0.1952635933029461
-0.19431904968914526,-0.19431904968914526
-0.19668040872364734,-0.19668040872364734
-0.19998631137195025,-0.19998631137195025
-0.20470902944095443,-0.20470902944095443
-0.20848720389615774,-0.20848720389615774
-0.21226537835136108,-0.21226537835136108
-0.2127376501582615,-0.2127376501582615
-0.21368219377206232,-0.21368219377206232
-0.21698809642036523,-0.21698809642036523
-0.2240721735238715,-0.2240721735238715
-0.22548898894457273,-0.22548898894457273
-0.2188771836479669,-0.2188771836479669
-0.20943174750995858,-0.20943174750995858
-0.20612584486165567,-0.20612584486165567
-0.20612584486165567,-0.20612584486165567
-0.20281994221335276,-0.20281994221335276
-0.19290223426844402,-0.19290223426844402
-0.1867627007787386,-0.1867627007787386
-0.1895963316201411,-0.1895963316201411
-0.1980972241443486,-0.1980972241443486
-0.19904176775814944,-0.19904176775814944
-0.1891240598132407,-0.1891240598132407
-0.17306681837862656,-0.17306681837862656
-0.15181458706810783,-0.15181458706810783
-0.11261602709537331,-0.11261602709537331
-0.046970245936215495,-0.046970245936215495
0.03378823304375563,0.03378823304375563
0.10179537323741553,0.10179537323741553
0.14335529224465213,0.14335529224465213
0.16791342620347377,0.16791342620347377
0.19766655003819997,0.19766655003819997
0.2430046435006399,0.2430046435006399
0.29448227045278524,0.29448227045278524
0.3313194713910177,0.3313194713910177
0.3435985383704285,0.3435985383704285
0.34407081017732893,0.34407081017732893
0.36012805161194306,0.36012805161194306
0.40452160146058214,0.40452160146058214
0.4621387619024329,0.4621387619024329
0.49378097296476076,0.49378097296476076
0.4678060235852379,0.4678060235852379
0.3879920882190676,0.3879920882190676
0.29400999864588484,0.29400999864588484
0.22930876110052784,0.22930876110052784
0.20380608352790539,0.20380608352790539
0.1834983958311875,0.1834983958311875
0.12588123538933674,0.12588123538933674
0.021509166064344817,0.021509166064344817
-0.09514197024005792,-0.09514197024005792
-0.17967862367523238,-0.17967862367523238
-0.21840491184106647,-0.21840491184106647
-0.23304533785497938,-0.23304533785497938
-0.2514639383240956,-0.2514639383240956
-0.27932797493122014,-0.27932797493122014
-0.30246929346934054,-0.30246929346934054
-0.3081365551521455,-0.3081365551521455
-0.30246929346934054,-0.30246929346934054
-0.3019970216624401,-0.3019970216624401
-0.31238700141424924,-0.31238700141424924
-0.32797197104196296,-0.32797197104196296
-0.3322224173040667,-0.3322224173040667
-0.3308056018833655,-0.3308056018833655
-0.3251383402005605,-0.3251383402005605
-0.33269468911096717,-0.33269468911096717
-0.33505604814546924,-0.33505604814546924
-0.33883422260067253,-0.33883422260067253
-0.339306494407573,-0.339306494407573
-0.3430846688627763,-0.3430846688627763
-0.3374174071799713,-0.3374174071799713
-0.3227769811660584,-0.3227769811660584
-0.3104979141866476,-0.3104979141866476
-0.3161651758694526,-0.3161651758694526
-0.3520578331938842,-0.3520578331938842
-0.429038137718652,-0.429038137718652
-0.524437042712536,-0.524437042712536
-0.5579683410024655,-0.5579683410024655
-0.42478769145654827,-0.42478769145654827
-0.08144608783994586,-0.08144608783994586
0.43758062794361124,0.43758062794361124
1.1105679527767038,1.1105679527767038
1.9998557651701871,1.9998557651701871
3.1470039841312976,3.1470039841312976
4.355547537989462,4.355547537989462
5.152742348037364,5.152742348037364
5.084735207843704,5.084735207843704
4.123662080801358,4.123662080801358
2.72998797863823,2.72998797863823
1.483190408421132,1.483190408421132
0.6741888032007196,0.6741888032007196
0.25906188493525406,0.25906188493525406
0.07393133663029099,0.07393133663029099
0.0012014783676269321,0.0012014783676269321
-0.028551645467099273,-0.028551645467099273
-0.05830476930182548,-0.05830476930182548
-0.09844787288836084,-0.09844787288836084
-0.1324514429851908,-0.1324514429851908
-0.15512048971641074,-0.15512048971641074
-0.17259454657172613,-0.17259454657172613
-0.18581815716493777,-0.18581815716493777
-0.1891240598132407,-0.1891240598132407
-0.18203998270973445,-0.18203998270973445
-0.17542817741312863,-0.17542817741312863
-0.16928864392342322,-0.16928864392342322
-0.16645501308202074,-0.16645501308202074
-0.15512048971641074,-0.15512048971641074
-0.14567505357840244,-0.14567505357840244
-0.13103462756448953,-0.13103462756448953
-0.1244228222678837,-0.1244228222678837
-0.11497738612987539,-0.11497738612987539
-0.10411513457116582,-0.10411513457116582
-0.09183606759175501,-0.09183606759175501
-0.0856965341020496,-0.0856965341020496
-0.08616880590895001,-0.08616880590895001
-0.08805789313655168,-0.08805789313655168
-0.08380744687444794,-0.08380744687444794
-0.07625109796404128,-0.07625109796404128
-0.07105610808813671,-0.07105610808813671
-0.07105610808813671,-0.07105610808813671
-0.0705838362812363,-0.0705838362812363
-0.06586111821223213,-0.06586111821223213
-0.05547113846042298,-0.05547113846042298
-0.043664343287912584,-0.043664343287912584
-0.03091300450160135,-0.03091300450160135
-0.016744850294588873,-0.016744850294588873
-0.00021533705307431582,-0.00021533705307431582
0.016786447995340657,0.016786447995340657
0.036621863885158125,0.036621863885158125
0.05881863880947768,0.05881863880947768
0.08621040360970181,0.08621040360970181
0.11738034286512926,0.11738034286512926
0.1542175438033617,0.1542175438033617
0.1957774628105983,0.1957774628105983
0.24158782807993864,0.24158782807993864
0.2840922907009761,0.2840922907009761
0.32187403525300934,0.32187403525300934
0.3554053335429389,0.3554053335429389
0.39224253448117136,0.39224253448117136
0.43380245348840796,0.43380245348840796
0.47866827514394744,0.47866827514394744
0.520228194151184,0.520228194151184
0.5575376668963169,0.5575376668963169
0.5896521497655453,0.5896521497655453
0.6184607299864706,0.6184607299864706
0.6425465921383918,0.6425465921383918
0.6614374644144084,0.6614374644144084
0.6760778904283213,0.6760778904283213
0.6874124137939313,0.6874124137939313
0.6921351318629355,0.6921351318629355
0.6878846856008317,0.6878846856008317
0.6774947058490226,0.6774947058490226
0.664271095255811,0.664271095255811
0.6425465921383918,0.6425465921383918
0.6028757603587569,0.6028757603587569
0.5457308717238065,0.5457308717238065
0.48480780863365286,0.48480780863365286
0.42766291999870254,0.42766291999870254
0.3672121287154493,0.3672121287154493
0.29400999864588484,0.29400999864588484
0.21750196592801743,0.21750196592801743
0.15091164115505878,0.15091164115505878
0.09660038336151096,0.09660038336151096
0.04417821279556478,0.04417821279556478
-0.012022132225584714,-0.012022132225584714
-0.0677502054398338,-0.0677502054398338
-0.11356057070917415,-0.11356057070917415
-0.14850868441980491,-0.14850868441980491
-0.17590044922002904,-0.17590044922002904
-0.19951403956504984,-0.19951403956504984
-0.21746036822726564,-0.21746036822726564
-0.22643353255837356,-0.22643353255837356
-0.2250167171376723,-0.2250167171376723
-0.22359990171697106,-0.22359990171697106
-0.2283226197859752,-0.2283226197859752
-0.24060168676538604,-0.24060168676538604
-0.2505193947102948,-0.2505193947102948
-0.25335302555169725,-0.25335302555169725
-0.25288075374479685,-0.25288075374479685
-0.2571312000069006,-0.2571312000069006
-0.2656320925311081,-0.2656320925311081
-0.27602207228291725,-0.27602207228291725
-0.2835784211933239,-0.2835784211933239
-0.28782886745542763,-0.28782886745542763
-0.28593978022782596,-0.28593978022782596
-0.27743888770361846,-0.27743888770361846
-0.2651598207242077,-0.2651598207242077
-0.2547698409723985,-0.2547698409723985
-0.2509916665171952,-0.2509916665171952
-0.2542975691654981,-0.2542975691654981
-0.25949255904140267,-0.25949255904140267
-0.2637430053035064,-0.2637430053035064
-0.26185391807590475,-0.26185391807590475
-0.2571312000069006,-0.2571312000069006
-0.2505193947102948,-0.2505193947102948
-0.2453244048343902,-0.2453244048343902
-0.2396571431515852,-0.2396571431515852
-0.23587896869638186,-0.23587896869638186
-0.23162852243427812,-0.23162852243427812
-0.22171081448936938,-0.22171081448936938
-0.19384677788224486,-0.19384677788224486
-0.14048006370249785,-0.14048006370249785
-0.06727793363293338,-0.06727793363293338
0.00497965282283026,0.00497965282283026
0.0564572797749756,0.0564572797749756
0.08668267541660221,0.08668267541660221
0.11171308118232426,0.11171308118232426
0.1452443794722538,0.1452443794722538
0.18633202667259,0.18633202667259
0.22411377122462325,0.22411377122462325
0.25056099241104657,0.25056099241104657
0.2661459620387603,0.2661459620387603
0.2812586598595736,0.2812586598595736
0.3133731427288019,0.3133731427288019
0.3676844005223497,0.3676844005223497
0.4153838530192917,0.4153838530192917
0.4078275041088851,0.4078275041088851
0.32659675332201354,0.32659675332201354
0.20947334521071037,0.20947334521071037
0.12304760454793424,0.12304760454793424
0.09282220890630763,0.09282220890630763
0.0829045009613989,0.0829045009613989
0.03756640749895896,0.03756640749895896
-0.06019385652942714,-0.06019385652942714
-0.1773172646407303,-0.1773172646407303
-0.27035481060011224,-0.27035481060011224
-0.3251383402005605,-0.3251383402005605
-0.35253010500078463,-0.35253010500078463
-0.3648091719801954,-0.3648091719801954
-0.37094870546990083,-0.37094870546990083
-0.37756051076650665,-0.37756051076650665
-0.3898395777459175,-0.3898395777459175
-0.40353546014602953,-0.40353546014602953
-0.41109180905643616,-0.41109180905643616
-0.4115640808633366,-0.4115640808633366
-0.4162867989323408,-0.4162867989323408
-0.42714905049105034,-0.42714905049105034
-0.44226174831186366,-0.44226174831186366
-0.44273402011876406,-0.44273402011876406
-0.4389558456635607,-0.4389558456635607
-0.42809359410485115,-0.42809359410485115
-0.4323440403669549,-0.4323440403669549
-0.44226174831186366,-0.44226174831186366
-0.4583189897464778,-0.4583189897464778
-0.4677644258844861,-0.4677644258844861
-0.46304170781548193,-0.46304170781548193
-0.4384835738566603,-0.4384835738566603
-0.4143977117047391,-0.4143977117047391
-0.4380113020497599,-0.4380113020497599
-0.5428556431816522,-0.5428556431816522
-0.6916212623552833,-0.6916212623552833
-0.7723797413352544,-0.7723797413352544
-0.6684799438171629,-0.6684799438171629
-0.3317501454971663,-0.3317501454971663
0.20286153991410455,0.20286153991410455
0.8989901832853177,0.8989901832853177
1.7939452573616057,1.7939452573616057
2.952427999688326,2.952427999688326
4.253064555892072,4.253064555892072
5.253808514714054,5.253808514714054
5.412964113639494,5.412964113639494
4.559568958570442,4.559568958570442
3.0903313673032478,3.0903313673032478
1.653208258905282,1.653208258905282
0.6647433670627113,0.6647433670627113
0.15657890283786377,0.15657890283786377
-0.043664343287912584,-0.043664343287912584
-0.10553194999186707,-0.10553194999186707
-0.1333959865989916,-0.1333959865989916
-0.17070545934412448,-0.17070545934412448
-0.21226537835136108,-0.21226537835136108
-0.23776805592398353,-0.23776805592398353
-0.2491025792895935,-0.2491025792895935
-0.257603471813801,-0.257603471813801
-0.2665766361449089,-0.2665766361449089
-0.27082708240701264,-0.27082708240701264
-0.2731884414415147,-0.2731884414415147
-0.27980024673812054,-0.27980024673812054
-0.2816893339657222,-0.2816893339657222
-0.27885570312431973,-0.27885570312431973
-0.2651598207242077,-0.2651598207242077
-0.2580757436207014,-0.2580757436207014
-0.24768576386889227,-0.24768576386889227
-0.2457966766412906,-0.2457966766412906
-0.24390758941368895,-0.24390758941368895
-0.24296304579988812,-0.24296304579988812
-0.23540669688948146,-0.23540669688948146
-0.22218308629626982,-0.22218308629626982
-0.2103762911237594,-0.2103762911237594
-0.2065981166685561,-0.2065981166685561
-0.20612584486165567,-0.20612584486165567
-0.20234767040645235,-0.20234767040645235
-0.19242996246154362,-0.19242996246154362
-0.18487361355113696,-0.18487361355113696
-0.18062316728903322,-0.18062316728903322
-0.17495590560622823,-0.17495590560622823
-0.15984320778541491,-0.15984320778541491
-0.13953552008869702,-0.13953552008869702
-0.12347827865408288,-0.12347827865408288
-0.11686647335747706,-0.11686647335747706
-0.10883785264016999,-0.10883785264016999
-0.0913637957848546,-0.0913637957848546
-0.06349975917773006,-0.06349975917773006
-0.03469117895680468,-0.03469117895680468
-0.0068271423496801395,-0.0068271423496801395
0.022925981485046067,0.022925981485046067
0.05881863880947768,0.05881863880947768
0.09943401420291345,0.09943401420291345
0.1457166512791542,0.1457166512791542
0.1986110936520008,0.1986110936520008
0.2571727977076524,0.2571727977076524
0.3081781528528973,0.3081781528528973
0.34265399475662767,0.34265399475662767
0.3639062260671464,0.3639062260671464
0.39318707809497216,0.39318707809497216
0.4389974433643125,0.4389974433643125
0.4918918857371591,0.4918918857371591
0.534868620165097,0.534868620165097
0.5641494721929228,0.5641494721929228
0.584929431696541,0.584929431696541
0.5990975859035536,0.5990975859035536
0.6047648475863585,0.6047648475863585
0.6057093912001593,0.6057093912001593
0.6071262066208606,0.6071262066208606
0.6066539348139601,0.6066539348139601
0.5957916832552506,0.5957916832552506
0.5707612774895285,0.5707612774895285
0.5358131637788978,0.5358131637788978
0.4985036910337649,0.4985036910337649
0.45741604383342876,0.45741604383342876
0.4064106886881838,0.4064106886881838
0.3435985383704285,0.3435985383704285
0.2746468545629678,0.2746468545629678
0.20616744256240746,0.20616744256240746
0.13863257417564798,0.13863257417564798
0.07156997759578891,0.07156997759578891
0.009230099084934003,0.009230099084934003
-0.04885933316381716,-0.04885933316381716
-0.10505967818496666,-0.10505967818496666
-0.15795412055781324,-0.15795412055781324
-0.19762495233744817,-0.19762495233744817
-0.2245444453307719,-0.2245444453307719
-0.2509916665171952,-0.2509916665171952
-0.28830113926232803,-0.28830113926232803
-0.3246660683936601,-0.3246660683936601
-0.3463905715110792,-0.3463905715110792
-0.3520578331938842,-0.3520578331938842
-0.35394692042148584,-0.35394692042148584
-0.35347464861458544,-0.35347464861458544
-0.35064101777318296,-0.35064101777318296
-0.3459182997041788,-0.3459182997041788
-0.34733511512488,-0.34733511512488
-0.3563082794559879,-0.3563082794559879
-0.37142097727680123,-0.37142097727680123
-0.3874782187114154,-0.3874782187114154
-0.3988127420770254,-0.3988127420770254
-0.398340470270125,-0.398340470270125
-0.38700594690451495,-0.38700594690451495
-0.3761436953458054,-0.3761436953458054
-0.3747268799251042,-0.3747268799251042
-0.3789773261872079,-0.3789773261872079
-0.3808664134148096,-0.3808664134148096
-0.375671423538905,-0.375671423538905
-0.3652814437870958,-0.3652814437870958
-0.35394692042148584,-0.35394692042148584
-0.3478073869317804,-0.3478073869317804
-0.35016874596628256,-0.35016874596628256
-0.3553637358421871,-0.3553637358421871
-0.35111328958008337,-0.35111328958008337
-0.3374174071799713,-0.3374174071799713
-0.32797197104196296,-0.32797197104196296
-0.3341115045316684,-0.3341115045316684
-0.3459182997041788,-0.3459182997041788
-0.3487519305455813,-0.3487519305455813
-0.3402510380213738,-0.3402510380213738
-0.33316696091786757,-0.33316696091786757
-0.3284442428488634,-0.3284442428488634
-0.3067197397314443,-0.3067197397314443
-0.2514639383240956,-0.2514639383240956
-0.1744836337993278,-0.1744836337993278
-0.11072693986777164,-0.11072693986777164
-0.08002927241924461,-0.08002927241924461
-0.06916702086053504,-0.06916702086053504
-0.04885933316381716,-0.04885933316381716
-0.011077588611783883,-0.011077588611783883
0.03426050485065605,0.03426050485065605
0.07393133663029099,0.07393133663029099
0.10604581949951927,0.10604581949951927
0.13721575875494674,0.13721575875494674
0.17594204692078083,0.17594204692078083
0.2250583148384241,0.2250583148384241
0.27086868010776444,0.27086868010776444
0.28031411624577274,0.28031411624577274
0.22930876110052784,0.22930876110052784
0.1277703226169384,0.1277703226169384
0.02575961232644856,0.02575961232644856
-0.0351634507637051,-0.0351634507637051
-0.06019385652942714,-0.06019385652942714
-0.09844787288836084,-0.09844787288836084
-0.1834567981304357,-0.1834567981304357
-0.2986911190141372,-0.2986911190141372
-0.3964513830425233,-0.3964513830425233
-0.4531239998705732,-0.4531239998705732
-0.4828771237052994,-0.4828771237052994
-0.510741160312424,-0.510741160312424
-0.5390774687264489,-0.5390774687264489
-0.5546624383541626,-0.5546624383541626
-0.5541901665472623,-0.5541901665472623
-0.5551347101610631,-0.5551347101610631
-0.5678860489473743,-0.5678860489473743
-0.5863046494164905,-0.5863046494164905
-0.5990559882028017,-0.5990559882028017
-0.6037787062718059,-0.6037787062718059
-0.611807326989113,-0.611807326989113
-0.617474588671918,-0.617474588671918
-0.6217250349340218,-0.6217250349340218
-0.6075568807270092,-0.6075568807270092
-0.5995282600097022,-0.5995282600097022
-0.5952778137475984,-0.5952778137475984
-0.5990559882028017,-0.5990559882028017
-0.5933887265199967,-0.5933887265199967
-0.5768592132784822,-0.5768592132784822
-0.5560792537748639,-0.5560792537748639
-0.5452170022161543,-0.5452170022161543
-0.5631633308783701,-0.5631633308783701
-0.6297536556513288,-0.6297536556513288
-0.749238422797134,-0.749238422797134
-0.8706122771705409,-0.8706122771705409
-0.889975421253458,-0.889975421253458
-0.6991776112656899,-0.6991776112656899
-0.2717716260208135,-0.2717716260208135
0.35162715908773556,0.35162715908773556
1.1554337744322434,1.1554337744322434
2.2057662729787686,2.2057662729787686
3.5092364600239163,3.5092364600239163
4.799483036475853,4.799483036475853
5.551812024868216,5.551812024868216
5.335983809114726,5.335983809114726
4.18269605666391,4.18269605666391
2.603891406195819,2.603891406195819
1.2149400221016957,1.2149400221016957
0.346432169211831,0.346432169211831
-0.05122069219831924,-0.05122069219831924
-0.198569495951249,-0.198569495951249
-0.2651598207242077,-0.2651598207242077
-0.3048306525038426,-0.3048306525038426
-0.32986105826956463,-0.32986105826956463
-0.3520578331938842,-0.3520578331938842
-0.38370004425621207,-0.38370004425621207
-0.4162867989323408,-0.4162867989323408
-0.4408449328911624,-0.4408449328911624
-0.45217945625677236,-0.45217945625677236
-0.45359627167747363,-0.45359627167747363
-0.4493458254153699,-0.4493458254153699
-0.4441508355394653,-0.4441508355394653
-0.44509537915326614,-0.44509537915326614
-0.4389558456635607,-0.4389558456635607
-0.4318717685600545,-0.4318717685600545
-0.41770361435304204,-0.41770361435304204
-0.4143977117047391,-0.4143977117047391
-0.4058968191805316,-0.4058968191805316
-0.39267320858731997,-0.39267320858731997
-0.37425460811820377,-0.37425460811820377
-0.3610309975249921,-0.3610309975249921
-0.3567805512628884,-0.3567805512628884
-0.35961418210429086,-0.35961418210429086
-0.3638646283663946,-0.3638646283663946
-0.36197554113879293,-0.36197554113879293
-0.3492242023524817,-0.3492242023524817
-0.33316696091786757,-0.33316696091786757
-0.32749969923506256,-0.32749969923506256
-0.333639232724768,-0.333639232724768
-0.3341115045316684,-0.3341115045316684
-0.3152206322556518,-0.3152206322556518
-0.28593978022782596,-0.28593978022782596
-0.2665766361449089,-0.2665766361449089
-0.2627984616897056,-0.2627984616897056
-0.2604371026552035,-0.2604371026552035
-0.24343531760678852,-0.24343531760678852
-0.215571280999664,-0.215571280999664
-0.18817951619943987,-0.18817951619943987
-0.16503819766131947,-0.16503819766131947
-0.13906324828179661,-0.13906324828179661
-0.10553194999186707,-0.10553194999186707
-0.06916702086053504,-0.06916702086053504
-0.03421890714990426,-0.03421890714990426
0.005924196436631091,0.005924196436631091
0.05551273616117477,0.05551273616117477
0.10887945034092177,0.10887945034092177
0.15280072838266046,0.15280072838266046
0.18869338570709207,0.18869338570709207
0.22694740206602576,0.22694740206602576
0.2737023109491669,0.2737023109491669
0.3204572198323081,0.3204572198323081
0.3549330617360385,0.3549330617360385
0.37807438027415885,0.37807438027415885
0.4002711551984784,0.4002711551984784
0.42530156096420046,0.42530156096420046
0.44372016143331666,0.44372016143331666
0.4498596949230221,0.4498596949230221
0.4498596949230221,0.4498596949230221
0.45222105395752416,0.45222105395752416
0.453165597571325,0.453165597571325
0.441831074205715,0.441831074205715
0.41113340675718796,0.41113340675718796
0.36579531329474807,0.36579531329474807
0.31101178369429977,0.31101178369429977
0.25339462325244905,0.25339462325244905
0.19766655003819997,0.19766655003819997
0.14146620501705046,0.14146620501705046
0.07818178289239473,0.07818178289239473
0.004035109209029428,0.004035109209029428
-0.07152837989503713,-0.07152837989503713
-0.13953552008869702,-0.13953552008869702
-0.19762495233744817,-0.19762495233744817
-0.25004712290339437,-0.25004712290339437
-0.2991633908210376,-0.2991633908210376
-0.34166785344207506,-0.34166785344207506
-0.375671423538905,-0.375671423538905
-0.40400773195292994,-0.40400773195292994
-0.42856586591175155,-0.42856586591175155
-0.4498180972222703,-0.4498180972222703
-0.4639862514292828,-0.4639862514292828
-0.4705980567258886,-0.4705980567258886
-0.4715426003396894,-0.4715426003396894
-0.4743762311810919,-0.4743762311810919
-0.4790989492500961,-0.4790989492500961
-0.4828771237052994,-0.4828771237052994
-0.4805157646707973,-0.4805157646707973
-0.4739039593741915,-0.4739039593741915
-0.46823669769138654,-0.46823669769138654
-0.46587533865688446,-0.46587533865688446
-0.4644585232361832,-0.4644585232361832
-0.46304170781548193,-0.46304170781548193
-0.4649307950430836,-0.4649307950430836
-0.471070328532789,-0.471070328532789
-0.47579304660179317,-0.47579304660179317
-0.47532077479489276,-0.47532077479489276
-0.4715426003396894,-0.4715426003396894
-0.4701257849189882,-0.4701257849189882
-0.4701257849189882,-0.4701257849189882
-0.46681988227068527,-0.46681988227068527
-0.4583189897464778,-0.4583189897464778
-0.4474567381877682,-0.4474567381877682
-0.4375390302428595,-0.4375390302428595
-0.4304549531393532,-0.4304549531393532
-0.42667677868414994,-0.42667677868414994
-0.41770361435304204,-0.41770361435304204
-0.3893673059390171,-0.3893673059390171
-0.33316696091786757,-0.33316696091786757
-0.2571312000069006,-0.2571312000069006
-0.18156771090283405,-0.18156771090283405
-0.1272564531092862,-0.1272564531092862
-0.09561424204695834,-0.09561424204695834
-0.0738897389295392,-0.0738897389295392
-0.04271979967411175,-0.04271979967411175
0.0035628374021290116,0.0035628374021290116
0.05409592074047352,0.05409592074047352
0.08668267541660221,0.08668267541660221
0.09376675252010845,0.09376675252010845
0.0890440344511043,0.0890440344511043
0.10037855781671429,0.10037855781671429
0.1367434869480463,0.1367434869480463
0.18160930860358582,0.18160930860358582
0.19624973461749873,0.19624973461749873
0.15563435922406293,0.15563435922406293
0.06873634675438642,0.06873634675438642
-0.02099529655669262,-0.02099529655669262
-0.07341746712263879,-0.07341746712263879
-0.08900243675035252,-0.08900243675035252
-0.11261602709537331,-0.11261602709537331
-0.18392906993733613,-0.18392906993733613
-0.2982188472072368,-0.2982188472072368
-0.41061953724953576,-0.41061953724953576
-0.4828771237052994,-0.4828771237052994
-0.5116857039262248,-0.5116857039262248
-0.524437042712536,-0.524437042712536
-0.541438827760951,-0.541438827760951
-0.5641078744921709,-0.5641078744921709
-0.5811096595405859,-0.5811096595405859
-0.5858323776095901,-0.5858323776095901
-0.583471018575088,-0.583471018575088
-0.5815819313474864,-0.5815819313474864
-0.5844155621888888,-0.5844155621888888
-0.5914996392923951,-0.5914996392923951
-0.600472803623503,-0.600472803623503
-0.6018896190442042,-0.6018896190442042
-0.6018896190442042,-0.6018896190442042
-0.594805541940698,-0.594805541940698
-0.5962223573613993,-0.5962223573613993
-0.5910273674854947,-0.5910273674854947
-0.589138280257893,-0.589138280257893
-0.589138280257893,-0.589138280257893
-0.5952778137475984,-0.5952778137475984
-0.5966946291682996,-0.5966946291682996
-0.5896105520647934,-0.5896105520647934
-0.5820542031543867,-0.5820542031543867
-0.5863046494164905,-0.5863046494164905
-0.6188914040926192,-0.6188914040926192
-0.6963439804242875,-0.6963439804242875
-0.7955210598733747,-0.7955210598733747
-0.8181901066045948,-0.8181901066045948
-0.644866353472142,-0.644866353472142
-0.23304533785497938,-0.23304533785497938
0.3728793903982543,0.3728793903982543
1.1568505898529446,1.1568505898529446
2.1821526826337476,2.1821526826337476
3.4478411251268626,3.4478411251268626
4.6677192023506375,4.6677192023506375
5.306230685279999,5.306230685279999
4.956749548173692,4.956749548173692
3.734510111915415,3.734510111915415
2.225601688868586,2.225601688868586
1.0203640376587244,1.0203640376587244
0.3171513171840052,0.3171513171840052
-0.022412111977393866,-0.022412111977393866
-0.18581815716493777,-0.18581815716493777
-0.25949255904140267,-0.25949255904140267
-0.2873565956485272,-0.2873565956485272
-0.30955337057284676,-0.30955337057284676
-0.3430846688627763,-0.3430846688627763
-0.3718932490837017,-0.3718932490837017
-0.3912563931666187,-0.3912563931666187
-0.40353546014602953,-0.40353546014602953
-0.4077859064081333,-0.4077859064081333
-0.40117410111152746,-0.40117410111152746
-0.39456229581492164,-0.39456229581492164
-0.40022955749772665,-0.40022955749772665
-0.40353546014602953,-0.40353546014602953
-0.3988127420770254,-0.3988127420770254
-0.3818109570286104,-0.3818109570286104
-0.3761436953458054,-0.3761436953458054
-0.36905961824229916,-0.36905961824229916
-0.36292008475259374,-0.36292008475259374
-0.35111328958008337,-0.35111328958008337
-0.34166785344207506,-0.34166785344207506
-0.3341115045316684,-0.3341115045316684
-0.32608288381436135,-0.32608288381436135
-0.3156929040625522,-0.3156929040625522
-0.3043583806969422,-0.3043583806969422
-0.29349612913823264,-0.29349612913823264
-0.28546750842092555,-0.28546750842092555
-0.2826338775795231,-0.2826338775795231
-0.2826338775795231,-0.2826338775795231
-0.2783834313174193,-0.2783834313174193
-0.26893799517941097,-0.26893799517941097
-0.25902028723450227,-0.25902028723450227
-0.25288075374479685,-0.25288075374479685
-0.24390758941368895,-0.24390758941368895
-0.22926716339977604,-0.22926716339977604
-0.21084856293065982,-0.21084856293065982
-0.1952635933029461,-0.1952635933029461
-0.17637272102692947,-0.17637272102692947
-0.14992549984050618,-0.14992549984050618
-0.11733874516437746,-0.11733874516437746
-0.0856965341020496,-0.0856965341020496
-0.05499886665352256,-0.05499886665352256
-0.02288438378429428,-0.02288438378429428
0.011591458119436083,0.011591458119436083
0.04842865905766853,0.04842865905766853
0.0918776652925068,0.0918776652925068
0.1419384768239509,0.1419384768239509
0.19483291919679746,0.19483291919679746
0.24347691530754031,0.24347691530754031
0.28928728057688063,0.28928728057688063
0.3327362868117189,0.3327362868117189
0.3709903031706526,0.3709903031706526
0.3993266115846776,0.3993266115846776
0.4215233865089971,0.4215233865089971
0.44324788962641626,0.44324788962641626
0.46733375177833747,0.46733375177833747
0.4885859830888562,0.4885859830888562
0.500865050068267,0.500865050068267
0.5041709527165699,0.5041709527165699
0.5003927782613666,0.5003927782613666
0.4914196139302587,0.4914196139302587
0.4744178288818437,0.4744178288818437
0.44608152046781874,0.44608152046781874
0.4068829604950842,0.4068829604950842
0.3615448670326443,0.3615448670326443
0.31242859911500104,0.31242859911500104
0.2576450695145528,0.2576450695145528
0.19247156016229539,0.19247156016229539
0.11643579925132842,0.11643579925132842
0.03709413569205854,0.03709413569205854
-0.03846935341200801,-0.03846935341200801
-0.10600422179876749,-0.10600422179876749
-0.16645501308202074,-0.16645501308202074
-0.2188771836479669,-0.2188771836479669
-0.2627984616897056,-0.2627984616897056
-0.29727430359343593,-0.29727430359343593
-0.3218324375522576,-0.3218324375522576
-0.3383619507937721,-0.3383619507937721
-0.3548914640352867,-0.3548914640352867
-0.37708823895960625,-0.37708823895960625
-0.40117410111152746,-0.40117410111152746
-0.41298089628403784,-0.41298089628403784
-0.41109180905643616,-0.41109180905643616
-0.40920272182883455,-0.40920272182883455
-0.4200649733875441,-0.4200649733875441
-0.43517767120835743,-0.43517767120835743
-0.440372661084262,-0.440372661084262
-0.43328858398075576,-0.43328858398075576
-0.4257322350703491,-0.4257322350703491
-0.4238431478427474,-0.4238431478427474
-0.42478769145654827,-0.42478769145654827
-0.42431541964964786,-0.42431541964964786
-0.4257322350703491,-0.4257322350703491
-0.4318717685600545,-0.4318717685600545
-0.440372661084262,-0.440372661084262
-0.44178947650496325,-0.44178947650496325
-0.43470539940145697,-0.43470539940145697
-0.42478769145654827,-0.42478769145654827
-0.4200649733875441,-0.4200649733875441
-0.42195406061514573,-0.42195406061514573
-0.42667677868414994,-0.42667677868414994
-0.4309272249462537,-0.4309272249462537
-0.4309272249462537,-0.4309272249462537
-0.4224263324220462,-0.4224263324220462
-0.406369090987432,-0.406369090987432
-0.38606140329071414,-0.38606140329071414
-0.3577250948766892,-0.3577250948766892
-0.31097018599354803,-0.31097018599354803
-0.24296304579988812,-0.24296304579988812
-0.17212227476482572,-0.17212227476482572
-0.12064464781268039,-0.12064464781268039
-0.09372515481935667,-0.09372515481935667
-0.07152837989503713,-0.07152837989503713
-0.03469117895680468,-0.03469117895680468
0.01867553522294232,0.01867553522294232
0.06543044410608351,0.06543044410608351
0.08668267541660221,0.08668267541660221
0.08243222915449848,0.08243222915449848
0.08195995734759806,0.08195995734759806
0.11076853756852344,0.11076853756852344
0.16696888258967293,0.16696888258967293
0.2108901606314116,0.2108901606314116
0.20097245268650288,0.20097245268650288
0.12871486623073924,0.12871486623073924
0.030954602202353135,0.030954602202353135
-0.04460888690171341,-0.04460888690171341
-0.07483428254334004,-0.07483428254334004
-0.08333517506754752,-0.08333517506754752
-0.11497738612987539,-0.11497738612987539
-0.19904176775814944,-0.19904176775814944
-0.316637447676353,-0.316637447676353
-0.42431541964964786,-0.42431541964964786
-0.49373937526400896,-0.49373937526400896
-0.5315211198160422,-0.5315211198160422
-0.5541901665472623,-0.5541901665472623
-0.5683583207542747,-0.5683583207542747
-0.5749701260508805,-0.5749701260508805
-0.5806373877336856,-0.5806373877336856
-0.5900828238716939,-0.5900828238716939
-0.5971669009752001,-0.5971669009752001
-0.594805541940698,-0.594805541940698
-0.5910273674854947,-0.5910273674854947
-0.5976391727821004,-0.5976391727821004
-0.6089736961477105,-0.6089736961477105
-0.6170023168650175,-0.6170023168650175
-0.6099182397615113,-0.6099182397615113
-0.6037787062718059,-0.6037787062718059
-0.5929164547130963,-0.5929164547130963
-0.5910273674854947,-0.5910273674854947
-0.5910273674854947,-0.5910273674854947
-0.5952778137475984,-0.5952778137475984
-0.5957500855544988,-0.5957500855544988
-0.589138280257893,-0.589138280257893
-0.5773314850853826,-0.5773314850853826
-0.5707196797887768,-0.5707196797887768
-0.5914996392923951,-0.5914996392923951
-0.6566731486446525,-0.6566731486446525
-0.7525443254454369,-0.7525443254454369
-0.8181901066045948,-0.8181901066045948
-0.763878848811047,-0.763878848811047
-0.5083798012779219,-0.5083798012779219
-0.0323298199223026,-0.0323298199223026
0.6331011560003835,0.6331011560003835
1.4850794956487336,1.4850794956487336
2.5741382823610928,2.5741382823610928
3.8270753860678965,3.8270753860678965
4.857572468724604,4.857572468724604
5.114488331678431,5.114488331678431
4.369715692196475,4.369715692196475
2.9798197644885502,2.9798197644885502
1.5913406522013274,1.5913406522013274
0.6269616225106781,0.6269616225106781
0.11312989660302551,0.11312989660302551
-0.12158919142648121,-0.12158919142648121
-0.22076627087556858,-0.22076627087556858
-0.2651598207242077,-0.2651598207242077
-0.29727430359343593,-0.29727430359343593
-0.33600059175927005,-0.33600059175927005
-0.3747268799251042,-0.3747268799251042
-0.4025909165322287,-0.4025909165322287
-0.4148699835116395,-0.4148699835116395
-0.41770361435304204,-0.41770361435304204
-0.41770361435304204,-0.41770361435304204
-0.41864815796684285,-0.41864815796684285
-0.41912042977374325,-0.41912042977374325
-0.41250862447713743,-0.41250862447713743
-0.4073136346012329,-0.4073136346012329
-0.3992850138839258,-0.3992850138839258
-0.3978681984632245,-0.3978681984632245
-0.3903118495528179,-0.3903118495528179
-0.38606140329071414,-0.38606140329071414
-0.3761436953458054,-0.3761436953458054
-0.3662259874008967,-0.3662259874008967
-0.3577250948766892,-0.3577250948766892
-0.35064101777318296,-0.35064101777318296
-0.3407233098282742,-0.3407233098282742
-0.3256106120074609,-0.3256106120074609
-0.30955337057284676,-0.30955337057284676
-0.30058020624173887,-0.30058020624173887
-0.2977465754003364,-0.2977465754003364
-0.2977465754003364,-0.2977465754003364
-0.29727430359343593,-0.29727430359343593
-0.29444067275203345,-0.29444067275203345
-0.28641205203472636,-0.28641205203472636
-0.274605256862216,-0.274605256862216
-0.26232618988280515,-0.26232618988280515
-0.2542975691654981,-0.2542975691654981
-0.24721349206199186,-0.24721349206199186
-0.23493442508258106,-0.23493442508258106
-0.2127376501582615,-0.2127376501582615
-0.18440134174423653,-0.18440134174423653
-0.15512048971641074,-0.15512048971641074
-0.12678418130238578,-0.12678418130238578
-0.09561424204695834,-0.09561424204695834
-0.061138400143227974,-0.061138400143227974
-0.02430119920499553,-0.02430119920499553
0.013008273540137331,0.013008273540137331
0.05456819254737393,0.05456819254737393
0.10179537323741553,0.10179537323741553
0.15043936934815838,0.15043936934815838
0.1957774628105983,0.1957774628105983
0.2401710126592374,0.2401710126592374
0.2878704651561794,0.2878704651561794
0.335097645846221,0.335097645846221
0.3738239340120551,0.3738239340120551
0.4002711551984784,0.4002711551984784
0.41963429928139545,0.41963429928139545
0.43758062794361124,0.43758062794361124
0.45458241299202623,0.45458241299202623
0.46686147997143707,0.46686147997143707
0.4711119262335408,0.4711119262335408
0.46733375177833747,0.46733375177833747
0.4593051310610304,0.4593051310610304
0.44891515130922127,0.44891515130922127
0.43616381252291003,0.43616381252291003
0.41680066843999297,0.41680066843999297
0.38421391376386427,0.38421391376386427
0.33651446126692225,0.33651446126692225
0.2741745827560674,0.2741745827560674
0.20286153991410455,0.20286153991410455
0.1277703226169384,0.1277703226169384
0.05409592074047352,0.05409592074047352
-0.01485576306698721,-0.01485576306698721
-0.07766791338474253,-0.07766791338474253
-0.1362296174403941,-0.1362296174403941
-0.19290223426844402,-0.19290223426844402
-0.2481580356757927,-0.2481580356757927
-0.2963297599796351,-0.2963297599796351
-0.3312778736902659,-0.3312778736902659
-0.35111328958008337,-0.35111328958008337
-0.3638646283663946,-0.3638646283663946
-0.37708823895960625,-0.37708823895960625
-0.39409002400802123,-0.39409002400802123
-0.4077859064081333,-0.4077859064081333
-0.4153422553185399,-0.4153422553185399
-0.41864815796684285,-0.41864815796684285
-0.42667677868414994,-0.42667677868414994
-0.4394281174704611,-0.4394281174704611
-0.4531239998705732,-0.4531239998705732
-0.4583189897464778,-0.4583189897464778
-0.45123491264297155,-0.45123491264297155
-0.43706675843595905,-0.43706675843595905
-0.429038137718652,-0.429038137718652
-0.43470539940145697,-0.43470539940145697
-0.4484012818015691,-0.4484012818015691
-0.4531239998705732,-0.4531239998705732
-0.44226174831186366,-0.44226174831186366
-0.42762132229795075,-0.42762132229795075
-0.423370876035847,-0.423370876035847
-0.4304549531393532,-0.4304549531393532
-0.43659448662905864,-0.43659448662905864
-0.43423312759455657,-0.43423312759455657
-0.42525996326344867,-0.42525996326344867
-0.41581452712544037,-0.41581452712544037
-0.412036352670237,-0.412036352670237
-0.4153422553185399,-0.4153422553185399
-0.4200649733875441,-0.4200649733875441
-0.41581452712544037,-0.41581452712544037
-0.4025909165322287,-0.4025909165322287
-0.38653367509761455,-0.38653367509761455
-0.36150326933189253,-0.36150326933189253
-0.31238700141424924,-0.31238700141424924
-0.2363512405032823,-0.2363512405032823
-0.15795412055781324,-0.15795412055781324
-0.10505967818496666,-0.10505967818496666
-0.07861245699854336,-0.07861245699854336
-0.05263750761902049,-0.05263750761902049
-0.007299414156580555,-0.007299414156580555
0.050790018092170604,0.050790018092170604
0.09376675252010845,0.09376675252010845
0.10557354769261885,0.10557354769261885
0.09565583974771012,0.09565583974771012
0.09660038336151096,0.09660038336151096
0.12918713803763965,0.12918713803763965
0.1872765702863908,0.1872765702863908
0.22978103290742824,0.22978103290742824
0.21844650954181827,0.21844650954181827
0.14429983585845296,0.14429983585845296
0.042761397374863536,0.042761397374863536
-0.03941389702580884,-0.03941389702580884
-0.07908472880544377,-0.07908472880544377
-0.10080923192286291,-0.10080923192286291
-0.145202781771502,-0.145202781771502
-0.23162852243427812,-0.23162852243427812
-0.33647286356617045,-0.33647286356617045
-0.4228986042289466,-0.4228986042289466
-0.4734316875672911,-0.4734316875672911
-0.5031848114020173,-0.5031848114020173
-0.5286874889746398,-0.5286874889746398
-0.5523010793196605,-0.5523010793196605
-0.5674137771404739,-0.5674137771404739
-0.5759146696646814,-0.5759146696646814
-0.5820542031543867,-0.5820542031543867
-0.5877214648371918,-0.5877214648371918
-0.5900828238716939,-0.5900828238716939
-0.5929164547130963,-0.5929164547130963
-0.6009450754304034,-0.6009450754304034
-0.6056677934994076,-0.6056677934994076
-0.6066123371132084,-0.6066123371132084
-0.5981114445890009,-0.5981114445890009
-0.5971669009752001,-0.5971669009752001
-0.5905550956785942,-0.5905550956785942
-0.5844155621888888,-0.5844155621888888
-0.5735533106301792,-0.5735533106301792
-0.5674137771404739,-0.5674137771404739
-0.5659969617197727,-0.5659969617197727
-0.5674137771404739,-0.5674137771404739
-0.5707196797887768,-0.5707196797887768
-0.5773314850853826,-0.5773314850853826
-0.6051955216925071,-0.6051955216925071
-0.6769808363413704,-0.6769808363413704
-0.7780470030180594,-0.7780470030180594
-0.8125228449217897,-0.8125228449217897
-0.6647017693619596,-0.6647017693619596
-0.2906624982968301,-0.2906624982968301
0.2656736902318599,0.2656736902318599
0.9877772829825957,0.9877772829825957
1.9417663329214359,1.9417663329214359
3.1427535378691935,3.1427535378691935
4.342323927396251,4.342323927396251
5.037508027153663,5.037508027153663
4.810817559841463,4.810817559841463
3.7170360550600994,3.7170360550600994
2.2751902285931296,2.2751902285931296
1.062868500279762,1.062868500279762
0.3232908506737106,0.3232908506737106
-0.03469117895680468,-0.03469117895680468
-0.19431904968914526,-0.19431904968914526
-0.2627984616897056,-0.2627984616897056
-0.2920793137175314,-0.2920793137175314
-0.316637447676353,-0.316637447676353
-0.35253010500078463,-0.35253010500078463
-0.38653367509761455,-0.38653367509761455
-0.406369090987432,-0.406369090987432
-0.41298089628403784,-0.41298089628403784
-0.4148699835116395,-0.4148699835116395
-0.4143977117047391,-0.4143977117047391
-0.41250862447713743,-0.41250862447713743
-0.41014726544263536,-0.41014726544263536
-0.40070182930462706,-0.40070182930462706
-0.39220093678041956,-0.39220093678041956
-0.3789773261872079,-0.3789773261872079
-0.3733100645044029,-0.3733100645044029
-0.36292008475259374,-0.36292008475259374
-0.3553637358421871,-0.3553637358421871
-0.34402921247657714,-0.34402921247657714
-0.33552831995236965,-0.33552831995236965
-0.3317501454971663,-0.3317501454971663
-0.3312778736902659,-0.3312778736902659
-0.32702742742816215,-0.32702742742816215
-0.3161651758694526,-0.3161651758694526
-0.30341383708314135,-0.30341383708314135
-0.29444067275203345,-0.29444067275203345
-0.2892456828761289,-0.2892456828761289
-0.28593978022782596,-0.28593978022782596
-0.2845229648071247,-0.2845229648071247
-0.2821616057726226,-0.2821616057726226
-0.2741329850553156,-0.2741329850553156
-0.257603471813801,-0.257603471813801
-0.23824032773088397,-0.23824032773088397
-0.22359990171697106,-0.22359990171697106
-0.21368219377206232,-0.21368219377206232
-0.20093085498575108,-0.20093085498575108
-0.17967862367523238,-0.17967862367523238
-0.15134231526120742,-0.15134231526120742
-0.12158919142648121,-0.12158919142648121
-0.09278061120555584,-0.09278061120555584
-0.06302748737082964,-0.06302748737082964
-0.030440732694700937,-0.030440732694700937
0.00497965282283026,0.00497965282283026
0.04228912556796312,0.04228912556796312
0.0829045009613989,0.0829045009613989
0.12635350719623717,0.12635350719623717
0.17027478523797585,0.17027478523797585
0.20947334521071037,0.20947334521071037
0.24489373072824155,0.24489373072824155
0.27984184443887233,0.27984184443887233
0.3162067735702044,0.3162067735702044
0.35257170270153637,0.35257170270153637
0.38326937015006346,0.38326937015006346
0.4059384168812834,0.4059384168812834
0.41916202747449505,0.41916202747449505
0.4290797354194038,0.4290797354194038
0.4385251715574121,0.4385251715574121
0.4465537922747192,0.4465537922747192
0.4465537922747192,0.4465537922747192
0.4389974433643125,0.4389974433643125
0.4267183763849017,0.4267183763849017
0.4087720477226859,0.4087720477226859
0.3761852930465572,0.3761852930465572
0.32754129693581435,0.32754129693581435
0.27086868010776444,0.27086868010776444
0.21183470424521245,0.21183470424521245
0.14477210766535337,0.14477210766535337
0.06495817229918309,0.06495817229918309
-0.018161665715290123,-0.018161665715290123
-0.09183606759175501,-0.09183606759175501
-0.15512048971641074,-0.15512048971641074
-0.21415446557896273,-0.21415446557896273
-0.27082708240701264,-0.27082708240701264
-0.31947107851775547,-0.31947107851775547
-0.3577250948766892,-0.3577250948766892
-0.38653367509761455,-0.38653367509761455
-0.4073136346012329,-0.4073136346012329
-0.42478769145654827,-0.42478769145654827
-0.4441508355394653,-0.4441508355394653
-0.4677644258844861,-0.4677644258844861
-0.48665529816050274,-0.48665529816050274
-0.4913780162295069,-0.4913780162295069
-0.48476621093290106,-0.48476621093290106
-0.4814603082845982,-0.4814603082845982
-0.4918502880364073,-0.4918502880364073
-0.5088520730848223,-0.5088520730848223
-0.5154638783814282,-0.5154638783814282
-0.5083798012779219,-0.5083798012779219
-0.501767995981316,-0.501767995981316
-0.5055461704365194,-0.5055461704365194
-0.5131025193469261,-0.5131025193469261
-0.5135747911538264,-0.5135747911538264
-0.5097966166986231,-0.5097966166986231
-0.5121579757331252,-0.5121579757331252
-0.5220756836780339,-0.5220756836780339
-0.5291597607815401,-0.5291597607815401
-0.5267984017470381,-0.5267984017470381
-0.5192420528366315,-0.5192420528366315
-0.5131025193469261,-0.5131025193469261
-0.5112134321193244,-0.5112134321193244
-0.5116857039262248,-0.5116857039262248
-0.5145193347676272,-0.5145193347676272
-0.5206588682573327,-0.5206588682573327
-0.5258538581332373,-0.5258538581332373
-0.5225479554849344,-0.5225479554849344
-0.5079075294710215,-0.5079075294710215
-0.48571075454670193,-0.48571075454670193
-0.4554853589050753,-0.4554853589050753
-0.40920272182883455,-0.40920272182883455
-0.3430846688627763,-0.3430846688627763
-0.2741329850553156,-0.2741329850553156
-0.22359990171697106,-0.22359990171697106
-0.1980972241443486,-0.1980972241443486
-0.1773172646407303,-0.1773172646407303
-0.14000779189559745,-0.14000779189559745
-0.0856965341020496,-0.0856965341020496
-0.03752480979820717,-0.03752480979820717
-0.013911219453186378,-0.013911219453186378
-0.011077588611783883,-0.011077588611783883
-0.004465783315178059,-0.004465783315178059
0.023870525098846896,0.023870525098846896
0.07818178289239473,0.07818178289239473
0.13154849707214172,0.13154849707214172
0.14429983585845296,0.14429983585845296
0.08573813180280139,0.08573813180280139
-0.021467568363593034,-0.021467568363593034
-0.11970010419887955,-0.11970010419887955
-0.16645501308202074,-0.16645501308202074
-0.18581815716493777,-0.18581815716493777
-0.23210079424117855,-0.23210079424117855
-0.3317501454971663,-0.3317501454971663
-0.45217945625677236,-0.45217945625677236
-0.5466338176368556,-0.5466338176368556
-0.5962223573613993,-0.5962223573613993
-0.6217250349340218,-0.6217250349340218
-0.6462831688928433,-0.6462831688928433
-0.6717858464654658,-0.6717858464654658
-0.6850094570586774,-0.6850094570586774
-0.6812312826034741,-0.6812312826034741
-0.670841302851665,-0.670841302851665
-0.6670631283964616,-0.6670631283964616
-0.6732026618861671,-0.6732026618861671
-0.684537185251777,-0.684537185251777
-0.6996498830725904,-0.6996498830725904
-0.7119289500520012,-0.7119289500520012
-0.7246802888383124,-0.7246802888383124
-0.7270416478728144,-0.7270416478728144
-0.7303475505211173,-0.7303475505211173
-0.7251525606452128,-0.7251525606452128
-0.7242080170314119,-0.7242080170314119
-0.7265693760659141,-0.7265693760659141
-0.7312920941349182,-0.7312920941349182
-0.7265693760659141,-0.7265693760659141
-0.7109844064382003,-0.7109844064382003
-0.6987053394587895,-0.6987053394587895
-0.7086230474036982,-0.7086230474036982
-0.7591561307420427,-0.7591561307420427
-0.8545550357359267,-0.8545550357359267
-0.9537321151850141,-0.9537321151850141
-0.9518430279574125,-0.9518430279574125
-0.7501829664109348,-0.7501829664109348
-0.33316696091786757,-0.33316696091786757
0.24394918711444072,0.24394918711444072
0.9802209340721891,0.9802209340721891
1.9606572051974527,1.9606572051974527
3.194231164821339,3.194231164821339
4.394746097962197,4.394746097962197
5.03467439631226,5.03467439631226
4.714946383040679,4.714946383040679
3.5408786710862445,3.5408786710862445
2.0640847309086436,2.0640847309086436
0.8522352744021765,0.8522352744021765
0.11643579925132842,0.11643579925132842
-0.24154623037918688,-0.24154623037918688
-0.3884227623252162,-0.3884227623252162
-0.42762132229795075,-0.42762132229795075
-0.4375390302428595,-0.4375390302428595
-0.4672921540775857,-0.4672921540775857
-0.5140470629607269,-0.5140470629607269
-0.5409665559540505,-0.5409665559540505
-0.543800186795453,-0.543800186795453
-0.5419110995678514,-0.5419110995678514
-0.5433279149885527,-0.5433279149885527
-0.5409665559540505,-0.5409665559540505
-0.541438827760951,-0.541438827760951
-0.5541901665472623,-0.5541901665472623
-0.5598574282300672,-0.5598574282300672
-0.5489951766713577,-0.5489951766713577
-0.5225479554849344,-0.5225479554849344
-0.5121579757331252,-0.5121579757331252
-0.5112134321193244,-0.5112134321193244
-0.5149916065745277,-0.5149916065745277
-0.5064907140503202,-0.5064907140503202
-0.4909057444226065,-0.4909057444226065
-0.47673759021559403,-0.47673759021559403
-0.46870896949828694,-0.46870896949828694
-0.4644585232361832,-0.4644585232361832
-0.45973580516717905,-0.45973580516717905
-0.45406854348437403,-0.45406854348437403
-0.4474567381877682,-0.4474567381877682
-0.4399003892773616,-0.4399003892773616
-0.4323440403669549,-0.4323440403669549
-0.42714905049105034,-0.42714905049105034
-0.4238431478427474,-0.4238431478427474
-0.41817588615994244,-0.41817588615994244
-0.406369090987432,-0.406369090987432
-0.3898395777459175,-0.3898395777459175
-0.3728377926975025,-0.3728377926975025
-0.3563082794559879,-0.3563082794559879
-0.3341115045316684,-0.3341115045316684
-0.30388610889004175,-0.30388610889004175
-0.26988253879321183,-0.26988253879321183
-0.23918487134468477,-0.23918487134468477
-0.21179310654446065,-0.21179310654446065
-0.17826180825453114,-0.17826180825453114
-0.1362296174403941,-0.1362296174403941
-0.08994698036415334,-0.08994698036415334
-0.044136615094813,-0.044136615094813
0.007813283664232755,0.007813283664232755
0.06590271591298391,0.06590271591298391
0.121630789127233,0.121630789127233
0.16744115439657334,0.16744115439657334
0.21183470424521245,0.21183470424521245
0.26236778758355694,0.26236778758355694
0.31290087092190144,0.31290087092190144
0.35115488728083516,0.35115488728083516
0.37524074943275637,0.37524074943275637
0.3917702626742709,0.3917702626742709
0.40452160146058214,0.40452160146058214
0.41680066843999297,0.41680066843999297
0.42719064819180214,0.42719064819180214
0.4319133662608063,0.4319133662608063
0.4205788428951963,0.4205788428951963
0.3993266115846776,0.3993266115846776
0.38374164195696386,0.38374164195696386
0.3761852930465572,0.3761852930465572
0.35162715908773556,0.35162715908773556
0.2907040959975819,0.2907040959975819
0.20380608352790539,0.20380608352790539
0.12021397370653175,0.12021397370653175
0.05220683351287186,0.05220683351287186
-0.006354870542779723,-0.006354870542779723
-0.06397203098463047,-0.06397203098463047
-0.12489509407478412,-0.12489509407478412
-0.1891240598132407,-0.1891240598132407
-0.2547698409723985,-0.2547698409723985
-0.3142760886418509,-0.3142760886418509
-0.35866963849049,-0.35866963849049
-0.3893673059390171,-0.3893673059390171
-0.4153422553185399,-0.4153422553185399
-0.4408449328911624,-0.4408449328911624
-0.4635139796223824,-0.4635139796223824
-0.47532077479489276,-0.47532077479489276
-0.47815440563629524,-0.47815440563629524
-0.47768213382939484,-0.47768213382939484
-0.482404851898399,-0.482404851898399
-0.4918502880364073,-0.4918502880364073
-0.4998789087537144,-0.4998789087537144
-0.5041293550158181,-0.5041293550158181
-0.5097966166986231,-0.5097966166986231
-0.5220756836780339,-0.5220756836780339
-0.5362438378850464,-0.5362438378850464
-0.5409665559540505,-0.5409665559540505
-0.5338824788505443,-0.5338824788505443
-0.5267984017470381,-0.5267984017470381
-0.5282152171677393,-0.5282152171677393
-0.5324656634298431,-0.5324656634298431
-0.5296320325884406,-0.5296320325884406
-0.5197143246435318,-0.5197143246435318
-0.5135747911538264,-0.5135747911538264
-0.5140470629607269,-0.5140470629607269
-0.5126302475400256,-0.5126302475400256
-0.499406636946814,-0.499406636946814
-0.4800434928638969,-0.4800434928638969
-0.4677644258844861,-0.4677644258844861
-0.46587533865688446,-0.46587533865688446
-0.46587533865688446,-0.46587533865688446
-0.4625694360085815,-0.4625694360085815
-0.46304170781548193,-0.46304170781548193
-0.471070328532789,-0.471070328532789
-0.47579304660179317,-0.47579304660179317
-0.46918124130518735,-0.46918124130518735
-0.45737444613267697,-0.45737444613267697
-0.4493458254153699,-0.4493458254153699
-0.43564994301525783,-0.43564994301525783
-0.39409002400802123,-0.39409002400802123
-0.31947107851775547,-0.31947107851775547
-0.23493442508258106,-0.23493442508258106
-0.1740113619924274,-0.1740113619924274
-0.14378596635080076,-0.14378596635080076
-0.12489509407478412,-0.12489509407478412
-0.0946696984331575,-0.0946696984331575
-0.0531097794259209,-0.0531097794259209
-0.01249440403248513,-0.01249440403248513
0.014897360767738994,0.014897360767738994
0.03189914581615397,0.03189914581615397
0.04890093086456894,0.04890093086456894
0.0829045009613989,0.0829045009613989
0.1362712151411459,0.1362712151411459
0.18633202667259,0.18633202667259
0.1896379293208929,0.1896379293208929
0.12918713803763965,0.12918713803763965
0.03378823304375563,0.03378823304375563
-0.04508115870861383,-0.04508115870861383
-0.08758562132965127,-0.08758562132965127
-0.11356057070917415,-0.11356057070917415
-0.16078775139921575,-0.16078775139921575
-0.24674122025509143,-0.24674122025509143
-0.3581973666835896,-0.3581973666835896
-0.4583189897464778,-0.4583189897464778
-0.5168806938021293,-0.5168806938021293
-0.5362438378850464,-0.5362438378850464
-0.5456892740230548,-0.5456892740230548
-0.5659969617197727,-0.5659969617197727
-0.5910273674854947,-0.5910273674854947
-0.6023618908511047,-0.6023618908511047
-0.6014173472373038,-0.6014173472373038
-0.600472803623503,-0.600472803623503
-0.60850142434081,-0.60850142434081
-0.6207804913202208,-0.6207804913202208
-0.6264477530030259,-0.6264477530030259
-0.6278645684237271,-0.6278645684237271
-0.6226695785478226,-0.6226695785478226
-0.6250309375823246,-0.6250309375823246
-0.6217250349340218,-0.6217250349340218
-0.6245586657754242,-0.6245586657754242
-0.6226695785478226,-0.6226695785478226
-0.6259754811961254,-0.6259754811961254
-0.6325872864927312,-0.6325872864927312
-0.6354209173341338,-0.6354209173341338
-0.6226695785478226,-0.6226695785478226
-0.6061400653063079,-0.6061400653063079
-0.6273922966168267,-0.6273922966168267
-0.7199575707693082,-0.7199575707693082
-0.8573886665773293,-0.8573886665773293
-0.9442866790470058,-0.9442866790470058
-0.8701400053636404,-0.8701400053636404
-0.5707196797887768,-0.5707196797887768
-0.05688795388112423,-0.05688795388112423
0.6349902432279851,0.6349902432279851
1.525222599235269,1.525222599235269
2.6851221569826906,2.6851221569826906
4.0424313300144865,4.0424313300144865
5.200914072341207,5.200914072341207
5.5853433231581455,5.5853433231581455
4.900076931345642,4.900076931345642
3.4275334374301445,3.4275334374301445
1.8307824582998382,1.8307824582998382
0.6548256591178025,0.6548256591178025
0.03898322291966021,0.03898322291966021
-0.19006860342704152,-0.19006860342704152
-0.25571438458619933,-0.25571438458619933
-0.28641205203472636,-0.28641205203472636
-0.3142760886418509,-0.3142760886418509
-0.34355694066967674,-0.34355694066967674
-0.37425460811820377,-0.37425460811820377
-0.4049522755667308,-0.4049522755667308
-0.4257322350703491,-0.4257322350703491
-0.43328858398075576,-0.43328858398075576
-0.43517767120835743,-0.43517767120835743
-0.4389558456635607,-0.4389558456635607
-0.4441508355394653,-0.4441508355394653
-0.4441508355394653,-0.4441508355394653
-0.4441508355394653,-0.4441508355394653
-0.4389558456635607,-0.4389558456635607
-0.4380113020497599,-0.4380113020497599
-0.4257322350703491,-0.4257322350703491
-0.41061953724953576,-0.41061953724953576
-0.3846445878700129,-0.3846445878700129
-0.36292008475259374,-0.36292008475259374
-0.3544191922283863,-0.3544191922283863
-0.3577250948766892,-0.3577250948766892
-0.35866963849049,-0.35866963849049
-0.3463905715110792,-0.3463905715110792
-0.3256106120074609,-0.3256106120074609
-0.30860882695904596,-0.30860882695904596
-0.30105247804863927,-0.30105247804863927
-0.2991633908210376,-0.2991633908210376
-0.29727430359343593,-0.29727430359343593
-0.29396840094513305,-0.29396840094513305
-0.2892456828761289,-0.2892456828761289
-0.2826338775795231,-0.2826338775795231
-0.2727161696346143,-0.2727161696346143
-0.2599648308483031,-0.2599648308483031
-0.24296304579988812,-0.24296304579988812
-0.22076627087556858,-0.22076627087556858
-0.19337450607534443,-0.19337450607534443
-0.1655104694682199,-0.1655104694682199
-0.14095233550939826,-0.14095233550939826
-0.11781101697127788,-0.11781101697127788
-0.08758562132965127,-0.08758562132965127
-0.04744251774311591,-0.04744251774311591
-0.0016321524737755637,-0.0016321524737755637
0.042761397374863536,0.042761397374863536
0.08573813180280139,0.08573813180280139
0.13013168165144048,0.13013168165144048
0.17735886234148207,0.17735886234148207
0.22458604303152369,0.22458604303152369
0.2727577673353661,0.2727577673353661
0.31856813260470646,0.31856813260470646
0.3572944207705406,0.3572944207705406
0.3879920882190676,0.3879920882190676
0.41632839663309257,0.41632839663309257
0.4465537922747192,0.4465537922747192
0.4744178288818437,0.4744178288818437
0.49330870115786035,0.49330870115786035
0.5041709527165699,0.5041709527165699
0.5136163888545783,0.5136163888545783
0.5230618249925866,0.5230618249925866
0.5268399994477899,0.5268399994477899
0.5173945633097815,0.5173945633097815
0.49330870115786035,0.49330870115786035
0.4583605874472296,0.4583605874472296
0.4116056785640884,0.4116056785640884
0.35209943089463597,0.35209943089463597
0.2845645625078765,0.2845645625078765
0.2193910531556191,0.2193910531556191
0.15799571825856504,0.15799571825856504
0.0918776652925068,0.0918776652925068
0.017258719802241074,0.017258719802241074
-0.054054323039721734,-0.054054323039721734
-0.11167148348157248,-0.11167148348157248
-0.1570095769440124,-0.1570095769440124
-0.20140312679265152,-0.20140312679265152
-0.2453244048343902,-0.2453244048343902
-0.2835784211933239,-0.2835784211933239
-0.31191472960734884,-0.31191472960734884
-0.33600059175927005,-0.33600059175927005
-0.3581973666835896,-0.3581973666835896
-0.3761436953458054,-0.3761436953458054
-0.3846445878700129,-0.3846445878700129
-0.3827555006424112,-0.3827555006424112
-0.37661596715270584,-0.37661596715270584
-0.375671423538905,-0.375671423538905
-0.3818109570286104,-0.3818109570286104
-0.3893673059390171,-0.3893673059390171
-0.3879504905183158,-0.3879504905183158
-0.38039414160790913,-0.38039414160790913
-0.375671423538905,-0.375671423538905
-0.38039414160790913,-0.38039414160790913
-0.3874782187114154,-0.3874782187114154
-0.3874782187114154,-0.3874782187114154
-0.3822832288355108,-0.3822832288355108
-0.3789773261872079,-0.3789773261872079
-0.37803278257340706,-0.37803278257340706
-0.3728377926975025,-0.3728377926975025
-0.3610309975249921,-0.3610309975249921
-0.3496964741593821,-0.3496964741593821
-0.34733511512488,-0.34733511512488
-0.35347464861458544,-0.35347464861458544
-0.36055872571809167,-0.36055872571809167
-0.36197554113879293,-0.36197554113879293
-0.3577250948766892,-0.3577250948766892
-0.35016874596628256,-0.35016874596628256
-0.3402510380213738,-0.3402510380213738
-0.32986105826956463,-0.32986105826956463
-0.32088789393845674,-0.32088789393845674
-0.31852653490395466,-0.31852653490395466
-0.32041562213155633,-0.32041562213155633
-0.31994335032465593,-0.31994335032465593
-0.30388610889004175,-0.30388610889004175
-0.2627984616897056,-0.2627984616897056
-0.19620813691674693,-0.19620813691674693
-0.12017237600577997,-0.12017237600577997
-0.06161067195012839,-0.06161067195012839
-0.03138527630850177,-0.03138527630850177
-0.015328034873887626,-0.015328034873887626
0.013952817153938162,0.013952817153938162
0.06354135687848184,0.06354135687848184
0.11643579925132842,0.11643579925132842
0.14477210766535337,0.14477210766535337
0.1457166512791542,0.1457166512791542
0.14477210766535337,0.14477210766535337
0.17310841607937832,0.17310841607937832
0.23025330471432867,0.23025330471432867
0.281730931666474,0.281730931666474
0.2807863880526732,0.2807863880526732
0.21277924785901328,0.21277924785901328
0.10935172214782218,0.10935172214782218
0.028120971360950642,0.028120971360950642
-0.0030489678944768117,-0.0030489678944768117
-0.010605316804883467,-0.010605316804883467
-0.04980387677761799,-0.04980387677761799
-0.14284142273699993,-0.14284142273699993
-0.25902028723450227,-0.25902028723450227
-0.3482796587386809,-0.3482796587386809
-0.3959791112356229,-0.3959791112356229
-0.4238431478427474,-0.4238431478427474
-0.45359627167747363,-0.45359627167747363
-0.4805157646707973,-0.4805157646707973
-0.4909057444226065,-0.4909057444226065
-0.4875998417743036,-0.4875998417743036
-0.4899612008088057,-0.4899612008088057
-0.5036570832089177,-0.5036570832089177
-0.5159361501883285,-0.5159361501883285
-0.5159361501883285,-0.5159361501883285
-0.5079075294710215,-0.5079075294710215
-0.5060184422434197,-0.5060184422434197
-0.5022402677882165,-0.5022402677882165
-0.4998789087537144,-0.4998789087537144
-0.4899612008088057,-0.4899612008088057
-0.49232255984330775,-0.49232255984330775
-0.49373937526400896,-0.49373937526400896
-0.49279483165020815,-0.49279483165020815
-0.48523848273980147,-0.48523848273980147
-0.48382166731910026,-0.48382166731910026
-0.4885443853881044,-0.4885443853881044
-0.4894889290019052,-0.4894889290019052
-0.4899612008088057,-0.4899612008088057
-0.5145193347676272,-0.5145193347676272
-0.5896105520647934,-0.5896105520647934
-0.695871708617387,-0.695871708617387
-0.743571161114329,-0.743571161114329
-0.6099182397615113,-0.6099182397615113
-0.23493442508258106,-0.23493442508258106
0.3435985383704285,0.3435985383704285
1.0883711778523844,1.0883711778523844
2.062195643681042,2.062195643681042
3.310882301125742,3.310882301125742
4.61388021636399,4.61388021636399
5.4464954119294235,5.4464954119294235
5.332205634659522,5.332205634659522
4.264399079257682,4.264399079257682
2.7436838610383423,2.7436838610383423
1.3887360470410488,1.3887360470410488
0.5287290866753915,0.5287290866753915
0.11643579925132842,0.11643579925132842
-0.056415682074223816,-0.056415682074223816
-0.14284142273699993,-0.14284142273699993
-0.19290223426844402,-0.19290223426844402
-0.2240721735238715,-0.2240721735238715
-0.25382529735859766,-0.25382529735859766
-0.28593978022782596,-0.28593978022782596
-0.3071920115383447,-0.3071920115383447
-0.3147483604487513,-0.3147483604487513
-0.31805426309705426,-0.31805426309705426
-0.32041562213155633,-0.32041562213155633
-0.31805426309705426,-0.31805426309705426
-0.31002564237974717,-0.31002564237974717
-0.3067197397314443,-0.3067197397314443
-0.2982188472072368,-0.2982188472072368
-0.2892456828761289,-0.2892456828761289
-0.2741329850553156,-0.2741329850553156
-0.2717716260208135,-0.2717716260208135
-0.26799345156561016,-0.26799345156561016
-0.2604371026552035,-0.2604371026552035
-0.24437986122058936,-0.24437986122058936
-0.22879489159287564,-0.22879489159287564
-0.22123854268246898,-0.22123854268246898
-0.2193494554548673,-0.2193494554548673
-0.21415446557896273,-0.21415446557896273
-0.20281994221335276,-0.20281994221335276
-0.19054087523394195,-0.19054087523394195
-0.1829845263235353,-0.1829845263235353
-0.17684499283382987,-0.17684499283382987
-0.16787182850272198,-0.16787182850272198
-0.1541759461026099,-0.1541759461026099
-0.14331369454390036,-0.14331369454390036
-0.1367018892472945,-0.1367018892472945
-0.13197917117829036,-0.13197917117829036
-0.11970010419887955,-0.11970010419887955
-0.09844787288836084,-0.09844787288836084
-0.07152837989503713,-0.07152837989503713
-0.046970245936215495,-0.046970245936215495
-0.026190286432597194,-0.026190286432597194
-0.007771685963480971,-0.007771685963480971
0.016314176188440242,0.016314176188440242
0.04842865905766853,0.04842865905766853
0.08951630625800472,0.08951630625800472
0.13202076887904216,0.13202076887904216
0.17546977511388043,0.17546977511388043
0.21891878134871867,0.21891878134871867
0.2666182338456607,0.2666182338456607
0.3176235889909056,0.3176235889909056
0.36957348774995136,0.36957348774995136
0.4177452120537938,0.4177452120537938
0.46166649009553246,0.46166649009553246
0.500865050068267,0.500865050068267
0.5377022510064995,0.5377022510064995
0.571233549296429,0.571233549296429
0.601931216744956,0.601931216744956
0.6250725352830764,0.6250725352830764
0.6368793304555868,0.6368793304555868
0.638296145876288,0.638296145876288
0.6392406894900888,0.6392406894900888
0.643963407559093,0.643963407559093
0.6467970384004955,0.6467970384004955
0.6387684176831885,0.6387684176831885
0.6151548273381676,0.6151548273381676
0.5783176263999352,0.5783176263999352
0.5325072611305949,0.5325072611305949
0.4810296341784495,0.4810296341784495
0.42530156096420046,0.42530156096420046
0.3615448670326443,0.3615448670326443
0.28598137792857775,0.28598137792857775
0.20333381172100495,0.20333381172100495
0.12965940984454008,0.12965940984454008
0.07156997759578891,0.07156997759578891
0.022925981485046067,0.022925981485046067
-0.028079373660198855,-0.028079373660198855
-0.08050154422614503,-0.08050154422614503
-0.12772872491618661,-0.12772872491618661
-0.16409365404751866,-0.16409365404751866
-0.1895963316201411,-0.1895963316201411
-0.2037644858271536,-0.2037644858271536
-0.21132083473756025,-0.21132083473756025
-0.21982172726176774,-0.21982172726176774
-0.23540669688948146,-0.23540669688948146
-0.25193621013099604,-0.25193621013099604
-0.26138164626900434,-0.26138164626900434
-0.2580757436207014,-0.2580757436207014
-0.2505193947102948,-0.2505193947102948
-0.24437986122058936,-0.24437986122058936
-0.24390758941368895,-0.24390758941368895
-0.2457966766412906,-0.2457966766412906
-0.24768576386889227,-0.24768576386889227
-0.2481580356757927,-0.2481580356757927
-0.2514639383240956,-0.2514639383240956
-0.2599648308483031,-0.2599648308483031
-0.2717716260208135,-0.2717716260208135
-0.2783834313174193,-0.2783834313174193
-0.27932797493122014,-0.27932797493122014
-0.27791115951051887,-0.27791115951051887
-0.27932797493122014,-0.27932797493122014
-0.280272518545021,-0.280272518545021
-0.2755498004760168,-0.2755498004760168
-0.2646875489173072,-0.2646875489173072
-0.2571312000069006,-0.2571312000069006
-0.2580757436207014,-0.2580757436207014
-0.2637430053035064,-0.2637430053035064
-0.25949255904140267,-0.25949255904140267
-0.23398988146878022,-0.23398988146878022
-0.1829845263235353,-0.1829845263235353
-0.11261602709537331,-0.11261602709537331
-0.03563572257060551,-0.03563572257060551
0.03048233039545272,0.03048233039545272
0.07393133663029099,0.07393133663029099
0.09896174239601303,0.09896174239601303
0.12351987635483466,0.12351987635483466
0.16507979536207126,0.16507979536207126
0.21797423773491786,0.21797423773491786
0.2581173413214532,0.2581173413214532
0.2656736902318599,0.2656736902318599
0.2557559822869511,0.2557559822869511
0.26284005939045735,0.26284005939045735
0.3058167938183952,0.3058167938183952
0.35965577980504265,0.35965577980504265
0.3799634675017605,0.3799634675017605
0.3417094511428268,0.3417094511428268
0.2604787003559553,0.2604787003559553
0.17499750330698,0.17499750330698
0.12257533274103383,0.12257533274103383
0.10699036311332011,0.10699036311332011
0.09093312167870596,0.09093312167870596
0.026231884133348978,0.026231884133348978
-0.09089152397795418,-0.09089152397795418
-0.2127376501582615,-0.2127376501582615
-0.29444067275203345,-0.29444067275203345
-0.3369451353730709,-0.3369451353730709
-0.36764280282159795,-0.36764280282159795
-0.39550683942872245,-0.39550683942872245
-0.4134531680909383,-0.4134531680909383
-0.41864815796684285,-0.41864815796684285
-0.42195406061514573,-0.42195406061514573
-0.4262045068772495,-0.4262045068772495
-0.42809359410485115,-0.42809359410485115
-0.42714905049105034,-0.42714905049105034
-0.429038137718652,-0.429038137718652
-0.4295104095255524,-0.4295104095255524
-0.4309272249462537,-0.4309272249462537
-0.42809359410485115,-0.42809359410485115
-0.4323440403669549,-0.4323440403669549
-0.42809359410485115,-0.42809359410485115
-0.42762132229795075,-0.42762132229795075
-0.423370876035847,-0.423370876035847
-0.4224263324220462,-0.4224263324220462
-0.4167590707392412,-0.4167590707392412
-0.41298089628403784,-0.41298089628403784
-0.4139254398978387,-0.4139254398978387
-0.4153422553185399,-0.4153422553185399
-0.4134531680909383,-0.4134531680909383
-0.42856586591175155,-0.42856586591175155
-0.49562846249161063,-0.49562846249161063
-0.6051955216925071,-0.6051955216925071
-0.6651740411688599,-0.6651740411688599
-0.5480506330575569,-0.5480506330575569
-0.19762495233744817,-0.19762495233744817
0.3478489846325322,0.3478489846325322
1.0553121513693553,1.0553121513693553
1.9922994162597805,1.9922994162597805
3.203204329152447,3.203204329152447
4.4759768487490685,4.4759768487490685
5.307175228893801,5.307175228893801
5.230667196175933,5.230667196175933
4.220477801215943,4.220477801215943
2.7512402099487487,2.7512402099487487
1.433129596889688,1.433129596889688
0.5986253140966531,0.5986253140966531
0.19813882184510037,0.19813882184510037
0.020564622450543985,0.020564622450543985
-0.07625109796404128,-0.07625109796404128
-0.12772872491618661,-0.12772872491618661
-0.1480364126129045,-0.1480364126129045
-0.16739955669582157,-0.16739955669582157
-0.19951403956504984,-0.19951403956504984
-0.2273780761721744,-0.2273780761721744
-0.23729578411708313,-0.23729578411708313
-0.23493442508258106,-0.23493442508258106
-0.2311562506273777,-0.2311562506273777
-0.2283226197859752,-0.2283226197859752
-0.22218308629626982,-0.22218308629626982
-0.21793264003416607,-0.21793264003416607
-0.20801493208925734,-0.20801493208925734
-0.2032922140202532,-0.2032922140202532
-0.19573586510984653,-0.19573586510984653
-0.19668040872364734,-0.19668040872364734
-0.18865178800634028,-0.18865178800634028
-0.1773172646407303,-0.1773172646407303
-0.1655104694682199,-0.1655104694682199
-0.16126002320611615,-0.16126002320611615
-0.16031547959231532,-0.16031547959231532
-0.15512048971641074,-0.15512048971641074
-0.14095233550939826,-0.14095233550939826
-0.12536736588168454,-0.12536736588168454
-0.1154496579367758,-0.1154496579367758
-0.11403284251607455,-0.11403284251607455
-0.11356057070917415,-0.11356057070917415
-0.11025466806087122,-0.11025466806087122
-0.10269831915046458,-0.10269831915046458
-0.09655878566075916,-0.09655878566075916
-0.08947470855725292,-0.08947470855725292
-0.07955700061234419,-0.07955700061234419
-0.06302748737082964,-0.06302748737082964
-0.04555343051551425,-0.04555343051551425
-0.029023917273999687,-0.029023917273999687
-0.01249440403248513,-0.01249440403248513
0.011591458119436083,0.011591458119436083
0.03992776653346104,0.03992776653346104
0.06920861856128682,0.06920861856128682
0.09754492697531178,0.09754492697531178
0.1367434869480463,0.1367434869480463
0.18538748305878916,0.18538748305878916
0.234031479169532,0.234031479169532
0.27086868010776444,0.27086868010776444
0.30392770659079354,0.30392770659079354
0.3435985383704285,0.3435985383704285
0.3912979908673705,0.3912979908673705
0.43521926890910917,0.43521926890910917
0.472528741654242,0.472528741654242
0.5051154963303708,0.5051154963303708
0.5362854355857982,0.5362854355857982
0.5660385594205244,0.5660385594205244
0.5957916832552506,0.5957916832552506
0.622238904441674,0.622238904441674
0.6387684176831885,0.6387684176831885
0.6434911357521926,0.6434911357521926
0.6458524947866947,0.6458524947866947
0.6524643000833005,0.6524643000833005
0.6581315617661055,0.6581315617661055
0.6505752128556989,0.6505752128556989
0.6260170788968772,0.6260170788968772
0.5863462471172423,0.5863462471172423
0.5353408919719974,0.5353408919719974
0.47489010068874415,0.47489010068874415
0.4078275041088851,0.4078275041088851
0.3402926357221256,0.3402926357221256
0.27795275721127066,0.27795275721127066
0.21844650954181827,0.21844650954181827
0.15846799006546544,0.15846799006546544
0.09707265516841138,0.09707265516841138
0.03756640749895896,0.03756640749895896
-0.018161665715290123,-0.018161665715290123
-0.0705838362812363,-0.0705838362812363
-0.1182832887781783,-0.1182832887781783
-0.1532314024888091,-0.1532314024888091
-0.17353909018552696,-0.17353909018552696
-0.18581815716493777,-0.18581815716493777
-0.20093085498575108,-0.20093085498575108
-0.2193494554548673,-0.2193494554548673
-0.23824032773088397,-0.23824032773088397
-0.25193621013099604,-0.25193621013099604
-0.26090937446210394,-0.26090937446210394
-0.2646875489173072,-0.2646875489173072
-0.2670489079518093,-0.2670489079518093
-0.26988253879321183,-0.26988253879321183
-0.274605256862216,-0.274605256862216
-0.27743888770361846,-0.27743888770361846
-0.27791115951051887,-0.27791115951051887
-0.27791115951051887,-0.27791115951051887
-0.2812170621588218,-0.2812170621588218
-0.28593978022782596,-0.28593978022782596
-0.2892456828761289,-0.2892456828761289
-0.2892456828761289,-0.2892456828761289
-0.28782886745542763,-0.28782886745542763
-0.28546750842092555,-0.28546750842092555
-0.2845229648071247,-0.2845229648071247
-0.28546750842092555,-0.28546750842092555
-0.28499523661402515,-0.28499523661402515
-0.2783834313174193,-0.2783834313174193
-0.26988253879321183,-0.26988253879321183
-0.26752117975870976,-0.26752117975870976
-0.2755498004760168,-0.2755498004760168
-0.2821616057726226,-0.2821616057726226
-0.27602207228291725,-0.27602207228291725
-0.2547698409723985,-0.2547698409723985
-0.22171081448936938,-0.22171081448936938
-0.17920635186833195,-0.17920635186833195
-0.12772872491618661,-0.12772872491618661
-0.07341746712263879,-0.07341746712263879
-0.025718014625696776,-0.025718014625696776
0.013480545347037748,0.013480545347037748
0.05504046435427435,0.05504046435427435
0.10887945034092177,0.10887945034092177
0.1688579698172746,0.1688579698172746
0.21136243243831204,0.21136243243831204
0.22364149941772285,0.22364149941772285
0.22033559676941994,0.22033559676941994
0.23261466374883075,0.23261466374883075
0.2755913981767686,0.2755913981767686
0.33320855861861937,0.33320855861861937
0.3643784978740468,0.3643784978740468
0.33556991765312144,0.33556991765312144
0.24725508976274363,0.24725508976274363
0.14713346669985547,0.14713346669985547
0.0890440344511043,0.0890440344511043
0.07865405469929515,0.07865405469929515
0.06543044410608351,0.06543044410608351
0.003090565595228596,0.003090565595228596
-0.10411513457116582,-0.10411513457116582
-0.21179310654446065,-0.21179310654446065
-0.28877341106922844,-0.28877341106922844
-0.33647286356617045,-0.33647286356617045
-0.3700041618561,-0.3700041618561
-0.3969236548494237,-0.3969236548494237
-0.41770361435304204,-0.41770361435304204
-0.4295104095255524,-0.4295104095255524
-0.4328163121738553,-0.4328163121738553
-0.4313994967531541,-0.4313994967531541
-0.4328163121738553,-0.4328163121738553
-0.440372661084262,-0.440372661084262
-0.4484012818015691,-0.4484012818015691
-0.4564299025188761,-0.4564299025188761
-0.4587912615533782,-0.4587912615533782
-0.46304170781548193,-0.46304170781548193
-0.4559576307119757,-0.4559576307119757
-0.4498180972222703,-0.4498180972222703
-0.4380113020497599,-0.4380113020497599
-0.43564994301525783,-0.43564994301525783
-0.4375390302428595,-0.4375390302428595
-0.44273402011876406,-0.44273402011876406
-0.4413172046980628,-0.4413172046980628
-0.4328163121738553,-0.4328163121738553
-0.42714905049105034,-0.42714905049105034
-0.4389558456635607,-0.4389558456635607
-0.48665529816050274,-0.48665529816050274
-0.5744978542439801,-0.5744978542439801
-0.6580899640653537,-0.6580899640653537
-0.6297536556513288,-0.6297536556513288
-0.39172866497351916,-0.39172866497351916
0.06306908507158142,0.06306908507158142
0.6855233265663296,0.6855233265663296
1.4893299419108375,1.4893299419108375
2.549580148402271,2.549580148402271
3.8011004366883734,3.8011004366883734
4.87504652557992,4.87504652557992
5.251447155679552,5.251447155679552
4.663941027895434,4.663941027895434
3.364249015305489,3.364249015305489
1.9431831483421371,1.9431831483421371
0.8900170189542097,0.8900170189542097
0.31290087092190144,0.31290087092190144
0.04890093086456894,0.04890093086456894
-0.07908472880544377,-0.07908472880544377
-0.14425823815770117,-0.14425823815770117
-0.17495590560622823,-0.17495590560622823
-0.198569495951249,-0.198569495951249
-0.2278503479790748,-0.2278503479790748
-0.2481580356757927,-0.2481580356757927
-0.25193621013099604,-0.25193621013099604
-0.2491025792895935,-0.2491025792895935
-0.25004712290339437,-0.25004712290339437
-0.25335302555169725,-0.25335302555169725
-0.2505193947102948,-0.2505193947102948
-0.24296304579988812,-0.24296304579988812
-0.22926716339977604,-0.22926716339977604
-0.22548898894457273,-0.22548898894457273
-0.2245444453307719,-0.2245444453307719
-0.23210079424117855,-0.23210079424117855
-0.2278503479790748,-0.2278503479790748
-0.21982172726176774,-0.21982172726176774
-0.20943174750995858,-0.20943174750995858
-0.2037644858271536,-0.2037644858271536
-0.1952635933029461,-0.1952635933029461
-0.1834567981304357,-0.1834567981304357
-0.17353909018552696,-0.17353909018552696
-0.17353909018552696,-0.17353909018552696
-0.17873408006143154,-0.17873408006143154
-0.18203998270973445,-0.18203998270973445
-0.17873408006143154,-0.17873408006143154
-0.17165000295792532,-0.17165000295792532
-0.1626768386268174,-0.1626768386268174
-0.15464821790951033,-0.15464821790951033
-0.14709186899910368,-0.14709186899910368
-0.13811870466799578,-0.13811870466799578
-0.12300600684718246,-0.12300600684718246
-0.10458740637806624,-0.10458740637806624
-0.09183606759175501,-0.09183606759175501
-0.08758562132965127,-0.08758562132965127
-0.07861245699854336,-0.07861245699854336
-0.056415682074223816,-0.056415682074223816
-0.02430119920499553,-0.02430119920499553
0.010174642698734835,0.010174642698734835
0.04795638725076811,0.04795638725076811
0.08951630625800472,0.08951630625800472
0.13107622526524132,0.13107622526524132
0.16791342620347377,0.16791342620347377
0.2071119861762083,0.2071119861762083
0.25386689505934945,0.25386689505934945
0.3048722502045944,0.3048722502045944
0.3497380718601339,0.3497380718601339
0.3889366318328684,0.3889366318328684
0.42860746361250335,0.42860746361250335
0.4711119262335408,0.4711119262335408
0.5103104862062753,0.5103104862062753
0.5419526972686032,0.5419526972686032
0.5641494721929228,0.5641494721929228
0.5797344418206365,0.5797344418206365
0.5896521497655453,0.5896521497655453
0.5948471396414498,0.5948471396414498
0.596263955062151,0.596263955062151
0.5920135088000473,0.5920135088000473
0.5797344418206365,0.5797344418206365
0.5580099387032174,0.5580099387032174
0.5268399994477899,0.5268399994477899
0.4881137112819558,0.4881137112819558
0.4389974433643125,0.4389974433643125
0.3761852930465572,0.3761852930465572
0.3077058810459969,0.3077058810459969
0.24678281795584323,0.24678281795584323
0.19388837558299662,0.19388837558299662
0.13579894333424547,0.13579894333424547
0.06306908507158142,0.06306908507158142
-0.012022132225584714,-0.012022132225584714
-0.07341746712263879,-0.07341746712263879
-0.11781101697127788,-0.11781101697127788
-0.1570095769440124,-0.1570095769440124
-0.19573586510984653,-0.19573586510984653
-0.2283226197859752,-0.2283226197859752
-0.2505193947102948,-0.2505193947102948
-0.2661043643380085,-0.2661043643380085
-0.27791115951051887,-0.27791115951051887
-0.2897179546830293,-0.2897179546830293
-0.299635662627938,-0.299635662627938
-0.30908109876594636,-0.30908109876594636
-0.316637447676353,-0.316637447676353
-0.3218324375522576,-0.3218324375522576
-0.3227769811660584,-0.3227769811660584
-0.32041562213155633,-0.32041562213155633
-0.31805426309705426,-0.31805426309705426
-0.322304709359158,-0.322304709359158
-0.3341115045316684,-0.3341115045316684
-0.3463905715110792,-0.3463905715110792
-0.3492242023524817,-0.3492242023524817
-0.34402921247657714,-0.34402921247657714
-0.3407233098282742,-0.3407233098282742
-0.34544602789727835,-0.34544602789727835
-0.3487519305455813,-0.3487519305455813
-0.3459182997041788,-0.3459182997041788
-0.3411955816351746,-0.3411955816351746
-0.34214012524897547,-0.34214012524897547
-0.3459182997041788,-0.3459182997041788
-0.34497375609037795,-0.34497375609037795
-0.3407233098282742,-0.3407233098282742
-0.3411955816351746,-0.3411955816351746
-0.3459182997041788,-0.3459182997041788
-0.3463905715110792,-0.3463905715110792
-0.3345837763385688,-0.3345837763385688
-0.31097018599354803,-0.31097018599354803
-0.27885570312431973,-0.27885570312431973
-0.23398988146878022,-0.23398988146878022
-0.16976091573032365,-0.16976091573032365
-0.0946696984331575,-0.0946696984331575
-0.029496189080900105,-0.029496189080900105
0.009702370891834419,0.009702370891834419
0.030954602202353135,0.030954602202353135
0.06070772603707934,0.06070772603707934
0.11407444021682635,0.11407444021682635
0.17546977511388043,0.17546977511388043
0.21419606327971452,0.21419606327971452
0.22033559676941994,0.22033559676941994
0.21419606327971452,0.21419606327971452
0.23025330471432867,0.23025330471432867
0.27653594179056945,0.27653594179056945
0.32659675332201354,0.32659675332201354
0.33604218946002185,0.33604218946002185
0.281730931666474,0.281730931666474
0.17924794956908374,0.17924794956908374
0.07770951108549431,0.07770951108549431
0.017258719802241074,0.017258719802241074
-0.004938055122078475,-0.004938055122078475
-0.032802091729203016,-0.032802091729203016
-0.10175377553666375,-0.10175377553666375
-0.20612584486165567,-0.20612584486165567
-0.3081365551521455,-0.3081365551521455
-0.3799218698010087,-0.3799218698010087
-0.4205372451944445,-0.4205372451944445
-0.44603992276706694,-0.44603992276706694
-0.46681988227068527,-0.46681988227068527
-0.48334939551219985,-0.48334939551219985
-0.4942116470709094,-0.4942116470709094
-0.5022402677882165,-0.5022402677882165
-0.5093243448917227,-0.5093243448917227
-0.5168806938021293,-0.5168806938021293
-0.5234924990987352,-0.5234924990987352
-0.5267984017470381,-0.5267984017470381
-0.5315211198160422,-0.5315211198160422
-0.5315211198160422,-0.5315211198160422
-0.5371883814988473,-0.5371883814988473
-0.5362438378850464,-0.5362438378850464
-0.5390774687264489,-0.5390774687264489
-0.5310488480091419,-0.5310488480091419
-0.518769781029731,-0.518769781029731
-0.5069629858572207,-0.5069629858572207
-0.5041293550158181,-0.5041293550158181
-0.5022402677882165,-0.5022402677882165
-0.4979898215261127,-0.4979898215261127
-0.5064907140503202,-0.5064907140503202
-0.5513565357058597,-0.5513565357058597
-0.6373100045617355,-0.6373100045617355
-0.7294030069073165,-0.7294030069073165
-0.7506552382178353,-0.7506552382178353
-0.5995282600097022,-0.5995282600097022
-0.22690580436527397,-0.22690580436527397
0.33604218946002185,0.33604218946002185
1.0581457822107576,1.0581457822107576
2.0050507550460916,2.0050507550460916
3.2126497652904553,3.2126497652904553
4.427805124445226,4.427805124445226
5.106931982768024,5.106931982768024
4.832542062958883,4.832542062958883
3.7057015316944897,3.7057015316944897
2.27566250040003,2.27566250040003
1.0883711778523844,1.0883711778523844
0.35965577980504265,0.35965577980504265
0.000729206560726516,0.000729206560726516
-0.156537305137112,-0.156537305137112
-0.22123854268246898,-0.22123854268246898
-0.24674122025509143,-0.24674122025509143
-0.26893799517941097,-0.26893799517941097
-0.30294156527624094,-0.30294156527624094
-0.33600059175927005,-0.33600059175927005
-0.34733511512488,-0.34733511512488
-0.34355694066967674,-0.34355694066967674
-0.34355694066967674,-0.34355694066967674
-0.34733511512488,-0.34733511512488
-0.34497375609037795,-0.34497375609037795
-0.339306494407573,-0.339306494407573
-0.34497375609037795,-0.34497375609037795
-0.3496964741593821,-0.3496964741593821
-0.3478073869317804,-0.3478073869317804
-0.33033333007646504,-0.33033333007646504
-0.3227769811660584,-0.3227769811660584
-0.31805426309705426,-0.31805426309705426
-0.3133315450280501,-0.3133315450280501
-0.3019970216624401,-0.3019970216624401
-0.2892456828761289,-0.2892456828761289
-0.27980024673812054,-0.27980024673812054
-0.27791115951051887,-0.27791115951051887
-0.280272518545021,-0.280272518545021
-0.280272518545021,-0.280272518545021
-0.26988253879321183,-0.26988253879321183
-0.25382529735859766,-0.25382529735859766
-0.24296304579988812,-0.24296304579988812
-0.2448521330274898,-0.2448521330274898
-0.2486303074826931,-0.2486303074826931
-0.24060168676538604,-0.24060168676538604
-0.2193494554548673,-0.2193494554548673
-0.198569495951249,-0.198569495951249
-0.18534588535803737,-0.18534588535803737
-0.17542817741312863,-0.17542817741312863
-0.15748184875091284,-0.15748184875091284
-0.13197917117829036,-0.13197917117829036
-0.10789330902636915,-0.10789330902636915
-0.09278061120555584,-0.09278061120555584
-0.07908472880544377,-0.07908472880544377
-0.05783249749492506,-0.05783249749492506
-0.025245742818796362,-0.025245742818796362
0.013480545347037748,0.013480545347037748
0.05551273616117477,0.05551273616117477
0.10132310143051511,0.10132310143051511
0.15043936934815838,0.15043936934815838
0.19719427823129956,0.19719427823129956
0.23922646904543657,0.23922646904543657
0.276063669983669,0.276063669983669
0.31195632730810063,0.31195632730810063
0.3473767128256318,0.3473767128256318
0.3823248265362626,0.3823248265362626
0.4149115812123913,0.4149115812123913
0.44419243324021707,0.44419243324021707
0.4682782953921383,0.4682782953921383
0.48528008044055326,0.48528008044055326
0.495197788385462,0.495197788385462
0.5003927782613666,0.5003927782613666
0.5013373218751674,0.5013373218751674
0.4947255165785616,0.4947255165785616
0.47819600333704704,0.47819600333704704
0.453165597571325,0.453165597571325
0.4215233865089971,0.4215233865089971
0.3794911956948601,0.3794911956948601
0.3251799379013123,0.3251799379013123
0.26142324396975614,0.26142324396975614
0.19483291919679746,0.19483291919679746
0.1282425944238388,0.1282425944238388
0.05976318242327851,0.05976318242327851
-0.008243957770381387,-0.008243957770381387
-0.07483428254334004,-0.07483428254334004
-0.13481280201969287,-0.13481280201969287
-0.18581815716493777,-0.18581815716493777
-0.22548898894457273,-0.22548898894457273
-0.2566589282000002,-0.2566589282000002
-0.2840506930002243,-0.2840506930002243
-0.31191472960734884,-0.31191472960734884
-0.33600059175927005,-0.33600059175927005
-0.35158556138698377,-0.35158556138698377
-0.3577250948766892,-0.3577250948766892
-0.36197554113879293,-0.36197554113879293
-0.36953189004919956,-0.36953189004919956
-0.3785050543803075,-0.3785050543803075
-0.3818109570286104,-0.3818109570286104
-0.38039414160790913,-0.38039414160790913
-0.38039414160790913,-0.38039414160790913
-0.3888950341321166,-0.3888950341321166
-0.40022955749772665,-0.40022955749772665
-0.4054245473736312,-0.4054245473736312
-0.40353546014602953,-0.40353546014602953
-0.40211864472532827,-0.40211864472532827
-0.406369090987432,-0.406369090987432
-0.412036352670237,-0.412036352670237
-0.41250862447713743,-0.41250862447713743
-0.4077859064081333,-0.4077859064081333
-0.40448000375983034,-0.40448000375983034
-0.406369090987432,-0.406369090987432
-0.41014726544263536,-0.41014726544263536
-0.4115640808633366,-0.4115640808633366
-0.4115640808633366,-0.4115640808633366
-0.41014726544263536,-0.41014726544263536
-0.4049522755667308,-0.4049522755667308
-0.3992850138839258,-0.3992850138839258
-0.3992850138839258,-0.3992850138839258
-0.4058968191805316,-0.4058968191805316
-0.40448000375983034,-0.40448000375983034
-0.37756051076650665,-0.37756051076650665
-0.3227769811660584,-0.3227769811660584
-0.25288075374479685,-0.25288075374479685
-0.18251225451663486,-0.18251225451663486
-0.12206146323338163,-0.12206146323338163
-0.07625109796404128,-0.07625109796404128
-0.040830712446510084,-0.040830712446510084
-0.003993511508277643,-0.003993511508277643
0.042761397374863536,0.042761397374863536
0.08998857806490514,0.08998857806490514
0.11785261467202968,0.11785261467202968
0.12021397370653175,0.12021397370653175
0.11832488647893008,0.11832488647893008
0.14429983585845296,0.14429983585845296
0.20380608352790539,0.20380608352790539
0.26142324396975614,0.26142324396975614
0.26992413649396363,0.26992413649396363
0.2104178888245112,0.2104178888245112
0.11029626576162302,0.11029626576162302
0.016786447995340657,0.016786447995340657
-0.03799708160510759,-0.03799708160510759
-0.060666128336327556,-0.060666128336327556
-0.08711334952275085,-0.08711334952275085
-0.1532314024888091,-0.1532314024888091
-0.25854801542760186,-0.25854801542760186
-0.36953189004919956,-0.36953189004919956
-0.4474567381877682,-0.4474567381877682
-0.48665529816050274,-0.48665529816050274
-0.5050738986296189,-0.5050738986296189
-0.5249093145194365,-0.5249093145194365
-0.5471060894437559,-0.5471060894437559
-0.5626910590714697,-0.5626910590714697
-0.5674137771404739,-0.5674137771404739
-0.5674137771404739,-0.5674137771404739
-0.5721364952094781,-0.5721364952094781
-0.5825264749612872,-0.5825264749612872
-0.5943332701337976,-0.5943332701337976
-0.5995282600097022,-0.5995282600097022
-0.6033064344649055,-0.6033064344649055
-0.6014173472373038,-0.6014173472373038
-0.6066123371132084,-0.6066123371132084
-0.6051955216925071,-0.6051955216925071
-0.6080291525339097,-0.6080291525339097
