ECG,PPG
-0.26655802989815297,-0.26655802989815297
-0.2712250682690573,-0.2712250682690573
-0.1592161473673539,-0.1592161473673539
-0.14188143341828077,-0.14188143341828077
-0.08387681366561295,-0.08387681366561295
-0.00587060089478381,-0.00587060089478381
0.07146889210877327,0.07146889210877327
0.12147287465417657,0.12147287465417657
0.14147446767233787,0.14147446767233787
0.13214039093052926,0.13214039093052926
0.08747016652330233,0.08747016652330233
0.013464272356105462,0.013464272356105462
-0.06720881948381184,-0.06720881948381184
-0.13388079621101623,-0.13388079621101623
-0.18588493805823567,-0.18588493805823567
-0.22522140432728624,-0.22522140432728624
-0.25389035431998414,-0.25389035431998414
-0.26989162873451317,-0.26989162873451317
-0.28122586477813794,-0.28122586477813794
-0.2878930624508584,-0.2878930624508584
-0.2905599415199465,-0.2905599415199465
-0.28655962291631426,-0.28655962291631426
-0.28455946361449813,-0.28455946361449813
-0.2872263426835863,-0.2872263426835863
-0.3072279357017476,-0.3072279357017476
-0.34389752290171005,-0.34389752290171005
-0.4079026205598263,-0.4079026205598263
-0.48390867402883925,-0.48390867402883925
-0.5639150461014846,-0.5639150461014846
-0.6245865449232405,-0.6245865449232405
-0.6699234890977395,-0.6699234890977395
-0.6972589995558933,-0.6972589995558933
-0.7319284274540396,-0.7319284274540396
-0.7739317727921784,-0.7739317727921784
-0.843937348355743,-0.843937348355743
-0.9266105994974764,-0.9266105994974764
-1.029285443657371,-1.029285443657371
-1.1266265296790896,-1.1266265296790896
-1.2326349726753445,-1.2326349726753445
-1.3239755807916145,-1.3239755807916145
-1.4159829086751565,-1.4159829086751565
-1.483321605169633,-1.483321605169633
-1.546659983060477,-1.546659983060477
-1.5886633283986158,-1.5886633283986158
-1.637333871409475,-1.637333871409475
-1.6806706562821578,-1.6806706562821578
-1.7466759132420902,-1.7466759132420902
-1.8226819667111032,-1.8226819667111032
-1.9213564922673656,-1.9213564922673656
-2.016030699219996,-2.016030699219996
-2.10870474687081,-2.10870474687081
-2.1753767235980144,-2.1753767235980144
-2.2227138270743296,-2.2227138270743296
-2.245382299161579,-2.245382299161579
-2.2667173317142844,-2.2667173317142844
-2.290719243336078,-2.290719243336078
-2.3320558689069446,-2.3320558689069446
-2.381393131685076,-2.381393131685076
-2.4347307130668394,-2.4347307130668394
-2.4760673386377063,-2.4760673386377063
-2.504736288630404,-2.504736288630404
-2.518737403743117,-2.518737403743117
-2.52940492001947,-2.52940492001947
-2.5427393153649107,-2.5427393153649107
-2.5694081060557923,-2.5694081060557923
-2.608744572324843,-2.608744572324843
-2.6660824723102388,-2.6660824723102388
-2.7287541304338108,-2.7287541304338108
-2.7967595466955593,-2.7967595466955593
-2.852097287379139,-2.852097287379139
-2.8941006327172776,-2.8941006327172776
-2.9067683082954465,-2.9067683082954465
-2.907435028062719,-2.907435028062719
-2.8894335943463734,-2.8894335943463734
-2.881432957139109,-2.881432957139109
-2.870765440862756,-2.870765440862756
-2.884766555975469,-2.884766555975469
-2.8921004734154616,-2.8921004734154616
-2.9067683082954465,-2.9067683082954465
-2.878766078070021,-2.878766078070021
-2.827428655990073,-2.827428655990073
-2.716753174622914,-2.716753174622914
-2.5980770560484903,-2.5980770560484903
-2.460732783990449,-2.460732783990449
-2.3740592142450834,-2.3740592142450834
-2.312054275888783,-2.312054275888783
-2.307387237517879,-2.307387237517879
-2.2993866003106147,-2.2993866003106147
-2.306720517750607,-2.306720517750607
-2.2887190840342617,-2.2887190840342617
-2.2873856444997176,-2.2873856444997176
-2.29138596310335,-2.29138596310335
-2.3480571433214736,-2.3480571433214736
-2.44139791073956,-2.44139791073956
-2.5860761002375936,-2.5860761002375936
-2.7420885257792516,-2.7420885257792516
-2.910768626899079,-2.910768626899079
-3.0554468163971125,-3.0554468163971125
-3.1754563745060804,-3.1754563745060804
-3.248128829138733,-3.248128829138733
-3.295465932615048,-3.295465932615048
-3.3194678442368417,-3.3194678442368417
-3.3441364756259073,-3.3441364756259073
-3.365471508178613,-3.365471508178613
-3.400807655844031,-3.400807655844031
-3.4394774023458097,-3.4394774023458097
-3.4768137093130442,-3.4768137093130442
-3.50148234070211,-3.50148234070211
-3.50814953837483,-3.50814953837483
-3.5121498569784624,-3.5121498569784624
-3.4981487418657493,-3.4981487418657493
-3.4894813848912127,-3.4894813848912127
-3.4768137093130442,-3.4768137093130442
-3.4768137093130442,-3.4768137093130442
-3.4874812255893968,-3.4874812255893968
-3.491481544193029,-3.491481544193029
-3.50814953837483,-3.50814953837483
-3.50481593953847,-3.50481593953847
-3.5121498569784624,-3.5121498569784624
-3.4988154616330216,-3.4988154616330216
-3.5161501755820948,-3.5161501755820948
-3.5308180104620797,-3.5308180104620797
-3.5741547953347625,-3.5741547953347625
-3.5574868011529612,-3.5574868011529612
-3.4534785174585223,-3.4534785174585223
-3.1201186338225004,-3.1201186338225004
-2.518737403743117,-2.518737403743117
-1.5733287737513588,-1.5733287737513588
-0.39523494498165745,-0.39523494498165745
0.8862004477152109,0.8862004477152109
1.978954146274091,1.978954146274091
2.6696758251679285,2.6696758251679285
2.7530157960769337,2.7530157960769337
2.2516425310883568,2.2516425310883568
1.2815652697075328,1.2815652697075328
0.11947271535236044,0.11947271535236044
-1.0159510483119303,-1.0159510483119303
-1.9393579259837108,-1.9393579259837108
-2.63074632464482,-2.63074632464482
-3.112784716382508,-3.112784716382508
-3.4708132314075955,-3.4708132314075955
-3.7275003418073327,-3.7275003418073327
-3.901514201065336,-3.901514201065336
-3.9648525789561804,-3.9648525789561804
-3.93551690919621,-3.93551690919621
-3.8341755045708594,-3.8341755045708594
-3.7315006604109646,-3.7315006604109646
-3.653494447640136,-3.653494447640136
-3.6401600522946946,-3.6401600522946946
-3.65816148601104,-3.65816148601104
-3.706832029021899,-3.706832029021899
-3.7455017755236777,-3.7455017755236777
-3.7761708848181916,-3.7761708848181916
-3.7895052801636324,-3.7895052801636324
-3.7908387196981765,-3.7908387196981765
-3.78217136272364,-3.78217136272364
-3.7708371266800156,-3.7708371266800156
-3.7488353743600378,-3.7488353743600378
-3.738834577850957,-3.738834577850957
-3.719499704600068,-3.719499704600068
-3.719499704600068,-3.719499704600068
-3.705498589487355,-3.705498589487355
-3.7094989080909873,-3.7094989080909873
-3.6934976336764582,-3.6934976336764582
-3.6974979522800906,-3.6974979522800906
-3.6821633976328334,-3.6821633976328334
-3.688163875538282,-3.688163875538282
-3.674162760425569,-3.674162760425569
-3.6768296394946574,-3.6768296394946574
-3.658828205778312,-3.658828205778312
-3.6548278871746795,-3.6548278871746795
-3.631492695320158,-3.631492695320158
-3.6214918988110774,-3.6214918988110774
-3.5914895092838357,-3.5914895092838357
-3.568154317429314,-3.568154317429314
-3.523484093022087,-3.523484093022087
-3.4814807476839484,-3.4814807476839484
-3.42014252909492,-3.42014252909492
-3.3621379093422523,-3.3621379093422523
-3.2874652954077836,-3.2874652954077836
-3.2121259617060427,-3.2121259617060427
-3.1181184745206845,-3.1181184745206845
-3.016777069895334,-3.016777069895334
-2.896767511786366,-2.896767511786366
-2.7707574757719495,-2.7707574757719495
-2.62741272580846,-2.62741272580846
-2.4794009374740664,-2.4794009374740664
-2.316721314259688,-2.316721314259688
-2.148707932907133,-2.148707932907133
-1.9660267166745926,-1.9660267166745926
-1.7820120609075085,-1.7820120609075085
-1.5959972458386082,-1.5959972458386082
-1.4199832272787887,-1.4199832272787887
-1.2493029668571456,-1.2493029668571456
-1.0959574203845754,-1.0959574203845754
-0.9506125111192699,-0.9506125111192699
-0.8219355960357655,-0.8219355960357655
-0.6972589995558933,-0.6972589995558933
-0.5912505565596383,-0.5912505565596383
-0.4959096298397361,-0.4959096298397361
-0.42857093334525964,-0.42857093334525964
-0.3752333519634961,-0.3752333519634961
-0.35723191824715095,-0.35723191824715095
-0.3598987973162391,-0.3598987973162391
-0.39523494498165745,-0.39523494498165745
-0.4359048507852521,-0.4359048507852521
-0.49724306937428014,-0.49724306937428014
-0.5532475298251318,-0.5532475298251318
-0.6199195065523362,-0.6199195065523362
-0.6712569286322836,-0.6712569286322836
-0.7319284274540396,-0.7319284274540396
-0.7805989704648988,-0.7805989704648988
-0.8339365518466623,-0.8339365518466623
-0.8692726995120806,-0.8692726995120806
-0.9026086878756828,-0.9026086878756828
-0.9179432425229398,-0.9179432425229398
-0.9279440390320205,-0.9279440390320205
-0.9226102808938441,-0.9226102808938441
-0.9152763634538517,-0.9152763634538517
-0.8992750890393226,-0.8992750890393226
-0.8826070948575215,-0.8826070948575215
-0.8619387820720882,-0.8619387820720882
-0.8432706285884709,-0.8432706285884709
-0.8226023158030376,-0.8226023158030376
-0.8046008820866923,-0.8046008820866923
-0.7865994483703472,-0.7865994483703472
-0.7672645751194579,-0.7672645751194579
-0.7452628227994804,-0.7452628227994804
-0.7205941914104148,-0.7205941914104148
-0.6939254007195331,-0.6939254007195331
-0.6679233297959234,-0.6679233297959234
-0.6405878193377695,-0.6405878193377695
-0.6159191879487039,-0.6159191879487039
-0.5925839960941824,-0.5925839960941824
-0.570582243774205,-0.570582243774205
-0.5445801728505952,-0.5445801728505952
-0.5179113821597136,-0.5179113821597136
-0.4872422728651995,-0.4872422728651995
-0.45657316357068545,-0.45657316357068545
-0.4239038949743553,-0.4239038949743553
-0.3979018240507456,-0.3979018240507456
-0.37590007173076817,-0.37590007173076817
-0.3612322368507832,-0.3612322368507832
-0.3458976822035262,-0.3458976822035262
-0.3345634461599014,-0.3345634461599014
-0.31922889151264444,-0.31922889151264444
-0.30589449616720354,-0.30589449616720354
-0.28655962291631426,-0.28655962291631426
-0.2718917880363293,-0.2718917880363293
-0.25389035431998414,-0.25389035431998414
-0.2425561182763594,-0.2425561182763594
-0.22655484386183034,-0.22655484386183034
-0.21722076712002172,-0.21722076712002172
-0.20588653107639698,-0.20588653107639698
-0.19988605317094857,-0.19988605317094857
-0.18988525666186792,-0.18988525666186792
-0.18588493805823567,-0.18588493805823567
-0.18255133922187544,-0.18255133922187544
-0.1865516578255077,-0.1865516578255077
-0.18988525666186792,-0.18988525666186792
-0.19788589386913244,-0.19788589386913244
-0.20255293224003676,-0.20255293224003676
-0.20655325084366902,-0.20655325084366902
-0.20655325084366902,-0.20655325084366902
-0.2078866903782131,-0.2078866903782131
-0.20655325084366902,-0.20655325084366902
-0.20721997061094105,-0.20721997061094105
-0.20655325084366902,-0.20655325084366902
-0.20721997061094105,-0.20721997061094105
-0.20655325084366902,-0.20655325084366902
-0.20721997061094105,-0.20721997061094105
-0.21055356944730128,-0.21055356944730128
-0.21788748688729376,-0.21788748688729376
-0.22655484386183034,-0.22655484386183034
-0.2385557996727271,-0.2385557996727271
-0.2505567554836239,-0.2505567554836239
-0.2625577112945207,-0.2625577112945207
-0.2712250682690573,-0.2712250682690573
-0.27989242524359387,-0.27989242524359387
-0.2872263426835863,-0.2872263426835863
-0.29656041942539496,-0.29656041942539496
-0.30322761709811535,-0.30322761709811535
-0.31189497407265193,-0.31189497407265193
-0.31989561127991645,-0.31989561127991645
-0.328562968254453,-0.328562968254453
-0.3312298473235412,-0.3312298473235412
-0.3345634461599014,-0.3345634461599014
-0.3352301659271735,-0.3352301659271735
-0.3385637647635337,-0.3385637647635337
-0.33923048453080573,-0.33923048453080573
-0.34656440197079824,-0.34656440197079824
-0.3552317589453348,-0.3552317589453348
-0.3698995938253198,-0.3698995938253198
-0.37990039033440043,-0.37990039033440043
-0.389234467076209,-0.389234467076209
-0.39123462637802514,-0.39123462637802514
-0.39123462637802514,-0.39123462637802514
-0.3839007089380327,-0.3839007089380327
-0.37856695079985636,-0.37856695079985636
-0.3718997531271359,-0.3718997531271359
-0.3698995938253198,-0.3698995938253198
-0.3672327147562316,-0.3672327147562316
-0.36856615429077566,-0.36856615429077566
-0.36789943452350365,-0.36789943452350365
-0.36789943452350365,-0.36789943452350365
-0.3638991159198714,-0.3638991159198714
-0.35789863801442295,-0.35789863801442295
-0.34656440197079824,-0.34656440197079824
-0.3365636054617176,-0.3365636054617176
-0.327896248487181,-0.327896248487181
-0.32456264965082077,-0.32456264965082077
-0.32389592988354876,-0.32389592988354876
-0.32456264965082077,-0.32456264965082077
-0.32256249034900464,-0.32256249034900464
-0.3172287322108283,-0.3172287322108283
-0.3078946554690197,-0.3078946554690197
-0.29989401826175516,-0.29989401826175516
-0.2958936996581229,-0.2958936996581229
-0.2958936996581229,-0.2958936996581229
-0.29456026012357883,-0.29456026012357883
-0.2912266612872186,-0.2912266612872186
-0.28322602407995406,-0.28322602407995406
-0.27255850780360136,-0.27255850780360136
-0.25922411245816046,-0.25922411245816046
-0.24989003571635188,-0.24989003571635188
-0.2425561182763594,-0.2425561182763594
-0.2412226787418153,-0.2412226787418153
-0.2385557996727271,-0.2385557996727271
-0.2398892392072712,-0.2398892392072712
-0.23922251943999917,-0.23922251943999917
-0.23922251943999917,-0.23922251943999917
-0.2352222008363669,-0.2352222008363669
-0.22988844269819056,-0.22988844269819056
-0.21922092642183785,-0.21922092642183785
-0.20655325084366902,-0.20655325084366902
-0.19121869619641202,-0.19121869619641202
-0.17655086131642705,-0.17655086131642705
-0.16321646597098616,-0.16321646597098616
-0.1532156694619055,-0.1532156694619055
-0.1472151915564571,-0.1472151915564571
-0.14454831248736894,-0.14454831248736894
-0.14321487295282484,-0.14321487295282484
-0.1438815927200969,-0.1438815927200969
-0.1438815927200969,-0.1438815927200969
-0.1425481531855528,-0.1425481531855528
-0.13588095551283236,-0.13588095551283236
-0.12187984040011944,-0.12187984040011944
-0.09854464854559791,-0.09854464854559791
-0.06854225901835594,-0.06854225901835594
-0.03187267181839352,-0.03187267181839352
0.008797233985201155,0.008797233985201155
0.060134656065148534,0.060134656065148534
0.12880679209416906,0.12880679209416906
0.22881475718497563,0.22881475718497563
0.35949183157029624,0.35949183157029624
0.5115039385083222,0.5115039385083222
0.659515726842716,0.659515726842716
0.780858724486228,0.780858724486228
0.856864777955241,0.856864777955241
0.8895340465515711,0.8895340465515711
0.8915342058533873,0.8915342058533873
0.8808666895770345,0.8808666895770345
0.8641986953952334,0.8641986953952334
0.8395300640061678,0.8395300640061678
0.7915262407625807,0.7915262407625807
0.7141867477590236,0.7141867477590236
0.6035112663918643,0.6035112663918643
0.47083403270472757,0.47083403270472757
0.3288227222757822,0.3288227222757822
0.19414532928682934,0.19414532928682934
0.0748024909451335,0.0748024909451335
-0.019204996240224686,-0.019204996240224686
-0.08921057180378929,-0.08921057180378929
-0.13121391714192807,-0.13121391714192807
-0.1532156694619055,-0.1532156694619055
-0.15588254853099368,-0.15588254853099368
-0.15254894969463345,-0.15254894969463345
-0.1472151915564571,-0.1472151915564571
-0.14654847178918506,-0.14654847178918506
-0.14788191132372916,-0.14788191132372916
-0.15121551016008938,-0.15121551016008938
-0.1578827078328098,-0.1578827078328098
-0.15521582876372164,-0.15521582876372164
-0.15588254853099368,-0.15588254853099368
-0.14054799388373668,-0.14054799388373668
-0.13654767528010442,-0.13654767528010442
-0.12321327993466354,-0.12321327993466354
-0.1212131206328474,-0.1212131206328474
-0.12321327993466354,-0.12321327993466354
-0.13121391714192807,-0.13121391714192807
-0.14588175202191303,-0.14588175202191303
-0.15988286713462593,-0.15988286713462593
-0.17855102061824318,-0.17855102061824318
-0.20055277293822063,-0.20055277293822063
-0.23455548106909485,-0.23455548106909485
-0.2718917880363293,-0.2718917880363293
-0.29722713919266697,-0.29722713919266697
-0.2532236345527121,-0.2532236345527121
-0.060541621811091406,-0.060541621811091406
0.37949342458845753,0.37949342458845753
1.1368870802094995,1.1368870802094995
2.208972465982946,2.208972465982946
3.483740661007094,3.483740661007094
4.746507900220345,4.746507900220345
5.730586276713881,5.730586276713881
6.214624827753385,6.214624827753385
6.090614951040785,6.090614951040785
5.4218950244669255,5.4218950244669255
4.395146582867978,4.395146582867978
3.2590560994364153,3.2590560994364153
2.2116393450520344,2.2116393450520344
1.3622383615474503,1.3622383615474503
0.7135200279917515,0.7135200279917515
0.22481443858134337,0.22481443858134337
-0.15188222992736142,-0.15188222992736142
-0.42323717520708326,-0.42323717520708326
-0.5872502379560061,-0.5872502379560061
-0.631253742595961,-0.631253742595961
-0.5872502379560061,-0.5872502379560061
-0.4919093112361038,-0.4919093112361038
-0.4099027798616424,-0.4099027798616424
-0.3645658356871434,-0.3645658356871434
-0.3692328740580477,-0.3692328740580477
-0.4025688624216499,-0.4025688624216499
-0.4385717298543403,-0.4385717298543403
-0.47590803682157473,-0.47590803682157473
-0.4825752344942952,-0.4825752344942952
-0.4932427507706479,-0.4932427507706479
-0.47257443798521453,-0.47257443798521453
-0.46124020194158977,-0.46124020194158977
-0.43057109264707577,-0.43057109264707577
-0.40723590079255423,-0.40723590079255423
-0.37856695079985636,-0.37856695079985636
-0.36056551708351114,-0.36056551708351114
-0.3458976822035262,-0.3458976822035262
-0.3398972042980778,-0.3398972042980778
-0.3365636054617176,-0.3365636054617176
-0.3345634461599014,-0.3345634461599014
-0.33589688569444554,-0.33589688569444554
-0.33923048453080573,-0.33923048453080573
-0.3478978415053423,-0.3478978415053423
-0.3612322368507832,-0.3612322368507832
-0.37590007173076817,-0.37590007173076817
-0.39256806591256926,-0.39256806591256926
-0.4025688624216499,-0.4025688624216499
-0.4052357414907381,-0.4052357414907381
-0.3979018240507456,-0.3979018240507456
-0.3859008682398488,-0.3859008682398488
-0.36856615429077566,-0.36856615429077566
-0.3492312810398864,-0.3492312810398864
-0.32456264965082077,-0.32456264965082077
-0.29656041942539496,-0.29656041942539496
-0.2598908322254325,-0.2598908322254325
-0.21655404735274966,-0.21655404735274966
-0.16454990550553025,-0.16454990550553025
-0.10854544505467857,-0.10854544505467857
-0.04454034739656235,-0.04454034739656235
0.025465228167002252,0.025465228167002252
0.10280472117055935,0.10280472117055935
0.18614469207956483,0.18614469207956483
0.2768185804285628,0.2768185804285628
0.37482638621755326,0.37482638621755326
0.48016810944653615,0.48016810944653615
0.5941771896500557,0.5941771896500557
0.7121865884572074,0.7121865884572074
0.8355297454025356,0.8355297454025356
0.9528724244424153,0.9528724244424153
1.0608810267404865,1.0608810267404865
1.1508881953222123,1.1508881953222123
1.2268942487912253,1.2268942487912253
1.2855655883111652,1.2855655883111652
1.3322359720202082,1.3322359720202082
1.3655719603838106,1.3655719603838106
1.38824043247106,1.38824043247106
1.3922407510746924,1.3922407510746924
1.3749060371256192,1.3749060371256192
1.3349028510892964,1.3349028510892964
1.2748980720348124,1.2748980720348124
1.1968918592639832,1.1968918592639832
1.1055512511477132,1.1055512511477132
1.0042098465223626,1.0042098465223626
0.8988681232933797,0.8988681232933797
0.7908595209953087,0.7908595209953087
0.6855177977663257,0.6855177977663257
0.5868432722100632,0.5868432722100632
0.5001697024646975,0.5001697024646975
0.4261638082975006,0.4261638082975006
0.36215871063938443,0.36215871063938443
0.30815440949034884,0.30815440949034884
0.2614840257813058,0.2614840257813058
0.22281427927952724,0.22281427927952724
0.19014501068319709,0.19014501068319709
0.1661430990614035,0.1661430990614035
0.14947510487960242,0.14947510487960242
0.13947430837052174,0.13947430837052174
0.12880679209416906,0.12880679209416906
0.12213959442144862,0.12213959442144862
0.11747255605054431,0.11747255605054431
0.11813927581781634,0.11813927581781634
0.11747255605054431,0.11747255605054431
0.12280631418872066,0.12280631418872066
0.1294735118614411,0.1294735118614411
0.1388075886032497,0.1388075886032497
0.14147446767233787,0.14147446767233787
0.14414134674142606,0.14414134674142606
0.1461415060432422,0.1461415060432422
0.15014182464687445,0.15014182464687445
0.15480886301777877,0.15480886301777877
0.16414293975958738,0.16414293975958738
0.1781440548723003,0.1781440548723003
0.1934786095195573,0.1934786095195573
0.20681300486499818,0.20681300486499818
0.21881396067589498,0.21881396067589498
0.23148163625406382,0.23148163625406382
0.24414931183223265,0.24414931183223265
0.25481682810858536,0.25481682810858536
0.26548434438493806,0.26548434438493806
0.2754851408940187,0.2754851408940187
0.2841524978685553,0.2841524978685553
0.2921531350758198,0.2921531350758198
0.2981536129812682,0.2981536129812682
0.30348737111944457,0.30348737111944457
0.30682096995580477,0.30682096995580477
0.30815440949034884,0.30815440949034884
0.30748768972307683,0.30748768972307683
0.30748768972307683,0.30748768972307683
0.3088211292576209,0.3088211292576209
0.3121547280939811,0.3121547280939811
0.3161550466976134,0.3161550466976134
0.32015536530124566,0.32015536530124566
0.3194886455339736,0.3194886455339736
0.3148216071630693,0.3148216071630693
0.30682096995580477,0.30682096995580477
0.3001537722830843,0.3001537722830843
0.29615345367945206,0.29615345367945206
0.29615345367945206,0.29615345367945206
0.29615345367945206,0.29615345367945206
0.294820014144908,0.294820014144908
0.2874860967049155,0.2874860967049155
0.27615186066129077,0.27615186066129077
0.2614840257813058,0.2614840257813058
0.2481496304358649,0.2481496304358649
0.23348179555587995,0.23348179555587995
0.21814724090862292,0.21814724090862292
0.20147924672682183,0.20147924672682183
0.18747813161410892,0.18747813161410892
0.17681061533775622,0.17681061533775622
0.17147685719957986,0.17147685719957986
0.16880997813049167,0.16880997813049167
0.16547637929413148,0.16547637929413148
0.15880918162141103,0.15880918162141103
0.1474749455777863,0.1474749455777863
0.13280711069780132,0.13280711069780132
0.11480567698145613,0.11480567698145613
0.09480408396329482,0.09480408396329482
0.07280233164331737,0.07280233164331737
0.05080057932333992,0.05080057932333992
0.0307989863051786,0.0307989863051786
0.015464431657921595,0.015464431657921595
0.005463635148840936,0.005463635148840936
0.00012987701066458519,0.00012987701066458519
-0.00253700205842359,-0.00253700205842359
-0.00587060089478381,-0.00587060089478381
-0.009870919498416073,-0.009870919498416073
-0.01453795786932038,-0.01453795786932038
-0.01853827647295264,-0.01853827647295264
-0.02320531484385695,-0.02320531484385695
-0.026538913680217168,-0.026538913680217168
-0.027205633447489212,-0.027205633447489212
-0.01853827647295264,-0.01853827647295264
0.001463316545208673,0.001463316545208673
0.03813290374517109,0.03813290374517109
0.09013704559239051,0.09013704559239051
0.1554755827850508,0.1554755827850508
0.22348099904679927,0.22348099904679927
0.2848192176358273,0.2848192176358273
0.3241556839048779,0.3241556839048779
0.3381567990175908,0.3381567990175908
0.3141548873957972,0.3141548873957972
0.2601505862467617,0.2601505862467617
0.17947749440684438,0.17947749440684438
0.09680424326511095,0.09680424326511095
0.015464431657921595,0.015464431657921595
-0.04454034739656235,-0.04454034739656235
-0.08854385203651725,-0.08854385203651725
-0.10787872528740652,-0.10787872528740652
-0.11654608226194309,-0.11654608226194309
-0.11254576365831083,-0.11254576365831083
-0.10854544505467857,-0.10854544505467857
-0.10121152761468609,-0.10121152761468609
-0.10521184621831835,-0.10521184621831835
-0.11854624156375923,-0.11854624156375923
-0.14654847178918506,-0.14654847178918506
-0.18255133922187544,-0.18255133922187544
-0.23322204153455078,-0.23322204153455078
-0.29522697989085084,-0.29522697989085084
-0.37389991242895204,-0.37389991242895204
-0.4605734821743177,-0.4605734821743177
-0.5525808100578598,-0.5525808100578598
-0.6419212588723137,-0.6419212588723137
-0.723927790246775,-0.723927790246775
-0.7966002448794278,-0.7966002448794278
-0.8626055018393601,-0.8626055018393601
-0.9226102808938441,-0.9226102808938441
-0.9746144227410636,-0.9746144227410636
-1.0152843285446582,-1.0152843285446582
-1.0539540750464367,-1.0539540750464367
-1.0979575796863916,-1.0979575796863916
-1.1586290785081477,-1.1586290785081477
-1.2286346540717124,-1.2286346540717124
-1.3039739877734533,-1.3039739877734533
-1.3693125249661133,-1.3693125249661133
-1.422650106347877,-1.422650106347877
-1.4626532923841995,-1.4626532923841995
-1.5119905551623307,-1.5119905551623307
-1.575995652820447,-1.575995652820447
-1.6633359423330847,-1.6633359423330847
-1.7533431109148105,-1.7533431109148105
-1.8460171585656246,-1.8460171585656246
-1.9160227341291893,-1.9160227341291893
-1.970027035278225,-1.970027035278225
-1.9880284689945702,-1.9880284689945702
-1.9973625457363786,-1.9973625457363786
-1.9826947108563937,-1.9826947108563937
-1.972693914347313,-1.972693914347313
-1.9426915248200711,-1.9426915248200711
-1.9233566515691818,-1.9233566515691818
-1.8860203446019475,-1.8860203446019475
-1.8520176364710732,-1.8520176364710732
-1.7920128574165892,-1.7920128574165892
-1.7326747981293773,-1.7326747981293773
-1.6593356237294525,-1.6593356237294525
-1.6046646028131448,-1.6046646028131448
-1.5599943784059178,-1.5599943784059178
-1.5506603016641094,-1.5506603016641094
-1.562661257475006,-1.562661257475006
-1.6039978830458728,-1.6039978830458728
-1.6573354644276364,-1.6573354644276364
-1.7333415178966494,-1.7333415178966494
-1.8246821260129193,-1.8246821260129193
-1.9446916841218873,-1.9446916841218873
-2.07936907711084,-2.07936907711084
-2.232047903816138,-2.232047903816138
-2.3787262526159876,-2.3787262526159876
-2.515403804906757,-2.515403804906757
-2.6267460060411882,-2.6267460060411882
-2.720086773459274,-2.720086773459274
-2.789425629255567,-2.789425629255567
-2.8454300897064186,-2.8454300897064186
-2.878766078070021,-2.878766078070021
-2.900101110622726,-2.900101110622726
-2.902767989691814,-2.902767989691814
-2.9087684675972625,-2.9087684675972625
-2.917435824571799,-2.917435824571799
-2.946104774564497,-2.946104774564497
-2.987441400135364,-2.987441400135364
-3.035445223378951,-3.035445223378951
-3.0867826454588982,-3.0867826454588982
-3.1161183152188685,-3.1161183152188685
-3.141453666375206,-3.141453666375206
-3.140786946607934,-3.140786946607934
-3.14278710590975,-3.14278710590975
-3.141453666375206,-3.141453666375206
-3.138120067538846,-3.138120067538846
-3.1501210233497425,-3.1501210233497425
-3.1514544628842867,-3.1514544628842867
-3.1741229349715363,-3.1741229349715363
-3.1781232535751682,-3.1781232535751682
-3.2114592419387704,-3.2114592419387704
-3.235461153560564,-3.235461153560564
-3.2867985756405114,-3.2867985756405114
-3.294132493080504,-3.294132493080504
-3.2387947523969243,-3.2387947523969243
-2.9967754768771724,-2.9967754768771724
-2.5080698874667644,-2.5080698874667644
-1.6840042551185181,-1.6840042551185181
-0.5745825623778372,-0.5745825623778372
0.7135200279917515,0.7135200279917515
1.934283921866864,1.934283921866864
2.845689843727748,2.845689843727748
3.2123857157273723,3.2123857157273723
2.966366121603988,2.966366121603988
2.1696359997138956,2.1696359997138956
1.0442130325586854,1.0442130325586854
-0.16721678457461842,-0.16721678457461842
-1.2439692087189693,-1.2439692087189693
-2.092703472456281,-2.092703472456281
-2.702085339742929,-2.702085339742929
-3.13945350707339,-3.13945350707339
-3.4514783581567063,-3.4514783581567063
-3.670829161589209,-3.670829161589209
-3.78217136272364,-3.78217136272364
-3.793505598767265,-3.793505598767265
-3.7121657871600755,-3.7121657871600755
-3.5994901464911,-3.5994901464911
-3.488814665123941,-3.488814665123941
-3.4368105232767214,-3.4368105232767214
-3.427476446534913,-3.427476446534913
-3.464812753502147,-3.464812753502147
-3.5041492197711976,-3.5041492197711976
-3.5394853674366162,-3.5394853674366162
-3.556153361618417,-3.556153361618417
-3.5601536802220495,-3.5601536802220495
-3.5501528837129688,-3.5501528837129688
-3.5421522465057045,-3.5421522465057045
-3.523484093022087,-3.523484093022087
-3.519483774418455,-3.519483774418455
-3.4961485825639333,-3.4961485825639333
-3.493481703494845,-3.493481703494845
-3.4721466709421396,-3.4721466709421396
-3.474813550011228,-3.474813550011228
-3.460145715131243,-3.460145715131243
-3.472813390709412,-3.472813390709412
-3.4681463523385077,-3.4681463523385077
-3.4834809069857644,-3.4834809069857644
-3.477480429080316,-3.477480429080316
-3.4814807476839484,-3.4814807476839484
-3.4668129128039635,-3.4668129128039635
-3.459478995363971,-3.459478995363971
-3.4388106825785374,-3.4388106825785374
-3.4288098860694567,-3.4288098860694567
-3.4114751721203835,-3.4114751721203835
-3.402141095378575,-3.402141095378575
-3.382806222127686,-3.382806222127686
-3.3621379093422523,-3.3621379093422523
-3.3261350419095623,-3.3261350419095623
-3.2841316965714236,-3.2841316965714236
-3.23079411518966,-3.23079411518966
-3.176789814040624,-3.176789814040624
-3.1147848756843244,-3.1147848756843244
-3.048779618724392,-3.048779618724392
-2.9687732466517467,-2.9687732466517467
-2.8760991990009326,-2.8760991990009326
-2.7640902780992294,-2.7640902780992294
-2.641413840921173,-2.641413840921173
-2.502736129328588,-2.502736129328588
-2.3600580991323707,-2.3600580991323707
-2.2073792724270724,-2.2073792724270724
-2.0553671654890464,-2.0553671654890464
-1.894020981809212,-1.894020981809212
-1.7386752760348256,-1.7386752760348256
-1.5793292516568072,-1.5793292516568072
-1.4333176226242297,-1.4333176226242297
-1.284639114522564,-1.284639114522564
-1.1532953203699714,-1.1532953203699714
-1.0232849657519227,-1.0232849657519227
-0.9172765227556677,-0.9172765227556677
-0.8132682390612289,-0.8132682390612289
-0.7392623448940321,-0.7392623448940321
-0.6719236483995557,-0.6719236483995557
-0.6405878193377695,-0.6405878193377695
-0.616585907715976,-0.616585907715976
-0.6292535832941448,-0.6292535832941448
-0.648588456545034,-0.648588456545034
-0.6959255600213492,-0.6959255600213492
-0.737928905359488,-0.737928905359488
-0.7959335251121558,-0.7959335251121558
-0.843937348355743,-0.843937348355743
-0.8986083692720506,-0.8986083692720506
-0.9372781157738291,-0.9372781157738291
-0.9772813018101517,-0.9772813018101517
-1.0026166529664895,-1.0026166529664895
-1.025285125053739,-1.025285125053739
-1.0306188831919152,-1.0306188831919152
-1.0306188831919152,-1.0306188831919152
-1.0186179273810185,-1.0186179273810185
-1.0026166529664895,-1.0026166529664895
-0.9792814611119679,-0.9792814611119679
-0.9572797087919904,-0.9572797087919904
-0.9346112367047409,-0.9346112367047409
-0.9152763634538517,-0.9152763634538517
-0.8939413309011462,-0.8939413309011462
-0.8732730181157129,-0.8732730181157129
-0.8506045460284634,-0.8506045460284634
-0.8272693541739419,-0.8272693541739419
-0.8026007227848763,-0.8026007227848763
-0.7759319320939945,-0.7759319320939945
-0.7445961030322085,-0.7445961030322085
-0.7119268344358782,-0.7119268344358782
-0.677257406537732,-0.677257406537732
-0.64725501701049,-0.64725501701049
-0.617252627483248,-0.617252627483248
-0.5925839960941824,-0.5925839960941824
-0.5672486449378448,-0.5672486449378448
-0.5432467333160512,-0.5432467333160512
-0.511244184486993,-0.511244184486993
-0.48324195426156724,-0.48324195426156724
-0.45590644380341344,-0.45590644380341344
-0.4379050100870682,-0.4379050100870682
-0.419236856603451,-0.419236856603451
-0.4079026205598263,-0.4079026205598263
-0.3945682252143854,-0.3945682252143854
-0.38523414847257675,-0.38523414847257675
-0.3672327147562316,-0.3672327147562316
-0.3532315996435187,-0.3532315996435187
-0.3345634461599014,-0.3345634461599014
-0.31989561127991645,-0.31989561127991645
-0.29789385895993903,-0.29789385895993903
-0.28189258454541,-0.28189258454541
-0.26722474966542503,-0.26722474966542503
-0.2612242717599766,-0.2612242717599766
-0.2545570740872562,-0.2545570740872562
-0.2532236345527121,-0.2532236345527121
-0.24989003571635188,-0.24989003571635188
-0.24855659618180778,-0.24855659618180778
-0.24322283804363143,-0.24322283804363143
-0.24055595897454327,-0.24055595897454327
-0.2385557996727271,-0.2385557996727271
-0.2398892392072712,-0.2398892392072712
-0.2385557996727271,-0.2385557996727271
-0.23788907990545508,-0.23788907990545508
-0.23455548106909485,-0.23455548106909485
-0.2318886020000067,-0.2318886020000067
-0.22722156362910237,-0.22722156362910237
-0.2245546845600142,-0.2245546845600142
-0.22255452525819808,-0.22255452525819808
-0.22188780549092602,-0.22188780549092602
-0.21788748688729376,-0.21788748688729376
-0.21588732758547763,-0.21588732758547763
-0.21455388805093353,-0.21455388805093353
-0.21922092642183785,-0.21922092642183785
-0.22655484386183034,-0.22655484386183034
-0.24055595897454327,-0.24055595897454327
-0.2545570740872562,-0.2545570740872562
-0.2712250682690573,-0.2712250682690573
-0.28322602407995406,-0.28322602407995406
-0.29522697989085084,-0.29522697989085084
-0.30322761709811535,-0.30322761709811535
-0.31389513337446806,-0.31389513337446806
-0.3232292101162767,-0.3232292101162767
-0.3385637647635337,-0.3385637647635337
-0.35123144034170256,-0.35123144034170256
-0.36789943452350365,-0.36789943452350365
-0.37990039033440043,-0.37990039033440043
-0.39056790661075313,-0.39056790661075313
-0.39123462637802514,-0.39123462637802514
-0.3899011868434811,-0.3899011868434811
-0.3839007089380327,-0.3839007089380327
-0.3805671101016725,-0.3805671101016725
-0.3765667914980402,-0.3765667914980402
-0.3779002310325843,-0.3779002310325843
-0.37923367056712837,-0.37923367056712837
-0.3832339891707606,-0.3832339891707606
-0.3839007089380327,-0.3839007089380327
-0.3872343077743929,-0.3872343077743929
-0.389234467076209,-0.389234467076209
-0.39056790661075313,-0.39056790661075313
-0.38790102754166494,-0.38790102754166494
-0.37990039033440043,-0.37990039033440043
-0.36856615429077566,-0.36856615429077566
-0.3558984787126068,-0.3558984787126068
-0.3445642426689821,-0.3445642426689821
-0.33789704499626166,-0.33789704499626166
-0.3352301659271735,-0.3352301659271735
-0.3365636054617176,-0.3365636054617176
-0.3365636054617176,-0.3365636054617176
-0.3338967263926294,-0.3338967263926294
-0.32389592988354876,-0.32389592988354876
-0.30589449616720354,-0.30589449616720354
-0.27589210663996155,-0.27589210663996155
-0.23722236013818304,-0.23722236013818304
-0.18588493805823567,-0.18588493805823567
-0.11787952179648718,-0.11787952179648718
-0.02120515554204082,-0.02120515554204082
0.10480488047237548,0.10480488047237548
0.2594838664794897,0.2594838664794897
0.4214967699265963,0.4214967699265963
0.5728421570973503,0.5728421570973503
0.6848510779990536,0.6848510779990536
0.751523054726258,0.751523054726258
0.7735248070462355,0.7735248070462355
0.7728580872789634,0.7728580872789634
0.7555233733298903,0.7555233733298903
0.7335216210099128,0.7335216210099128
0.6935184349735902,0.6935184349735902
0.6341803756863783,0.6341803756863783
0.5401728885010201,0.5401728885010201
0.4228302094611404,0.4228302094611404
0.2848192176358273,0.2848192176358273
0.14814166534505832,0.14814166534505832
0.018798030494281814,0.018798030494281814
-0.08721041250197316,-0.08721041250197316
-0.17255054271279477,-0.17255054271279477
-0.2318886020000067,-0.2318886020000067
-0.2718917880363293,-0.2718917880363293
-0.29189338105449064,-0.29189338105449064
-0.30322761709811535,-0.30322761709811535
-0.30856137523629174,-0.30856137523629174
-0.3152285729090122,-0.3152285729090122
-0.3205623310471885,-0.3205623310471885
-0.32389592988354876,-0.32389592988354876
-0.32389592988354876,-0.32389592988354876
-0.3172287322108283,-0.3172287322108283
-0.31189497407265193,-0.31189497407265193
-0.2992272984944831,-0.2992272984944831
-0.3012274577962992,-0.3012274577962992
-0.29522697989085084,-0.29522697989085084
-0.3038943368653874,-0.3038943368653874
-0.3045610566326595,-0.3045610566326595
-0.3098948147708358,-0.3098948147708358
-0.3145618531417401,-0.3145618531417401
-0.3152285729090122,-0.3152285729090122
-0.31989561127991645,-0.31989561127991645
-0.3185621717453724,-0.3185621717453724
-0.32456264965082077,-0.32456264965082077
-0.3345634461599014,-0.3345634461599014
-0.3645658356871434,-0.3645658356871434
-0.4005687031198338,-0.4005687031198338
-0.4332379717161639,-0.4332379717161639
-0.3999019833525617,-0.3999019833525617
-0.22122108572365398,-0.22122108572365398
0.21214676300317453,0.21214676300317453
0.9662068197878562,0.9662068197878562
2.0456261230012953,2.0456261230012953
3.330395114534524,3.330395114534524
4.609830347929576,4.609830347929576
5.603242801164921,5.603242801164921
6.089948231273513,6.089948231273513
5.959937876655465,5.959937876655465
5.286550911710701,5.286550911710701
4.256468871275393,4.256468871275393
3.1230452669129183,3.1230452669129183
2.0822957102012576,2.0822957102012576
1.2415620836712102,1.2415620836712102
0.598177508253688,0.598177508253688
0.11413895721418409,0.11413895721418409
-0.25855739269088845,-0.25855739269088845
-0.525245299599706,-0.525245299599706
-0.6819244449086362,-0.6819244449086362
-0.7199274716431427,-0.7199274716431427
-0.6719236483995557,-0.6719236483995557
-0.5805830402832857,-0.5805830402832857
-0.5099107449524489,-0.5099107449524489
-0.47590803682157473,-0.47590803682157473
-0.4965763496070081,-0.4965763496070081
-0.5332459368069705,-0.5332459368069705
-0.5732491228432931,-0.5732491228432931
-0.5932507158614545,-0.5932507158614545
-0.5892503972578222,-0.5892503972578222
-0.5785828809814695,-0.5785828809814695
-0.5519140902905877,-0.5519140902905877
-0.5319124972724264,-0.5319124972724264
-0.5059104263488167,-0.5059104263488167
-0.4859088333306554,-0.4859088333306554
-0.46657396007976615,-0.46657396007976615
-0.44790580659614887,-0.44790580659614887
-0.4325712519488919,-0.4325712519488919
-0.41990357637072306,-0.41990357637072306
-0.41190293916345855,-0.41190293916345855
-0.403902301956194,-0.403902301956194
-0.3999019833525617,-0.3999019833525617
-0.39523494498165745,-0.39523494498165745
-0.39256806591256926,-0.39256806591256926
-0.388567747308937,-0.388567747308937
-0.3872343077743929,-0.3872343077743929
-0.389234467076209,-0.389234467076209
-0.39256806591256926,-0.39256806591256926
-0.39256806591256926,-0.39256806591256926
-0.3872343077743929,-0.3872343077743929
-0.3765667914980402,-0.3765667914980402
-0.3598987973162391,-0.3598987973162391
-0.3372303252289896,-0.3372303252289896
-0.31322841360719605,-0.31322841360719605
-0.28922650198540245,-0.28922650198540245
-0.2625577112945207,-0.2625577112945207
-0.22788828339637443,-0.22788828339637443
-0.18455149852369157,-0.18455149852369157
-0.1318806369092001,-0.1318806369092001
-0.06920897878562798,-0.06920897878562798
0.004130195614296848,0.004130195614296848
0.08413656768694211,0.08413656768694211
0.17014341766503577,0.17014341766503577
0.2621507455485778,0.2621507455485778
0.3634921501739285,0.3634921501739285
0.47150075247199963,0.47150075247199963
0.5855098326755191,0.5855098326755191
0.7008523524135827,0.7008523524135827
0.8155281523843743,0.8155281523843743
0.9202031558460851,0.9202031558460851
1.012210483729627,1.012210483729627
1.0888832569659121,1.0888832569659121
1.1542217941585726,1.1542217941585726
1.207559375540336,1.207559375540336
1.251562880180291,1.251562880180291
1.282898709242077,1.282898709242077
1.298899983656606,1.298899983656606
1.2935662255184297,1.2935662255184297
1.266897434827548,1.266897434827548
1.2182268918166888,1.2182268918166888
1.1542217941585726,1.1542217941585726
1.0775490209222875,1.0775490209222875
0.9922088907114659,0.9922088907114659
0.8988681232933797,0.8988681232933797
0.7981934384353011,0.7981934384353011
0.6921849954390461,0.6921849954390461
0.5888434315118793,0.5888434315118793
0.492169065257433,0.492169065257433
0.4074956548138834,0.4074956548138834
0.3394902385521349,0.3394902385521349
0.2861526571703714,0.2861526571703714
0.24548275136677672,0.24548275136677672
0.20947988393408637,0.20947988393408637
0.17881077463957235,0.17881077463957235
0.14880838511233035,0.14880838511233035
0.12613991302508087,0.12613991302508087
0.10880519907600773,0.10880519907600773
0.10547160023964752,0.10547160023964752
0.10947191884327978,0.10947191884327978
0.12413975372326475,0.12413975372326475
0.13680742930143358,0.13680742930143358
0.14814166534505832,0.14814166534505832
0.14880838511233035,0.14880838511233035
0.1461415060432422,0.1461415060432422
0.1388075886032497,0.1388075886032497
0.13480726999961745,0.13480726999961745
0.13347383046507336,0.13347383046507336
0.1388075886032497,0.1388075886032497
0.14547478627597016,0.14547478627597016
0.15614230255232286,0.15614230255232286
0.16680981882867554,0.16680981882867554
0.17881077463957235,0.17881077463957235
0.19014501068319709,0.19014501068319709
0.20147924672682183,0.20147924672682183
0.2114800432359025,0.2114800432359025
0.22014740021043908,0.22014740021043908
0.22748131765043156,0.22748131765043156
0.23348179555587995,0.23348179555587995
0.2388155536940563,0.2388155536940563
0.2434825920649606,0.2434825920649606
0.2481496304358649,0.2481496304358649
0.25214994903949717,0.25214994903949717
0.25481682810858536,0.25481682810858536
0.2561502676431294,0.2561502676431294
0.25481682810858536,0.25481682810858536
0.25281666880676923,0.25281666880676923
0.25214994903949717,0.25214994903949717
0.25348338857404124,0.25348338857404124
0.2594838664794897,0.2594838664794897
0.26548434438493806,0.26548434438493806
0.27148482229038645,0.27148482229038645
0.2734849815922026,0.2734849815922026
0.27215154205765846,0.27215154205765846
0.264817624617666,0.264817624617666
0.25548354787585736,0.25548354787585736
0.24281587229768856,0.24281587229768856
0.23148163625406382,0.23148163625406382
0.2221475595122552,0.2221475595122552
0.21948068044316701,0.21948068044316701
0.22148083974498314,0.22148083974498314
0.22748131765043156,0.22748131765043156
0.23148163625406382,0.23148163625406382
0.23081491648679175,0.23081491648679175
0.22281427927952724,0.22281427927952724
0.20747972463227024,0.20747972463227024
0.18747813161410892,0.18747813161410892
0.1674765385959476,0.1674765385959476
0.14814166534505832,0.14814166534505832
0.13014023162871313,0.13014023162871313
0.11347223744691204,0.11347223744691204
0.09813768279965504,0.09813768279965504
0.08280312815239803,0.08280312815239803
0.06546841420332489,0.06546841420332489
0.049467139788795834,0.049467139788795834
0.03346586537426678,0.03346586537426678
0.018798030494281814,0.018798030494281814
0.0007965967779366291,0.0007965967779366291
-0.01587139740386447,-0.01587139740386447
-0.03187267181839352,-0.03187267181839352
-0.043206907862018265,-0.043206907862018265
-0.051207545069282795,-0.051207545069282795
-0.04987410553473871,-0.04987410553473871
-0.039206589258386,-0.039206589258386
-0.020538435774768774,-0.020538435774768774
0.001463316545208673,0.001463316545208673
0.025465228167002252,0.025465228167002252
0.050133859556067875,0.050133859556067875
0.07213561187604532,0.07213561187604532
0.0961375234978389,0.0961375234978389
0.12880679209416906,0.12880679209416906
0.19081173045046912,0.19081173045046912
0.28815281647218755,0.28815281647218755
0.42816396759931674,0.42816396759931674
0.5935104698827837,0.5935104698827837
0.7621905710026108,0.7621905710026108
0.8982014035261077,0.8982014035261077
0.9828748139696573,0.9828748139696573
1.0108770441950832,1.0108770441950832
1.0008762476860025,1.0008762476860025
0.9688736988569443,0.9688736988569443
0.9315373918897099,0.9315373918897099
0.8862004477152109,0.8862004477152109
0.8255289488934549,0.8255289488934549
0.7368552198462731,0.7368552198462731
0.6181791012718493,0.6181791012718493
0.47683451061017595,0.47683451061017595
0.32948944204305425,0.32948944204305425
0.19014501068319709,0.19014501068319709
0.07280233164331737,0.07280233164331737
-0.01987171600749673,-0.01987171600749673
-0.08387681366561295,-0.08387681366561295
-0.12387999970193557,-0.12387999970193557
-0.13988127411646462,-0.13988127411646462
-0.14054799388373668,-0.14054799388373668
-0.12921375784011194,-0.12921375784011194
-0.1105456043564947,-0.1105456043564947
-0.07987649506198068,-0.07987649506198068
-0.034539550887481694,-0.034539550887481694
0.029465546770634517,0.029465546770634517
0.11613911651600022,0.11613911651600022
0.2161470816068068,0.2161470816068068
0.31548832693034135,0.31548832693034135
0.37282622691573714,0.37282622691573714
0.39016094086481024,0.39016094086481024
0.33082288157759837,0.33082288157759837
0.24081571299587243,0.24081571299587243
0.10813847930873569,0.10813847930873569
-0.00253700205842359,-0.00253700205842359
-0.08721041250197316,-0.08721041250197316
-0.13121391714192807,-0.13121391714192807
-0.14588175202191303,-0.14588175202191303
-0.14921535085827325,-0.14921535085827325
-0.1438815927200969,-0.1438815927200969
-0.15854942760008187,-0.15854942760008187
-0.18921853689459586,-0.18921853689459586
-0.2545570740872562,-0.2545570740872562
-0.32189577058173263,-0.32189577058173263
-0.38190054963621656,-0.38190054963621656
-0.3492312810398864,-0.3492312810398864
-0.14654847178918506,-0.14654847178918506
0.34015695831940695,0.34015695831940695
1.147554596485852,1.147554596485852
2.247642212484725,2.247642212484725
3.4784069028689175,3.4784069028689175
4.603829870024128,4.603829870024128
5.351222729136089,5.351222729136089
5.533903945368628,5.533903945368628
5.104536415245432,5.104536415245432
4.186463295711828,4.186463295711828
3.000368829734862,3.000368829734862
1.7882722928342865,1.7882722928342865
0.7141867477590236,0.7141867477590236
-0.15388238922917755,-0.15388238922917755
-0.8352699913812064,-0.8352699913812064
-1.3686458051988413,-1.3686458051988413
-1.7833455004420526,-1.7833455004420526
-2.0700350003690313,-2.0700350003690313
-2.225380706143418,-2.225380706143418
-2.2553830956706595,-2.2553830956706595
-2.2087127119616166,-2.2087127119616166
-2.1333733782598756,-2.1333733782598756
-2.094036911990825,-2.094036911990825
-2.0967037910599133,-2.0967037910599133
-2.158042009648941,-2.158042009648941
-2.2420487003252187,-2.2420487003252187
-2.3467237037869295,-2.3467237037869295
-2.4493985479468243,-2.4493985479468243
-2.545406194433999,-2.545406194433999
-2.625412566506644,-2.625412566506644
-2.6814170269574955,-2.6814170269574955
-2.7087525374156494,-2.7087525374156494
-2.7227536525283624,-2.7227536525283624
-2.7207534932265465,-2.7207534932265465
-2.7394216467101637,-2.7394216467101637
-2.7580898001937806,-2.7580898001937806
-2.80342674436828,-2.80342674436828
-2.836762732731882,-2.836762732731882
-2.884766555975469,-2.884766555975469
-2.9087684675972625,-2.9087684675972625
-2.9494383734008576,-2.9494383734008576
-2.976107164091739,-2.976107164091739
-3.026111146637142,-3.026111146637142
-3.0687812117425532,-3.0687812117425532
-3.124118952426133,-3.124118952426133
-3.1601218198588232,-3.1601218198588232
-3.1961246872915137,-3.1961246872915137
-3.2107925221714986,-3.2107925221714986
-3.2261270768187558,-3.2261270768187558
-3.2261270768187558,-3.2261270768187558
-3.2334609942587482,-3.2334609942587482
-3.23412771402602,-3.23412771402602
-3.242128351233285,-3.242128351233285
-3.2387947523969243,-3.2387947523969243
-3.232127554724204,-3.232127554724204
-3.2094590826369545,-3.2094590826369545
-3.176789814040624,-3.176789814040624
-3.122118793124317,-3.122118793124317
-3.0581136954662007,-3.0581136954662007
-2.9794407629280992,-2.9794407629280992
-2.900767830389998,-2.900767830389998
-2.8154277001791765,-2.8154277001791765
-2.7354213281065314,-2.7354213281065314
-2.6500811978957097,-2.6500811978957097
-2.566741226986704,-2.566741226986704
-2.470066860732258,-2.470066860732258
-2.3760593735468998,-2.3760593735468998
-2.278051567757909,-2.278051567757909
-2.2020455142888964,-2.2020455142888964
-2.1353735375616916,-2.1353735375616916
-2.096037071292641,-2.096037071292641
-2.050700127118142,-2.050700127118142
-2.0146972596854518,-2.0146972596854518
-1.9613596783036884,-1.9613596783036884
-1.9280236899400862,-1.9280236899400862
-1.9006881794819324,-1.9006881794819324
-1.92602353063827,-1.92602353063827
-1.9740273538818571,-1.9740273538818571
-2.074702038739936,-2.074702038739936
-2.1767101631325585,-2.1767101631325585
-2.3140544351905996,-2.3140544351905996
-2.4393977514377436,-2.4393977514377436
-2.592076578143042,-2.592076578143042
-2.7260872513647225,-2.7260872513647225
-2.869432001328212,-2.869432001328212
-2.973440285022651,-2.973440285022651
-3.062780733837105,-3.062780733837105
-3.1047840791752437,-3.1047840791752437
-3.1354531884697576,-3.1354531884697576
-3.1387867873061177,-3.1387867873061177
-3.1474541442806543,-3.1474541442806543
-3.144787265211566,-3.144787265211566
-3.1501210233497425,-3.1501210233497425
-3.144787265211566,-3.144787265211566
-3.144120545444294,-3.144120545444294
-3.1374533477715736,-3.1374533477715736
-3.138120067538846,-3.138120067538846
-3.1367866280043017,-3.1367866280043017
-3.143453825677022,-3.143453825677022
-3.1487875838151984,-3.1487875838151984
-3.156788221022463,-3.156788221022463
-3.156121501255191,-3.156121501255191
-3.1547880617206467,-3.1547880617206467
-3.1487875838151984,-3.1487875838151984
-3.14612070474611,-3.14612070474611
-3.140786946607934,-3.140786946607934
-3.144120545444294,-3.144120545444294
-3.143453825677022,-3.143453825677022
-3.1481208640479266,-3.1481208640479266
-3.140120226840662,-3.140120226840662
-3.1347864687024853,-3.1347864687024853
-3.1161183152188685,-3.1161183152188685
-3.1067842384770596,-3.1067842384770596
-3.0881160849934424,-3.0881160849934424
-3.085449205924354,-3.085449205924354
-3.0714480908116415,-3.0714480908116415
-3.0727815303461856,-3.0727815303461856
-3.0581136954662007,-3.0581136954662007
-3.0581136954662007,-3.0581136954662007
-3.038778822215311,-3.038778822215311
-3.038778822215311,-3.038778822215311
-3.022777547800782,-3.022777547800782
-3.0267778664044145,-3.0267778664044145
-3.0094431524553413,-3.0094431524553413
-3.0094431524553413,-3.0094431524553413
-2.990774998971724,-2.990774998971724
-2.990774998971724,-2.990774998971724
-2.975440444324467,-2.975440444324467
-2.978107323393555,-2.978107323393555
-2.9667730873499303,-2.9667730873499303
-2.9667730873499303,-2.9667730873499303
-2.947438214099041,-2.947438214099041
-2.9341038187536004,-2.9341038187536004
-2.907435028062719,-2.907435028062719
-2.8901003141136457,-2.8901003141136457
-2.8634315234227636,-2.8634315234227636
-2.8460968094736905,-2.8460968094736905
-2.8234283373864413,-2.8234283373864413
-2.80342674436828,-2.80342674436828
-2.7754245141428537,-2.7754245141428537
-2.747422283917428,-2.747422283917428
-2.71541973508837,-2.71541973508837
-2.685417345561128,-2.685417345561128
-2.651414637430254,-2.651414637430254
-2.6180786490666517,-2.6180786490666517
-2.578075463030329,-2.578075463030329
-2.5367388374594624,-2.5367388374594624
-2.486734854914059,-2.486734854914059
-2.4347307130668394,-2.4347307130668394
-2.3740592142450834,-2.3740592142450834
-2.3100541165869672,-2.3100541165869672
-2.2360482224197704,-2.2360482224197704
-2.1620423282525736,-2.1620423282525736
-2.0773689178090238,-2.0773689178090238
-1.9940289469000185,-1.9940289469000185
-1.8880205039037634,-1.8880205039037634
-1.7640106271911633,-1.7640106271911633
-1.593997086536792,-1.593997086536792
-1.3979814749588113,-1.3979814749588113
-1.1719634738535885,-1.1719634738535885
-0.9639469064647108,-0.9639469064647108
-0.7759319320939945,-0.7759319320939945
-0.6499218960795782,-0.6499218960795782
-0.5585812879633082,-0.5585812879633082
-0.5159112228578974,-0.5159112228578974
-0.479241635657935,-0.479241635657935
-0.4705742786833984,-0.4705742786833984
-0.4685741193815823,-0.4685741193815823
-0.5085773054179049,-0.5085773054179049
-0.5739158426105652,-0.5739158426105652
-0.6859247635122686,-0.6859247635122686
-0.8099346402248687,-0.8099346402248687
-0.9472789122829097,-0.9472789122829097
-1.0619547122537012,-1.0619547122537012
-1.1599625180426918,-1.1599625180426918
-1.2199672970971758,-1.2199672970971758
-1.25730360406441,-1.25730360406441
-1.2639708017371305,-1.2639708017371305
-1.2586370435989542,-1.2586370435989542
-1.240635609882609,-1.240635609882609
-1.2266344947698962,-1.2266344947698962
-1.2126333796571833,-1.2126333796571833
-1.2039660226826467,-1.2039660226826467
-1.1912983471044778,-1.1912983471044778
-1.1726301936208605,-1.1726301936208605
-1.1432945238608907,-1.1432945238608907
-1.1066249366609282,-1.1066249366609282
-1.0706220692282378,-1.0706220692282378
-1.0306188831919152,-1.0306188831919152
-1.0039500925010334,-1.0039500925010334
-0.9666137855337991,-0.9666137855337991
-0.9479456320501818,-0.9479456320501818
-0.9159430832211237,-0.9159430832211237
-0.8999418088065947,-0.8999418088065947
-0.8799402157884333,-0.8799402157884333
-0.8672725402102645,-0.8672725402102645
-0.8566050239339118,-0.8566050239339118
-0.8399370297521107,-0.8399370297521107
-0.8306029530103021,-0.8306029530103021
-0.8206021565012214,-0.8206021565012214
-0.8339365518466623,-0.8339365518466623
-0.8586051832357279,-0.8586051832357279
-0.9086091657811313,-0.9086091657811313
-0.9392782750756452,-0.9392782750756452
-0.9192766820574839,-0.9192766820574839
-0.7485964216358407,-0.7485964216358407
-0.3492312810398864,-0.3492312810398864
0.37015934784664895,0.37015934784664895
1.404241706885589,1.404241706885589
2.6743428635388327,2.6743428635388327
3.96844593181387,3.96844593181387
5.039864597820045,5.039864597820045
5.635912069761251,5.635912069761251
5.637245509295795,5.637245509295795
5.063199789674566,5.063199789674566
4.095122687595558,4.095122687595558
2.9656994018367158,2.9656994018367158
1.8956141753650855,1.8956141753650855
1.0028764069878187,1.0028764069878187
0.31882192576670154,0.31882192576670154
-0.19921933340367654,-0.19921933340367654
-0.5892503972578222,-0.5892503972578222
-0.8706061390466248,-0.8706061390466248
-1.0332857622610034,-1.0332857622610034
-1.0766225471336863,-1.0766225471336863
-1.0199513669155624,-1.0199513669155624
-0.9192766820574839,-0.9192766820574839
-0.8212688762684934,-0.8212688762684934
-0.7732650530249063,-0.7732650530249063
-0.7659311355849138,-0.7659311355849138
-0.7939333658103397,-0.7939333658103397
-0.8219355960357655,-0.8219355960357655
-0.8379368704502945,-0.8379368704502945
-0.8359367111484785,-0.8359367111484785
-0.8166018378975891,-0.8166018378975891
-0.7972669646466999,-0.7972669646466999
-0.7699314541885461,-0.7699314541885461
-0.7439293832649364,-0.7439293832649364
-0.7179273123413267,-0.7179273123413267
-0.6939254007195331,-0.6939254007195331
-0.6745905274686438,-0.6745905274686438
-0.6519220553813944,-0.6519220553813944
-0.6339206216650491,-0.6339206216650491
-0.616585907715976,-0.616585907715976
-0.6079185507414394,-0.6079185507414394
-0.5959175949305426,-0.5959175949305426
-0.5932507158614545,-0.5932507158614545
-0.5879169577232781,-0.5879169577232781
-0.58525007865419,-0.58525007865419
-0.5772494414469254,-0.5772494414469254
-0.571248963541477,-0.571248963541477
-0.5652484856360286,-0.5652484856360286
-0.5625816065669405,-0.5625816065669405
-0.556581128661492,-0.556581128661492
-0.5519140902905877,-0.5519140902905877
-0.541246574014235,-0.541246574014235
-0.5292456182033383,-0.5292456182033383
-0.5099107449524489,-0.5099107449524489
-0.48657555309792744,-0.48657555309792744
-0.45323956473432525,-0.45323956473432525
-0.4112362193961865,-0.4112362193961865
-0.3565651984798789,-0.3565651984798789
-0.2932268205890347,-0.2932268205890347
-0.2198876461891099,-0.2198876461891099
-0.1425481531855528,-0.1425481531855528
-0.05920818227654732,-0.05920818227654732
0.02813210723609043,0.02813210723609043
0.12280631418872066,0.12280631418872066
0.22281427927952724,0.22281427927952724
0.3288227222757822,0.3288227222757822
0.43549788503930925,0.43549788503930925
0.5415063280355642,0.5415063280355642
0.6401808535918267,0.6401808535918267
0.7315214617080967,0.7315214617080967
0.8108611140134699,0.8108611140134699
0.8808666895770345,0.8808666895770345
0.9395380290969744,0.9395380290969744
0.9895420116423777,0.9895420116423777
1.0262115988423401,1.0262115988423401
1.0502135104641337,1.0502135104641337
1.05554726860231,1.05554726860231
1.0462131918605013,1.0462131918605013
1.0162108023332594,1.0162108023332594
0.9702071383914884,0.9702071383914884
0.903535161664284,0.903535161664284
0.8235287895916388,0.8235287895916388
0.7275211431044645,0.7275211431044645
0.6255130187118417,0.6255130187118417
0.522171454784675,0.522171454784675
0.42949740713386086,0.42949740713386086
0.3501577548284876,0.3501577548284876
0.2868193769376435,0.2868193769376435
0.23481523509042404,0.23481523509042404
0.18947829091592505,0.18947829091592505
0.14547478627597016,0.14547478627597016
0.1021380014032873,0.1021380014032873
0.06146809559969262,0.06146809559969262
0.024798508399730208,0.024798508399730208
-0.00253700205842359,-0.00253700205842359
-0.02320531484385695,-0.02320531484385695
-0.03587299042202578,-0.03587299042202578
-0.04387362762929031,-0.04387362762929031
-0.0452070671638344,-0.0452070671638344
-0.043206907862018265,-0.043206907862018265
-0.03587299042202578,-0.03587299042202578
-0.026538913680217168,-0.026538913680217168
-0.01453795786932038,-0.01453795786932038
-0.0032037218256956343,-0.0032037218256956343
0.008797233985201155,0.008797233985201155
0.01813131072700977,0.01813131072700977
0.026131947934274296,0.026131947934274296
0.03413258514153882,0.03413258514153882
0.041466502581531305,0.041466502581531305
0.050133859556067875,0.050133859556067875
0.059467936297876486,0.059467936297876486
0.07080217234150124,0.07080217234150124
0.08213640838512598,0.08213640838512598
0.09413736419602277,0.09413736419602277
0.10480488047237548,0.10480488047237548
0.11547239674872818,0.11547239674872818
0.12213959442144862,0.12213959442144862
0.1268066327923529,0.1268066327923529
0.1268066327923529,0.1268066327923529
0.12613991302508087,0.12613991302508087
0.12480647349053679,0.12480647349053679
0.12747335255962497,0.12747335255962497
0.1341405502323454,0.1341405502323454
0.14680822581051423,0.14680822581051423
0.15947590138868306,0.15947590138868306
0.17014341766503577,0.17014341766503577
0.17614389557048415,0.17614389557048415
0.17947749440684438,0.17947749440684438
0.17947749440684438,0.17947749440684438
0.17881077463957235,0.17881077463957235
0.17747733510502825,0.17747733510502825
0.17414373626866803,0.17414373626866803
0.16880997813049167,0.16880997813049167
0.158142461854139,0.158142461854139
0.14547478627597016,0.14547478627597016
0.1341405502323454,0.1341405502323454
0.12613991302508087,0.12613991302508087
0.12280631418872066,0.12280631418872066
0.1234730339559927,0.1234730339559927
0.12547319325780884,0.12547319325780884
0.12613991302508087,0.12613991302508087
0.12547319325780884,0.12547319325780884
0.12547319325780884,0.12547319325780884
0.13147367116325723,0.13147367116325723
0.14414134674142606,0.14414134674142606
0.16480965952685941,0.16480965952685941
0.19414532928682934,0.19414532928682934
0.24014899322860037,0.24014899322860037
0.310821288559437,0.310821288559437
0.4154962920211479,0.4154962920211479
0.5501736850101008,0.5501736850101008
0.6995189128790386,0.6995189128790386
0.8341963058679914,0.8341963058679914
0.9282037930533497,0.9282037930533497
0.9715405779260325,0.9715405779260325
0.9755408965296648,0.9755408965296648
0.9575394628133196,0.9575394628133196
0.9375378697951583,0.9375378697951583
0.916869557009725,0.916869557009725
0.8862004477152109,0.8862004477152109
0.8248622291261829,0.8248622291261829
0.7261877035699204,0.7261877035699204
0.5908435908136954,0.5908435908136954
0.43549788503930925,0.43549788503930925
0.2754851408940187,0.2754851408940187
0.1294735118614411,0.1294735118614411
0.0021300363124807167,0.0021300363124807167
-0.099878088080142,-0.099878088080142
-0.17788430085097112,-0.17788430085097112
-0.22722156362910237,-0.22722156362910237
-0.2565572333890723,-0.2565572333890723
-0.26922490896724116,-0.26922490896724116
-0.2738919473381454,-0.2738919473381454
-0.27255850780360136,-0.27255850780360136
-0.26989162873451317,-0.26989162873451317
-0.26789146943269704,-0.26789146943269704
-0.2632244310617927,-0.2632244310617927
-0.251890195018168,-0.251890195018168
-0.23722236013818304,-0.23722236013818304
-0.22388796479274214,-0.22388796479274214
-0.2112202892145733,-0.2112202892145733
-0.20721997061094105,-0.20721997061094105
-0.20255293224003676,-0.20255293224003676
-0.21588732758547763,-0.21588732758547763
-0.22255452525819808,-0.22255452525819808
-0.23455548106909485,-0.23455548106909485
-0.23788907990545508,-0.23788907990545508
-0.2398892392072712,-0.2398892392072712
-0.24388955781090346,-0.24388955781090346
-0.24322283804363143,-0.24322283804363143
-0.25255691478544007,-0.25255691478544007
-0.2632244310617927,-0.2632244310617927
-0.2852261833817702,-0.2852261833817702
-0.31189497407265193,-0.31189497407265193
-0.3532315996435187,-0.3532315996435187
-0.388567747308937,-0.388567747308937
-0.3965683845162015,-0.3965683845162015
-0.3078946554690197,-0.3078946554690197
-0.039206589258386,-0.039206589258386
0.5061701803701459,0.5061701803701459
1.369572278987443,1.369572278987443
2.51366339962627,2.51366339962627
3.785097995814058,3.785097995814058
4.956524626911039,4.956524626911039
5.7659224243792995,5.7659224243792995
6.034610490589933,6.034610490589933
5.712584842997536,5.712584842997536
4.918521600176533,4.918521600176533
3.8557702911448946,3.8557702911448946
2.7610164332841984,2.7610164332841984
1.7949394905070069,1.7949394905070069
1.0355456755841488,1.0355456755841488
0.4588330768938308,0.4588330768938308
0.02346506886518612,0.02346506886518612
-0.30856137523629174,-0.30856137523629174
-0.5319124972724264,-0.5319124972724264
-0.646588297243218,-0.646588297243218
-0.6525887751486663,-0.6525887751486663
-0.5879169577232781,-0.5879169577232781
-0.4905758717015597,-0.4905758717015597
-0.42323717520708326,-0.42323717520708326
-0.39390150544711333,-0.39390150544711333
-0.41256965893073055,-0.41256965893073055
-0.4465723670616048,-0.4465723670616048
-0.4812417949597511,-0.4812417949597511
-0.510577464719721,-0.510577464719721
-0.5172446623924415,-0.5172446623924415
-0.5265787391342501,-0.5265787391342501
-0.5172446623924415,-0.5172446623924415
-0.5165779426251694,-0.5165779426251694
-0.5039102670470006,-0.5039102670470006
-0.49390947053791995,-0.49390947053791995
-0.47790819612339086,-0.47790819612339086
-0.46457380077795,-0.46457380077795
-0.4519061251997812,-0.4519061251997812
-0.44523892752706073,-0.44523892752706073
-0.44257204845797254,-0.44257204845797254
-0.4432387682252446,-0.4432387682252446
-0.44590564729433274,-0.44590564729433274
-0.44790580659614887,-0.44790580659614887
-0.4512394054325091,-0.4512394054325091
-0.45790660310522957,-0.45790660310522957
-0.46657396007976615,-0.46657396007976615
-0.47724147635611885,-0.47724147635611885
-0.48524211356338337,-0.48524211356338337
-0.48990915193428763,-0.48990915193428763
-0.4859088333306554,-0.4859088333306554
-0.4739078775197586,-0.4739078775197586
-0.45323956473432525,-0.45323956473432525
-0.42923765311253165,-0.42923765311253165
-0.40123542288710584,-0.40123542288710584
-0.3698995938253198,-0.3698995938253198
-0.3338967263926294,-0.3338967263926294
-0.29256010082176265,-0.29256010082176265
-0.2412226787418153,-0.2412226787418153
-0.175884141549155,-0.175884141549155
-0.09787792877832587,-0.09787792877832587
-0.011204359032960161,-0.011204359032960161
0.08013624908330985,0.08013624908330985
0.17414373626866803,0.17414373626866803
0.26615106415221007,0.26615106415221007
0.356158232733936,0.356158232733936
0.44416524201384583,0.44416524201384583
0.5335056908282997,0.5335056908282997
0.6201792605736653,0.6201792605736653
0.7028525117153989,0.7028525117153989
0.7775251256498678,0.7775251256498678
0.8475307012134323,0.8475307012134323
0.9095356395697324,0.9095356395697324
0.9655401000205841,0.9655401000205841
1.0135439232641712,1.0135439232641712
1.0542138290677658,1.0542138290677658
1.0795491802241035,1.0795491802241035
1.085549658129552,1.085549658129552
1.0675482244132068,1.0675482244132068
1.025544879075068,1.025544879075068
0.9602063418824077,0.9602063418824077
0.8761996512061302,0.8761996512061302
0.7788585651844119,0.7788585651844119
0.6775171605590612,0.6775171605590612
0.5768424757009826,0.5768424757009826
0.48483514781744047,0.48483514781744047
0.40349533621025113,0.40349533621025113
0.33482320018123063,0.33482320018123063
0.2768185804285628,0.2768185804285628
0.22481443858134337,0.22481443858134337
0.17947749440684438,0.17947749440684438
0.14214118743960993,0.14214118743960993
0.11413895721418409,0.11413895721418409
0.09413736419602277,0.09413736419602277
0.08213640838512598,0.08213640838512598
0.07213561187604532,0.07213561187604532
0.06346825490150876,0.06346825490150876
0.05280073862515605,0.05280073862515605
0.0474669804869797,0.0474669804869797
0.04546682118516357,0.04546682118516357
0.052134018857884004,0.052134018857884004
0.060134656065148534,0.060134656065148534
0.07213561187604532,0.07213561187604532
0.08146968861785393,0.08146968861785393
0.09147048512693459,0.09147048512693459
0.09813768279965504,0.09813768279965504
0.10480488047237548,0.10480488047237548
0.10947191884327978,0.10947191884327978
0.11413895721418409,0.11413895721418409
0.11813927581781634,0.11813927581781634
0.12480647349053679,0.12480647349053679
0.13480726999961745,0.13480726999961745
0.1474749455777863,0.1474749455777863
0.16214278045777125,0.16214278045777125
0.1781440548723003,0.1781440548723003
0.1948120490541014,0.1948120490541014
0.2114800432359025,0.2114800432359025
0.2281480374177036,0.2281480374177036
0.24148243276314446,0.24148243276314446
0.2508165095049531,0.2508165095049531
0.25481682810858536,0.25481682810858536
0.25548354787585736,0.25548354787585736
0.25348338857404124,0.25348338857404124
0.25214994903949717,0.25214994903949717
0.25214994903949717,0.25214994903949717
0.25548354787585736,0.25548354787585736
0.2568169874104015,0.2568169874104015
0.25548354787585736,0.25548354787585736
0.25014978973768104,0.25014978973768104
0.24414931183223265,0.24414931183223265
0.23548195485769607,0.23548195485769607
0.22748131765043156,0.22748131765043156
0.21814724090862292,0.21814724090862292
0.2114800432359025,0.2114800432359025
0.2021459664940939,0.2021459664940939
0.19081173045046912,0.19081173045046912
0.17747733510502825,0.17747733510502825
0.1674765385959476,0.1674765385959476
0.158142461854139,0.158142461854139
0.15147526418141855,0.15147526418141855
0.14414134674142606,0.14414134674142606
0.13814086883597768,0.13814086883597768
0.12747335255962497,0.12747335255962497
0.11480567698145613,0.11480567698145613
0.10147128163601525,0.10147128163601525
0.09147048512693459,0.09147048512693459
0.08213640838512598,0.08213640838512598
0.07346905141058942,0.07346905141058942
0.06280153513423671,0.06280153513423671
0.050133859556067875,0.050133859556067875
0.03746618397789904,0.03746618397789904
0.02679866770154634,0.02679866770154634
0.019464750261553858,0.019464750261553858
0.013464272356105462,0.013464272356105462
0.006797074683385024,0.006797074683385024
-0.0018702822911515465,-0.0018702822911515465
-0.01453795786932038,-0.01453795786932038
-0.02987251251657739,-0.02987251251657739
-0.04654050669837849,-0.04654050669837849
-0.06254178111290754,-0.06254178111290754
-0.0772096159928925,-0.0772096159928925
-0.09121073110560543,-0.09121073110560543
-0.10121152761468609,-0.10121152761468609
-0.10654528575286243,-0.10654528575286243
-0.1092121648219506,-0.1092121648219506
-0.1105456043564947,-0.1105456043564947
-0.11321248342558288,-0.11321248342558288
-0.115212642727399,-0.115212642727399
-0.11854624156375923,-0.11854624156375923
-0.12187984040011944,-0.12187984040011944
-0.12521343923647965,-0.12521343923647965
-0.12387999970193557,-0.12387999970193557
-0.11787952179648718,-0.11787952179648718
-0.09921136831286995,-0.09921136831286995
-0.06720881948381184,-0.06720881948381184
-0.013204518334776292,-0.013204518334776292
0.059467936297876486,0.059467936297876486
0.14814166534505832,0.14814166534505832
0.23481523509042404,0.23481523509042404
0.3061542501885327,0.3061542501885327
0.340823678086679,0.340823678086679
0.33749007925031876,0.33749007925031876
0.2894862560067316,0.2894862560067316
0.21681380137407885,0.21681380137407885
0.13147367116325723,0.13147367116325723
0.06146809559969262,0.06146809559969262
0.008797233985201155,0.008797233985201155
-0.022538595076584907,-0.022538595076584907
-0.04387362762929031,-0.04387362762929031
-0.05920818227654732,-0.05920818227654732
-0.08054321482925272,-0.08054321482925272
-0.1045451264510463,-0.1045451264510463
-0.1318806369092001,-0.1318806369092001
-0.1532156694619055,-0.1532156694619055
-0.1745507020146109,-0.1745507020146109
-0.19388557526550018,-0.19388557526550018
-0.2185542066545658,-0.2185542066545658
-0.24522299734544756,-0.24522299734544756
-0.28322602407995406,-0.28322602407995406
-0.33056312755626915,-0.33056312755626915
-0.39123462637802514,-0.39123462637802514
-0.4572398833379575,-0.4572398833379575
-0.5232451402978898,-0.5232451402978898
-0.5785828809814695,-0.5785828809814695
-0.6192527867850641,-0.6192527867850641
-0.646588297243218,-0.646588297243218
-0.677924126305004,-0.677924126305004
-0.722594350712231,-0.722594350712231
-0.7979336844139719,-0.7979336844139719
-0.8972749297375064,-0.8972749297375064
-1.0172844878464744,-1.0172844878464744
-1.1299601285154497,-1.1299601285154497
-1.2326349726753445,-1.2326349726753445
-1.3079743063770854,-1.3079743063770854
-1.3713126842679295,-1.3713126842679295
-1.4173163482097004,-1.4173163482097004
-1.471320649358736,-1.471320649358736
-1.5233247912059555,-1.5233247912059555
-1.5826628504931675,-1.5826628504931675
-1.6199991574604018,-1.6199991574604018
-1.6466679481512836,-1.6466679481512836
-1.6433343493149235,-1.6433343493149235
-1.638000591176747,-1.638000591176747
-1.621999316762218,-1.621999316762218
-1.634666992340387,-1.634666992340387
-1.6640026621003567,-1.6640026621003567
-1.728674479525745,-1.728674479525745
-1.8006802143911258,-1.8006802143911258
-1.8893539434383075,-1.8893539434383075
-1.972693914347313,-1.972693914347313
-2.0540337259545023,-2.0540337259545023
-2.1127050654744424,-2.1127050654744424
-2.156708570114397,-2.156708570114397
-2.1753767235980144,-2.1753767235980144
-2.184044080572551,-2.184044080572551
-2.1813772015034627,-2.1813772015034627
-2.1893778387107274,-2.1893778387107274
-2.209379431728889,-2.209379431728889
-2.246715738696123,-2.246715738696123
-2.2873856444997176,-2.2873856444997176
-2.3307224293724005,-2.3307224293724005
-2.361391538666915,-2.361391538666915
-2.3800596921505317,-2.3800596921505317
-2.380726411917804,-2.380726411917804
-2.3753926537796275,-2.3753926537796275
-2.3687254561069073,-2.3687254561069073
-2.3740592142450834,-2.3740592142450834
-2.3867268898232523,-2.3867268898232523
-2.413395680514134,-2.413395680514134
-2.4380643119031995,-2.4380643119031995
-2.4680667014304416,-2.4680667014304416
-2.489401733983147,-2.489401733983147
-2.518737403743117,-2.518737403743117
-2.5407391560630943,-2.5407391560630943
-2.5687413862885204,-2.5687413862885204
-2.578742182797601,-2.578742182797601
-2.5874095397721377,-2.5874095397721377
-2.5740751444266965,-2.5740751444266965
-2.5714082653576087,-2.5714082653576087
-2.563407628150344,-2.563407628150344
-2.577408743263057,-2.577408743263057
-2.578742182797601,-2.578742182797601
-2.5900764188412255,-2.5900764188412255
-2.5754085839612406,-2.5754085839612406
-2.5720749851248805,-2.5720749851248805
-2.552073392106719,-2.552073392106719
-2.564074347917616,-2.564074347917616
-2.578075463030329,-2.578075463030329
-2.619412088601196,-2.619412088601196
-2.6447474397575332,-2.6447474397575332
-2.669416071146599,-2.669416071146599
-2.6634155932411505,-2.6634155932411505
-2.655414956033886,-2.655414956033886
-2.6327464839466366,-2.6327464839466366
-2.62741272580846,-2.62741272580846
-2.626079286273916,-2.626079286273916
-2.6394136816193567,-2.6394136816193567
-2.643414000222989,-2.643414000222989
-2.6487477583611656,-2.6487477583611656
-2.6500811978957097,-2.6500811978957097
-2.667415911844783,-2.667415911844783
-2.6987517409065687,-2.6987517409065687
-2.758756519961053,-2.758756519961053
-2.8320956943609774,-2.8320956943609774
-2.907435028062719,-2.907435028062719
-2.955438851306306,-2.955438851306306
-2.9721068454881068,-2.9721068454881068
-2.9507718129354013,-2.9507718129354013
-2.9114353466663507,-2.9114353466663507
-2.8594312048191313,-2.8594312048191313
-2.818094579248265,-2.818094579248265
-2.776091233910126,-2.776091233910126
-2.731421009502899,-2.731421009502899
-2.654748236266614,-2.654748236266614
-2.5567404304776233,-2.5567404304776233
-2.429396954928663,-2.429396954928663
-2.3093873968196954,-2.3093873968196954
-2.1960450363834476,-2.1960450363834476
-2.122705861983523,-2.122705861983523
-2.0660346817653994,-2.0660346817653994
-2.048033248049054,-2.048033248049054
-2.035365572470885,-2.035365572470885
-2.0560338852563187,-2.0560338852563187
-2.076702198041752,-2.076702198041752
-2.1320399387253315,-2.1320399387253315
-2.183377360805279,-2.183377360805279
-2.264050452645196,-2.264050452645196
-2.3307224293724005,-2.3307224293724005
-2.416062559583222,-2.416062559583222
-2.476734058404978,-2.476734058404978
-2.5400724362958225,-2.5400724362958225
-2.568074666521248,-2.568074666521248
-2.5894096990739537,-2.5894096990739537
-2.5820757816339612,-2.5820757816339612
-2.578742182797601,-2.578742182797601
-2.5620741886158,-2.5620741886158
-2.560074029313984,-2.560074029313984
-2.5534068316412633,-2.5534068316412633
-2.5560737107103515,-2.5560737107103515
-2.5514066723394473,-2.5514066723394473
-2.545406194433999,-2.545406194433999
-2.537405557226734,-2.537405557226734
-2.5240711618812934,-2.5240711618812934
-2.5147370851394846,-2.5147370851394846
-2.500735970026772,-2.500735970026772
-2.491401893284963,-2.491401893284963
-2.486068135146787,-2.486068135146787
-2.4774007781722505,-2.4774007781722505
-2.4807343770086105,-2.4807343770086105
-2.4814010967758824,-2.4814010967758824
-2.4960689316558677,-2.4960689316558677
-2.5087366072340362,-2.5087366072340362
-2.5380722769940065,-2.5380722769940065
-2.5694081060557923,-2.5694081060557923
-2.608744572324843,-2.608744572324843
-2.6074111327902987,-2.6074111327902987
-2.5240711618812934,-2.5240711618812934
-2.25871669450702,-2.25871669450702
-1.7326747981293773,-1.7326747981293773
-0.8719395785811688,-0.8719395785811688
0.28281905833401116,0.28281905833401116
1.6142584335762828,1.6142584335762828
2.877692392556806,2.877692392556806
3.831768379523101,3.831768379523101
4.243134475929952,4.243134475929952
4.060453259697412,4.060453259697412
3.3437295098799646,3.3437295098799646
2.329648743859186,2.329648743859186
1.2315612871621295,1.2315612871621295
0.26615106415221007,0.26615106415221007
-0.5072438658833608,-0.5072438658833608
-1.0686219099264218,-1.0686219099264218
-1.4946558412132576,-1.4946558412132576
-1.8013469341583979,-1.8013469341583979
-2.0200310178236283,-2.0200310178236283
-2.1153719445435306,-2.1153719445435306
-2.1060378678017218,-2.1060378678017218
-1.9946956666672906,-1.9946956666672906
-1.8526843562383453,-1.8526843562383453
-1.7060060074384955,-1.7060060074384955
-1.6119985202531373,-1.6119985202531373
-1.5526604609659254,-1.5526604609659254
-1.5346590272495804,-1.5346590272495804
-1.5226580714386835,-1.5226580714386835
-1.5093236760932427,-1.5093236760932427
-1.4913222423768975,-1.4913222423768975
-1.4533192156423909,-1.4533192156423909
-1.4159829086751565,-1.4159829086751565
-1.361978607526121,-1.361978607526121
-1.3113079052134458,-1.3113079052134458
-1.256636884297138,-1.256636884297138
-1.208633061053551,-1.208633061053551
-1.163962836646324,-1.163962836646324
-1.1226262110754572,-1.1226262110754572
-1.0839564645736788,-1.0839564645736788
-1.0466201576064442,-1.0466201576064442
-1.0152843285446582,-1.0152843285446582
-0.9859486587846883,-0.9859486587846883
-0.9666137855337991,-0.9666137855337991
-0.9506125111192699,-0.9506125111192699
-0.9392782750756452,-0.9392782750756452
-0.9266105994974764,-0.9266105994974764
-0.9146096436865796,-0.9146096436865796
-0.8946080506684183,-0.8946080506684183
-0.8719395785811688,-0.8719395785811688
-0.8379368704502945,-0.8379368704502945
-0.8006005634830601,-0.8006005634830601
-0.753930179774017,-0.753930179774017
-0.7092599553667901,-0.7092599553667901
-0.661922851890475,-0.661922851890475
-0.6192527867850641,-0.6192527867850641
-0.5725824030760212,-0.5725824030760212
-0.5279121786687941,-0.5279121786687941
-0.47724147635611885,-0.47724147635611885
-0.42323717520708326,-0.42323717520708326
-0.3565651984798789,-0.3565651984798789
-0.28189258454541,-0.28189258454541
-0.19455229503277222,-0.19455229503277222
-0.10187824738195812,-0.10187824738195812
-0.0018702822911515465,-0.0018702822911515465
0.09280392466147869,0.09280392466147869
0.18347781301047664,0.18347781301047664
0.26348418508312194,0.26348418508312194
0.341490397853951,0.341490397853951
0.4134961327193318,0.4134961327193318
0.4861685873519846,0.4861685873519846
0.5548407233810051,0.5548407233810051
0.6221794198754815,0.6221794198754815
0.6828509186972375,0.6828509186972375
0.7395220989153612,0.7395220989153612
0.7901928012280366,0.7901928012280366
0.8361964651698076,0.8361964651698076
0.8748662116715862,0.8748662116715862
0.9042018814315561,0.9042018814315561
0.918869716311541,0.918869716311541
0.916869557009725,0.916869557009725
0.8948678046897475,0.8948678046897475
0.8561980581879689,0.8561980581879689
0.8008603175043892,0.8008603175043892
0.7348550605444569,0.7348550605444569
0.6608491663772601,0.6608491663772601
0.5855098326755191,0.5855098326755191
0.5115039385083222,0.5115039385083222
0.44349852224657377,0.44349852224657377
0.3848271827266339,0.3848271827266339
0.33548991994850264,0.33548991994850264
0.294820014144908,0.294820014144908
0.2621507455485778,0.2621507455485778
0.23548195485769607,0.23548195485769607
0.20947988393408637,0.20947988393408637
0.18747813161410892,0.18747813161410892
0.17014341766503577,0.17014341766503577
0.16014262115595512,0.16014262115595512
0.1541421432505067,0.1541421432505067
0.1554755827850508,0.1554755827850508
0.1614760606904992,0.1614760606904992
0.17081013743230783,0.17081013743230783
0.173477016501396,0.173477016501396
0.17614389557048415,0.17614389557048415
0.1781440548723003,0.1781440548723003
0.18214437347593257,0.18214437347593257
0.18681141184683686,0.18681141184683686
0.19681220835591753,0.19681220835591753
0.21081332346863044,0.21081332346863044
0.22481443858134337,0.22481443858134337
0.23481523509042404,0.23481523509042404
0.24014899322860037,0.24014899322860037
0.2434825920649606,0.2434825920649606
0.24414931183223265,0.24414931183223265
0.24281587229768856,0.24281587229768856
0.24281587229768856,0.24281587229768856
0.24681619090132081,0.24681619090132081
0.25481682810858536,0.25481682810858536
0.26348418508312194,0.26348418508312194
0.27415170135947464,0.27415170135947464
0.2868193769376435,0.2868193769376435
0.29882033274854025,0.29882033274854025
0.30815440949034884,0.30815440949034884
0.31548832693034135,0.31548832693034135
0.32015536530124566,0.32015536530124566
0.32015536530124566,0.32015536530124566
0.31548832693034135,0.31548832693034135
0.3061542501885327,0.3061542501885327
0.29548673391218,0.29548673391218
0.2868193769376435,0.2868193769376435
0.2834857781012832,0.2834857781012832
0.2868193769376435,0.2868193769376435
0.29548673391218,0.29548673391218
0.3054875304212607,0.3054875304212607
0.31548832693034135,0.31548832693034135
0.32148880483578973,0.32148880483578973
0.3241556839048779,0.3241556839048779
0.3241556839048779,0.3241556839048779
0.3241556839048779,0.3241556839048779
0.32148880483578973,0.32148880483578973
0.31548832693034135,0.31548832693034135
0.3054875304212607,0.3054875304212607
0.29615345367945206,0.29615345367945206
0.2868193769376435,0.2868193769376435
0.28015217926492303,0.28015217926492303
0.27481842112674665,0.27481842112674665
0.2708181025231144,0.2708181025231144
0.26548434438493806,0.26548434438493806
0.25548354787585736,0.25548354787585736
0.24214915253041652,0.24214915253041652
0.22748131765043156,0.22748131765043156
0.21081332346863044,0.21081332346863044
0.1948120490541014,0.1948120490541014
0.18014421417411644,0.18014421417411644
0.16680981882867554,0.16680981882867554
0.15614230255232286,0.15614230255232286
0.14680822581051423,0.14680822581051423
0.13747414906870561,0.13747414906870561
0.12613991302508087,0.12613991302508087
0.11280551767964,0.11280551767964
0.09880440256692707,0.09880440256692707
0.08280312815239803,0.08280312815239803
0.06546841420332489,0.06546841420332489
0.050133859556067875,0.050133859556067875
0.03813290374517109,0.03813290374517109
0.029465546770634517,0.029465546770634517
0.02146490956336999,0.02146490956336999
0.016131151425193637,0.016131151425193637
0.012130832821561376,0.012130832821561376
0.010797393287017287,0.010797393287017287
0.005463635148840936,0.005463635148840936
0.0021300363124807167,0.0021300363124807167
-0.0032037218256956343,-0.0032037218256956343
-0.009204199731144029,-0.009204199731144029
-0.01987171600749673,-0.01987171600749673
-0.0285390729820333,-0.0285390729820333
-0.034539550887481694,-0.034539550887481694
-0.034539550887481694,-0.034539550887481694
-0.032539391585665565,-0.032539391585665565
-0.022538595076584907,-0.022538595076584907
-0.00253700205842359,-0.00253700205842359
0.02679866770154634,0.02679866770154634
0.06280153513423671,0.06280153513423671
0.1021380014032873,0.1021380014032873
0.15014182464687445,0.15014182464687445
0.20947988393408637,0.20947988393408637
0.29281985484309186,0.29281985484309186
0.40816237458115545,0.40816237458115545
0.5568408826828212,0.5568408826828212
0.7168536268281117,0.7168536268281117
0.8601983767916012,0.8601983767916012
0.9615397814169518,0.9615397814169518
1.0128772034968991,1.0128772034968991
1.0208778407041637,1.0208778407041637
1.0062100058241787,1.0062100058241787
0.9822080942023852,0.9822080942023852
0.9528724244424153,0.9528724244424153
0.9082022000351884,0.9082022000351884
0.8381966244716237,0.8381966244716237
0.736188500079001,0.736188500079001
0.6075115849954965,0.6075115849954965
0.4641668350320071,0.4641668350320071
0.3241556839048779,0.3241556839048779
0.19614548858864547,0.19614548858864547
0.08813688629057438,0.08813688629057438
0.005463635148840936,0.005463635148840936
-0.04654050669837849,-0.04654050669837849
-0.07587617645834842,-0.07587617645834842
-0.08721041250197316,-0.08721041250197316
-0.09187745087287746,-0.09187745087287746
-0.09254417064014951,-0.09254417064014951
-0.09721120901105382,-0.09721120901105382
-0.10654528575286243,-0.10654528575286243
-0.115212642727399,-0.115212642727399
-0.11987968109830331,-0.11987968109830331
-0.11654608226194309,-0.11654608226194309
-0.12054640086557536,-0.12054640086557536
-0.1092121648219506,-0.1092121648219506
-0.11454592296012696,-0.11454592296012696
-0.09454432994196564,-0.09454432994196564
-0.10254496714923017,-0.10254496714923017
-0.08721041250197316,-0.08721041250197316
-0.09254417064014951,-0.09254417064014951
-0.08654369273470112,-0.08654369273470112
-0.09187745087287746,-0.09187745087287746
-0.09387761017469361,-0.09387761017469361
-0.09921136831286995,-0.09921136831286995
-0.11187904389103878,-0.11187904389103878
-0.13721439504737645,-0.13721439504737645
-0.18121789968733135,-0.18121789968733135
-0.23122188223273463,-0.23122188223273463
-0.2652245903636089,-0.2652245903636089
-0.22122108572365398,-0.22122108572365398
-0.01587139740386447,-0.01587139740386447
0.44683212108293396,0.44683212108293396
1.2322280069294016,1.2322280069294016
2.33098218339373,2.33098218339373
3.620418213297863,3.620418213297863
4.879185133907482,4.879185133907482
5.836594719710136,5.836594719710136
6.273296167273325,6.273296167273325
6.094615269644417,6.094615269644417
5.37455792099061,5.37455792099061
4.317807089864421,4.317807089864421
3.1750494087601377,3.1750494087601377
2.1409670497211977,2.1409670497211977
1.3102342197002308,1.3102342197002308
0.6821841989299655,0.6821841989299655
0.2114800432359025,0.2114800432359025
-0.14321487295282484,-0.14321487295282484
-0.39123462637802514,-0.39123462637802514
-0.5245785798324339,-0.5245785798324339
-0.5419132937815071,-0.5419132937815071
-0.479241635657935,-0.479241635657935
-0.3859008682398488,-0.3859008682398488
-0.3178954519781003,-0.3178954519781003
-0.29656041942539496,-0.29656041942539496
-0.32256249034900464,-0.32256249034900464
-0.37590007173076817,-0.37590007173076817
-0.41857013683617894,-0.41857013683617894
-0.45657316357068545,-0.45657316357068545
-0.4572398833379575,-0.4572398833379575
-0.46457380077795,-0.46457380077795
-0.4432387682252446,-0.4432387682252446
-0.4332379717161639,-0.4332379717161639
-0.40723590079255423,-0.40723590079255423
-0.3859008682398488,-0.3859008682398488
-0.3592320775489671,-0.3592320775489671
-0.33589688569444554,-0.33589688569444554
-0.3152285729090122,-0.3152285729090122
-0.29989401826175516,-0.29989401826175516
-0.29189338105449064,-0.29189338105449064
-0.2912266612872186,-0.2912266612872186
-0.29789385895993903,-0.29789385895993903
-0.30322761709811535,-0.30322761709811535
-0.3098948147708358,-0.3098948147708358
-0.3158952926762842,-0.3158952926762842
-0.31989561127991645,-0.31989561127991645
-0.3205623310471885,-0.3205623310471885
-0.31989561127991645,-0.31989561127991645
-0.3205623310471885,-0.3205623310471885
-0.3185621717453724,-0.3185621717453724
-0.312561693839924,-0.312561693839924
-0.3005607380290272,-0.3005607380290272
-0.2852261833817702,-0.2852261833817702
-0.2612242717599766,-0.2612242717599766
-0.22855500316364646,-0.22855500316364646
-0.18588493805823567,-0.18588493805823567
-0.13588095551283236,-0.13588095551283236
-0.0772096159928925,-0.0772096159928925
-0.011871078800232205,-0.011871078800232205
0.06146809559969262,0.06146809559969262
0.14214118743960993,0.14214118743960993
0.23414851532315198,0.23414851532315198
0.33548991994850264,0.33548991994850264
0.44616540131566196,0.44616540131566196
0.5648415198900858,0.5648415198900858
0.6861845175335978,0.6861845175335978
0.8075275151771097,0.8075275151771097
0.9268703535188055,0.9268703535188055
1.0455464720932295,1.0455464720932295
1.1575553929949327,1.1575553929949327
1.2582300778530113,1.2582300778530113
1.344236927831105,1.344236927831105
1.4155759429292138,1.4155759429292138
1.4682468045437054,1.4682468045437054
1.5062498312782118,1.5062498312782118
1.5262514242963732,1.5262514242963732
1.539585819641814,1.539585819641814
1.5295850231327335,1.5295850231327335
1.5022495126745796,1.5022495126745796
1.4422447336200956,1.4422447336200956
1.360238202245634,1.360238202245634
1.2502294406457468,1.2502294406457468
1.1262195639331467,1.1262195639331467
0.994875769780554,0.994875769780554
0.8675322942315936,0.8675322942315936
0.7501896151917139,0.7501896151917139
0.6528485291699956,0.6528485291699956
0.5808427943046148,0.5808427943046148
0.5435064873373804,0.5435064873373804
0.5321722512937556,0.5321722512937556
0.5288386524573954,0.5288386524573954
0.4881687466538007,0.4881687466538007
0.3574916722684801,0.3574916722684801
0.0961375234978389,0.0961375234978389
-0.29989401826175516,-0.29989401826175516
-0.7805989704648988,-0.7805989704648988
-1.254636724995322,-1.254636724995322
-1.6173322783913138,-1.6173322783913138
-1.7920128574165892,-1.7920128574165892
-1.758676869052987,-1.758676869052987
-1.5546606202677415,-1.5546606202677415
-1.2639708017371305,-1.2639708017371305
-0.9739477029737915,-0.9739477029737915
-0.7612640972140096,-0.7612640972140096
-0.6572558135195706,-0.6572558135195706
-0.6752572472359158,-0.6752572472359158
-0.7852660088358031,-0.7852660088358031
-0.9492790715847259,-0.9492790715847259
-1.1079583761954723,-1.1079583761954723
-1.2199672970971758,-1.2199672970971758
-1.253303285460778,-1.253303285460778
-1.2019658633808306,-1.2019658633808306
-1.0839564645736788,-1.0839564645736788
-0.9312776378683807,-0.9312776378683807
-0.7885996076721633,-0.7885996076721633
-0.677257406537732,-0.677257406537732
-0.6192527867850641,-0.6192527867850641
-0.6192527867850641,-0.6192527867850641
-0.6705902088650115,-0.6705902088650115
-0.7719316134903622,-0.7719316134903622
-0.8979416495047785,-0.8979416495047785
-1.0452867180719,-1.0452867180719
-1.1839644296644853,-1.1839644296644853
-1.2966400703334608,-1.2966400703334608
-1.3586450086897608,-1.3586450086897608
-1.3533112505515845,-1.3533112505515845
-1.2753050377807553,-1.2753050377807553
-1.1219594913081852,-1.1219594913081852
-0.905275566944771,-0.905275566944771
-0.6359207809668652,-0.6359207809668652
-0.33323000662535734,-0.33323000662535734
-0.01853827647295264,-0.01853827647295264
0.2868193769376435,0.2868193769376435
0.5628413605882696,0.5628413605882696
0.7935264000643968,0.7935264000643968
0.9775410558314809,0.9775410558314809
1.116218767424066,1.116218767424066
1.2288944080930415,1.2288944080930415
1.328902373183848,1.328902373183848
1.4362442557146473,1.4362442557146473
1.5569205335908871,1.5569205335908871
1.704932321925281,1.704932321925281
1.8816130602523726,1.8816130602523726
2.0962968253139707,2.0962968253139707
2.344316578739171,2.344316578739171
2.622338721691613,2.622338721691613
2.909028221618592,2.909028221618592
3.184383485501946,3.184383485501946
3.425069321487154,3.425069321487154
3.623085092366951,3.623085092366951
3.7790975179086095,3.7790975179086095
3.908441152759386,3.908441152759386
4.015116315522913,4.015116315522913
4.104456764337367,4.104456764337367
4.15112714804641,4.15112714804641
4.146460109675505,4.146460109675505
4.065120298068316,4.065120298068316
3.922442267872099,3.922442267872099
3.725759936526846,3.725759936526846
3.514409770301608,3.514409770301608
3.301726164541826,3.301726164541826
3.1123777506365657,3.1123777506365657
2.9403640506803783,2.9403640506803783
2.789018663509624,2.789018663509624
2.647007353080679,2.647007353080679
2.5183304379971743,2.5183304379971743
2.393653841517302,2.393653841517302
2.284311799684687,2.284311799684687
2.1836371148266083,2.1836371148266083
2.098963704383059,2.098963704383059
2.0182906125431415,2.0182906125431415
1.948285036979577,1.948285036979577
1.8816130602523726,1.8816130602523726
1.8222750009651607,1.8222750009651607
1.7616035021434047,1.7616035021434047
1.706932481227097,1.706932481227097
1.6522614603107895,1.6522614603107895
1.60025731846357,1.60025731846357
1.539585819641814,1.539585819641814
1.480247760354602,1.480247760354602
1.416909382463758,1.416909382463758
1.3515708452710975,1.3515708452710975
1.2788983906384448,1.2788983906384448
1.204892496471248,1.204892496471248
1.131553322071323,1.131553322071323
1.0595475872059423,1.0595475872059423
0.9862084128060175,0.9862084128060175
0.917536276776997,0.917536276776997
0.8528644593516087,0.8528644593516087
0.7928596802971247,0.7928596802971247
0.7321881814753688,0.7321881814753688
0.6808507593954214,0.6808507593954214
0.643514452428187,0.643514452428187
0.6255130187118417,0.6255130187118417
0.6248462989445697,0.6248462989445697
0.6461813314972751,0.6461813314972751
0.6788506000936052,0.6788506000936052
0.7075195500863032,0.7075195500863032
0.7061861105517591,0.7061861105517591
0.6648494849808924,0.6648494849808924
0.5755090361664384,0.5755090361664384
0.4514991594538383,0.4514991594538383
0.3121547280939811,0.3121547280939811
0.18947829091592505,0.18947829091592505
0.10347144093783138,0.10347144093783138
0.06346825490150876,0.06346825490150876
0.05680105722878832,0.05680105722878832
0.06546841420332489,0.06546841420332489
0.06613513397059693,0.06613513397059693
0.04213322234880335,0.04213322234880335
-0.01453795786932038,-0.01453795786932038
-0.09454432994196564,-0.09454432994196564
-0.18255133922187544,-0.18255133922187544
-0.2612242717599766,-0.2612242717599766
-0.3172287322108283,-0.3172287322108283
-0.34856456127261437,-0.34856456127261437
-0.3612322368507832,-0.3612322368507832
-0.37123303335986385,-0.37123303335986385
-0.38790102754166494,-0.38790102754166494
-0.41990357637072306,-0.41990357637072306
-0.4659072403124941,-0.4659072403124941
-0.525245299599706,-0.525245299599706
-0.5925839960941824,-0.5925839960941824
-0.6712569286322836,-0.6712569286322836
-0.7565970588431052,-0.7565970588431052
-0.8539381448648237,-0.8539381448648237
-0.9472789122829097,-0.9472789122829097
-1.0372860808646356,-1.0372860808646356
-1.1066249366609282,-1.1066249366609282
-1.1606292378099639,-1.1606292378099639
-1.194631945940838,-1.194631945940838
-1.2333016924426166,-1.2333016924426166
-1.2746383180134833,-1.2746383180134833
-1.3379766959043276,-1.3379766959043276
-1.4033152330969876,-1.4033152330969876
-1.4766544074969123,-1.4766544074969123
-1.5286585493441318,-1.5286585493441318
-1.5666615760786384,-1.5666615760786384
-1.5699951749149985,-1.5699951749149985
-1.562661257475006,-1.562661257475006
-1.5386593458532125,-1.5386593458532125
-1.530658708645948,-1.530658708645948
-1.5339923074823083,-1.5339923074823083
-1.5713286144495426,-1.5713286144495426
-1.62266603652949,-1.62266603652949
-1.6880045737221503,-1.6880045737221503
-1.7380085562675536,-1.7380085562675536
-1.7780117423038764,-1.7780117423038764
-1.7993467748565817,-1.7993467748565817
-1.8246821260129193,-1.8246821260129193
-1.8533510760056173,-1.8533510760056173
-1.9000214597146603,-1.9000214597146603
-1.9486920027255195,-1.9486920027255195
-1.9946956666672906,-1.9946956666672906
-2.0226978968927165,-2.0226978968927165
-2.0426994899108775,-2.0426994899108775
-2.062034363161767,-2.062034363161767
-2.0900365933871927,-2.0900365933871927
-2.1193722631471625,-2.1193722631471625
-2.153374971278037,-2.153374971278037
-2.1780436026671026,-2.1780436026671026
-2.1960450363834476,-2.1960450363834476
-2.201378794521624,-2.201378794521624
-2.2073792724270724,-2.2073792724270724
-2.212713030565249,-2.212713030565249
-2.225380706143418,-2.225380706143418
-2.2373816619543145,-2.2373816619543145
-2.262717013110652,-2.262717013110652
-2.294052842172438,-2.294052842172438
-2.3460569840196577,-2.3460569840196577
-2.395394246797789,-2.395394246797789
-2.4440647898086483,-2.4440647898086483
-2.457399185154089,-2.457399185154089
-2.4500652677140966,-2.4500652677140966
-2.41206224097959,-2.41206224097959
-2.3893937688923406,-2.3893937688923406
-2.3767260933141716,-2.3767260933141716
-2.4073952026086856,-2.4073952026086856
-2.442064630506832,-2.442064630506832
-2.488068294448603,-2.488068294448603
-2.4967356514231396,-2.4967356514231396
-2.4974023711904114,-2.4974023711904114
-2.4673999816631698,-2.4673999816631698
-2.454732306085001,-2.454732306085001
-2.4360641526013835,-2.4360641526013835
-2.44139791073956,-2.44139791073956
-2.4373975921359277,-2.4373975921359277
-2.446731668877736,-2.446731668877736
-2.4473983886450084,-2.4473983886450084
-2.4600660642231773,-2.4600660642231773
-2.4640663828268092,-2.4640663828268092
-2.4760673386377063,-2.4760673386377063
-2.4794009374740664,-2.4794009374740664
-2.489401733983147,-2.489401733983147
-2.491401893284963,-2.491401893284963
-2.501402689794044,-2.501402689794044
-2.507403167699492,-2.507403167699492
-2.516737244441301,-2.516737244441301
-2.520070843277661,-2.520070843277661
-2.531405079321286,-2.531405079321286
-2.550739952572175,-2.550739952572175
-2.5894096990739537,-2.5894096990739537
-2.638080242084813,-2.638080242084813
-2.6940847025356645,-2.6940847025356645
-2.7380882071756196,-2.7380882071756196
-2.7687573164701336,-2.7687573164701336
-2.7754245141428537,-2.7754245141428537
-2.7707574757719495,-2.7707574757719495
-2.7480890036847,-2.7480890036847
-2.7260872513647225,-2.7260872513647225
-2.6940847025356645,-2.6940847025356645
-2.669416071146599,-2.669416071146599
-2.6334132037139084,-2.6334132037139084
-2.608744572324843,-2.608744572324843
-2.577408743263057,-2.577408743263057
-2.5620741886158,-2.5620741886158
-2.53607211769219,-2.53607211769219
-2.5260713211831094,-2.5260713211831094
-2.504069568863132,-2.504069568863132
-2.4967356514231396,-2.4967356514231396
-2.4714003002668017,-2.4714003002668017
-2.4640663828268092,-2.4640663828268092
-2.443398070041376,-2.443398070041376
-2.442731350274104,-2.442731350274104
-2.427396795626847,-2.427396795626847
-2.4313971142304793,-2.4313971142304793
-2.4233964770232146,-2.4233964770232146
-2.4327305537650235,-2.4327305537650235
-2.4280635153941192,-2.4280635153941192
-2.4380643119031995,-2.4380643119031995
-2.4360641526013835,-2.4360641526013835
-2.44473150957592,-2.44473150957592
-2.4407311909722877,-2.4407311909722877
-2.4460649491104642,-2.4460649491104642
-2.44139791073956,-2.44139791073956
-2.44139791073956,-2.44139791073956
-2.432063833997751,-2.432063833997751
-2.426730075859575,-2.426730075859575
-2.4173959991177663,-2.4173959991177663
-2.4153958398159503,-2.4153958398159503
-2.413395680514134,-2.413395680514134
-2.4180627188850385,-2.4180627188850385
-2.4213963177213986,-2.4213963177213986
-2.4233964770232146,-2.4233964770232146
-2.4220630374886705,-2.4220630374886705
-2.4187294386523104,-2.4187294386523104
-2.410062081677774,-2.410062081677774
-2.4027281642377813,-2.4027281642377813
-2.3940608072632448,-2.3940608072632448
-2.3880603293577964,-2.3880603293577964
-2.3787262526159876,-2.3787262526159876
-2.3707256154087233,-2.3707256154087233
-2.354057621226922,-2.354057621226922
-2.334056028208761,-2.334056028208761
-2.2967197212415265,-2.2967197212415265
-2.257383254972476,-2.257383254972476
-2.2027122340561682,-2.2027122340561682
-2.1460410538380446,-2.1460410538380446
-2.057367324790863,-2.057367324790863
-1.9453584038891594,-1.9453584038891594
-1.7820120609075085,-1.7820120609075085
-1.5966639656058803,-1.5966639656058803
-1.3866472389151865,-1.3866472389151865
-1.2066329017517348,-1.2066329017517348
-1.0546207948137087,-1.0546207948137087
-0.9632801866974388,-0.9632801866974388
-0.8952747704356904,-0.8952747704356904
-0.8592719030029999,-0.8592719030029999
-0.8152683983630451,-0.8152683983630451
-0.7872661681376192,-0.7872661681376192
-0.7645976960503698,-0.7645976960503698
-0.7792655309303547,-0.7792655309303547
-0.8192687169666774,-0.8192687169666774
-0.8979416495047785,-0.8979416495047785
-0.9879488180865045,-0.9879488180865045
-1.0872900634100389,-1.0872900634100389
-1.1672964354826842,-1.1672964354826842
-1.2333016924426166,-1.2333016924426166
-1.271971438944395,-1.271971438944395
-1.2926397517298285,-1.2926397517298285
-1.288639433126196,-1.288639433126196
-1.2759717575480274,-1.2759717575480274
-1.252636565693506,-1.252636565693506
-1.2286346540717124,-1.2286346540717124
-1.1992989843117423,-1.1992989843117423
-1.1706300343190446,-1.1706300343190446
-1.1399609250245304,-1.1399609250245304
-1.1072916564282003,-1.1072916564282003
-1.0779559866682304,-1.0779559866682304
-1.042619839002812,-1.042619839002812
-1.0212848064501066,-1.0212848064501066
-0.9859486587846883,-0.9859486587846883
-0.9692806646028872,-0.9692806646028872
-0.9366113960065571,-0.9366113960065571
-0.9179432425229398,-0.9179432425229398
-0.8946080506684183,-0.8946080506684183
-0.875939897184801,-0.875939897184801
-0.8619387820720882,-0.8619387820720882
-0.844604068123015,-0.844604068123015
-0.8339365518466623,-0.8339365518466623
-0.8199354367339494,-0.8199354367339494
-0.8226023158030376,-0.8226023158030376
-0.8326031123121183,-0.8326031123121183
-0.8619387820720882,-0.8619387820720882
-0.8586051832357279,-0.8586051832357279
-0.7772653716285386,-0.7772653716285386
-0.5045769868142727,-0.5045769868142727
0.03813290374517109,0.03813290374517109
0.918869716311541,0.918869716311541
2.0902963474085223,2.0902963474085223
3.4184021238144338,3.4184021238144338
4.6525004130349865,4.6525004130349865
5.539237703506805,5.539237703506805
5.870597427841011,5.870597427841011
5.597242323259472,5.597242323259472
4.8098462781111895,4.8098462781111895
3.7310936946650224,3.7310936946650224
2.5963366507680035,2.5963366507680035
1.5935901207908496,1.5935901207908496
0.7961932791334849,0.7961932791334849
0.19881236765773366,0.19881236765773366
-0.24922331594907982,-0.24922331594907982
-0.5805830402832857,-0.5805830402832857
-0.8079344809230525,-0.8079344809230525
-0.920610121592028,-0.920610121592028
-0.9259438797302043,-0.9259438797302043
-0.8479376669593752,-0.8479376669593752
-0.7479297018685687,-0.7479297018685687
-0.6652564507268351,-0.6652564507268351
-0.6385876600359535,-0.6385876600359535
-0.6492551763123061,-0.6492551763123061
-0.692591961184989,-0.692591961184989
-0.7345953065231278,-0.7345953065231278
-0.7645976960503698,-0.7645976960503698
-0.7785988111630826,-0.7785988111630826
-0.7752652123267224,-0.7752652123267224
-0.7739317727921784,-0.7739317727921784
-0.7659311355849138,-0.7659311355849138
-0.7592639379121934,-0.7592639379121934
-0.7545968995412891,-0.7545968995412891
-0.7492631414031127,-0.7492631414031127
-0.7485964216358407,-0.7485964216358407
-0.7459295425667525,-0.7459295425667525
-0.7519300204722009,-0.7519300204722009
-0.7572637786103773,-0.7572637786103773
-0.7699314541885461,-0.7699314541885461
-0.7765986518612665,-0.7765986518612665
-0.7865994483703472,-0.7865994483703472
-0.7905997669739795,-0.7905997669739795
-0.7972669646466999,-0.7972669646466999
-0.798600404181244,-0.798600404181244
-0.8006005634830601,-0.8006005634830601
-0.7946000855776117,-0.7946000855776117
-0.784599289068531,-0.784599289068531
-0.7625975367485536,-0.7625975367485536
-0.7352620262903998,-0.7352620262903998
-0.6985924390904374,-0.6985924390904374
-0.6572558135195706,-0.6572558135195706
-0.6099187100432556,-0.6099187100432556
-0.5612481670323963,-0.5612481670323963
-0.509244025185177,-0.509244025185177
-0.45657316357068545,-0.45657316357068545
-0.4005687031198338,-0.4005687031198338
-0.34389752290171005,-0.34389752290171005
-0.2838927438472261,-0.2838927438472261
-0.22055436595638195,-0.22055436595638195
-0.15054879039281732,-0.15054879039281732
-0.07654289622562047,-0.07654289622562047
0.0021300363124807167,0.0021300363124807167
0.08146968861785393,0.08146968861785393
0.15880918162141103,0.15880918162141103
0.23214835602133585,0.23214835602133585
0.3041540908867166,0.3041540908867166
0.3741596664502812,0.3741596664502812
0.44616540131566196,0.44616540131566196
0.5188378559483147,0.5188378559483147
0.5941771896500557,0.5941771896500557
0.6661829245154364,0.6661829245154364
0.7348550605444569,0.7348550605444569
0.797526718668029,0.797526718668029
0.857531497722513,0.857531497722513
0.9082022000351884,0.9082022000351884
0.948872105838783,0.948872105838783
0.9715405779260325,0.9715405779260325
0.9768743360642088,0.9768743360642088
0.9595396221151358,0.9595396221151358
0.9208698756133572,0.9208698756133572
0.8641986953952334,0.8641986953952334
0.7988601582025732,0.7988601582025732
0.7275211431044645,0.7275211431044645
0.6581822873081719,0.6581822873081719
0.5955106291845997,0.5955106291845997
0.5448399268719244,0.5448399268719244
0.5041700210683298,0.5041700210683298
0.47216747223927164,0.47216747223927164
0.4454986815483899,0.4454986815483899
0.4201633303920522,0.4201633303920522
0.3934945397011705,0.3934945397011705
0.3668257490102887,0.3668257490102887
0.3421571176212231,0.3421571176212231
0.3194886455339736,0.3194886455339736
0.3041540908867166,0.3041540908867166
0.29415329437763593,0.29415329437763593
0.29148641530854774,0.29148641530854774
0.2901529757740037,0.2901529757740037
0.29281985484309186,0.29281985484309186
0.29548673391218,0.29548673391218
0.2981536129812682,0.2981536129812682
0.2981536129812682,0.2981536129812682
0.29748689321399613,0.29748689321399613
0.29548673391218,0.29548673391218
0.29415329437763593,0.29415329437763593
0.29548673391218,0.29548673391218
0.3001537722830843,0.3001537722830843
0.30682096995580477,0.30682096995580477
0.31548832693034135,0.31548832693034135
0.32348896413760586,0.32348896413760586
0.33082288157759837,0.33082288157759837
0.33548991994850264,0.33548991994850264
0.3388235187848629,0.3388235187848629
0.34015695831940695,0.34015695831940695
0.3388235187848629,0.3388235187848629
0.33548991994850264,0.33548991994850264
0.33082288157759837,0.33082288157759837
0.3274892827412381,0.3274892827412381
0.32682256297396606,0.32682256297396606
0.3281560025085102,0.3281560025085102
0.3301561618103263,0.3301561618103263
0.33082288157759837,0.33082288157759837
0.3288227222757822,0.3288227222757822
0.32348896413760586,0.32348896413760586
0.3174884862321575,0.3174884862321575
0.3121547280939811,0.3121547280939811
0.30815440949034884,0.30815440949034884
0.30748768972307683,0.30748768972307683
0.30748768972307683,0.30748768972307683
0.30748768972307683,0.30748768972307683
0.30748768972307683,0.30748768972307683
0.30748768972307683,0.30748768972307683
0.30748768972307683,0.30748768972307683
0.30748768972307683,0.30748768972307683
0.30748768972307683,0.30748768972307683
0.30748768972307683,0.30748768972307683
0.30815440949034884,0.30815440949034884
0.30748768972307683,0.30748768972307683
0.30682096995580477,0.30682096995580477
0.30815440949034884,0.30815440949034884
0.3088211292576209,0.3088211292576209
0.30815440949034884,0.30815440949034884
0.3054875304212607,0.3054875304212607
0.29948705251581226,0.29948705251581226
0.2888195362394596,0.2888195362394596
0.27148482229038645,0.27148482229038645
0.2508165095049531,0.2508165095049531
0.23148163625406382,0.23148163625406382
0.21414692230499066,0.21414692230499066
0.1994790874250057,0.1994790874250057
0.18747813161410892,0.18747813161410892
0.17881077463957235,0.17881077463957235
0.16947669789776373,0.16947669789776373
0.15880918162141103,0.15880918162141103
0.14547478627597016,0.14547478627597016
0.1308069513959852,0.1308069513959852
0.11413895721418409,0.11413895721418409
0.09880440256692707,0.09880440256692707
0.08346984791967008,0.08346984791967008
0.07013545257422919,0.07013545257422919
0.058801216530604446,0.058801216530604446
0.050133859556067875,0.050133859556067875
0.041466502581531305,0.041466502581531305
0.03413258514153882,0.03413258514153882
0.025465228167002252,0.025465228167002252
0.01813131072700977,0.01813131072700977
0.009463953752473199,0.009463953752473199
0.0021300363124807167,0.0021300363124807167
-0.00587060089478381,-0.00587060089478381
-0.009870919498416073,-0.009870919498416073
-0.013871238102048336,-0.013871238102048336
-0.0178715567056806,-0.0178715567056806
-0.025872193912945127,-0.025872193912945127
-0.034539550887481694,-0.034539550887481694
-0.04654050669837849,-0.04654050669837849
-0.05787474274200323,-0.05787474274200323
-0.06787553925108389,-0.06787553925108389
-0.07454273692380432,-0.07454273692380432
-0.07920977529470863,-0.07920977529470863
-0.0832100938983409,-0.0832100938983409
-0.08721041250197316,-0.08721041250197316
-0.08987729157106134,-0.08987729157106134
-0.09121073110560543,-0.09121073110560543
-0.08987729157106134,-0.08987729157106134
-0.08854385203651725,-0.08854385203651725
-0.08721041250197316,-0.08721041250197316
-0.0878771322692452,-0.0878771322692452
-0.08987729157106134,-0.08987729157106134
-0.09187745087287746,-0.09187745087287746
-0.09054401133833338,-0.09054401133833338
-0.08587697296742908,-0.08587697296742908
-0.0785430555274366,-0.0785430555274366
-0.07054241832017207,-0.07054241832017207
-0.061875061345635494,-0.061875061345635494
-0.05654130320745914,-0.05654130320745914
-0.05454114390564301,-0.05454114390564301
-0.05787474274200323,-0.05787474274200323
-0.061875061345635494,-0.061875061345635494
-0.06854225901835594,-0.06854225901835594
-0.07387601715653229,-0.07387601715653229
-0.0785430555274366,-0.0785430555274366
-0.07920977529470863,-0.07920977529470863
-0.07787633576016455,-0.07787633576016455
-0.06987569855290002,-0.06987569855290002
-0.05854146250927528,-0.05854146250927528
-0.041206748560202136,-0.041206748560202136
-0.026538913680217168,-0.026538913680217168
-0.01453795786932038,-0.01453795786932038
-0.013204518334776292,-0.013204518334776292
-0.017204836938408557,-0.017204836938408557
-0.027872353214761256,-0.027872353214761256
-0.03720642995656987,-0.03720642995656987
-0.0452070671638344,-0.0452070671638344
-0.04654050669837849,-0.04654050669837849
-0.04587378693110644,-0.04587378693110644
-0.042540188094746224,-0.042540188094746224
-0.03787314972384192,-0.03787314972384192
-0.02987251251657739,-0.02987251251657739
-0.022538595076584907,-0.022538595076584907
-0.0178715567056806,-0.0178715567056806
-0.019204996240224686,-0.019204996240224686
-0.022538595076584907,-0.022538595076584907
-0.02987251251657739,-0.02987251251657739
-0.03720642995656987,-0.03720642995656987
-0.042540188094746224,-0.042540188094746224
-0.04187346832747418,-0.04187346832747418
-0.041206748560202136,-0.041206748560202136
-0.04387362762929031,-0.04387362762929031
-0.04787394623292257,-0.04787394623292257
-0.04920738576746666,-0.04920738576746666
-0.04720722646565053,-0.04720722646565053
-0.04187346832747418,-0.04187346832747418
-0.034539550887481694,-0.034539550887481694
-0.027205633447489212,-0.027205633447489212
-0.025205474145673083,-0.025205474145673083
-0.029205792749305345,-0.029205792749305345
-0.03787314972384192,-0.03787314972384192
-0.042540188094746224,-0.042540188094746224
-0.043206907862018265,-0.043206907862018265
-0.03787314972384192,-0.03787314972384192
-0.029205792749305345,-0.029205792749305345
-0.0178715567056806,-0.0178715567056806
-0.011871078800232205,-0.011871078800232205
-0.010537639265688117,-0.010537639265688117
-0.01587139740386447,-0.01587139740386447
-0.020538435774768774,-0.020538435774768774
-0.027205633447489212,-0.027205633447489212
-0.02987251251657739,-0.02987251251657739
-0.033206111352937606,-0.033206111352937606
-0.034539550887481694,-0.034539550887481694
-0.03853986949111396,-0.03853986949111396
-0.041206748560202136,-0.041206748560202136
-0.04654050669837849,-0.04654050669837849
-0.05054082530201075,-0.05054082530201075
-0.05654130320745914,-0.05654130320745914
-0.06254178111290754,-0.06254178111290754
-0.06987569855290002,-0.06987569855290002
-0.07387601715653229,-0.07387601715653229
-0.0772096159928925,-0.0772096159928925
-0.0785430555274366,-0.0785430555274366
-0.08120993459652477,-0.08120993459652477
-0.08254337413106885,-0.08254337413106885
-0.08654369273470112,-0.08654369273470112
-0.08987729157106134,-0.08987729157106134
-0.09254417064014951,-0.09254417064014951
-0.08987729157106134,-0.08987729157106134
-0.08654369273470112,-0.08654369273470112
-0.08254337413106885,-0.08254337413106885
-0.08054321482925272,-0.08054321482925272
-0.07787633576016455,-0.07787633576016455
-0.0772096159928925,-0.0772096159928925
-0.07787633576016455,-0.07787633576016455
-0.07920977529470863,-0.07920977529470863
-0.0785430555274366,-0.0785430555274366
-0.07787633576016455,-0.07787633576016455
-0.0785430555274366,-0.0785430555274366
-0.07920977529470863,-0.07920977529470863
-0.0785430555274366,-0.0785430555274366
-0.0772096159928925,-0.0772096159928925
-0.07387601715653229,-0.07387601715653229
-0.07054241832017207,-0.07054241832017207
-0.06587537994926776,-0.06587537994926776
-0.06654209971653981,-0.06654209971653981
-0.07054241832017207,-0.07054241832017207
-0.08054321482925272,-0.08054321482925272
-0.08987729157106134,-0.08987729157106134
-0.10054480784741404,-0.10054480784741404
-0.1058785659855904,-0.1058785659855904
-0.1105456043564947,-0.1105456043564947
-0.1105456043564947,-0.1105456043564947
-0.11254576365831083,-0.11254576365831083
-0.11454592296012696,-0.11454592296012696
-0.12054640086557536,-0.12054640086557536
-0.12187984040011944,-0.12187984040011944
-0.12254656016739149,-0.12254656016739149
-0.11787952179648718,-0.11787952179648718
-0.11321248342558288,-0.11321248342558288
-0.10721200552013448,-0.10721200552013448
-0.10721200552013448,-0.10721200552013448
-0.1105456043564947,-0.1105456043564947
-0.115212642727399,-0.115212642727399
-0.11321248342558288,-0.11321248342558288
-0.10787872528740652,-0.10787872528740652
-0.09854464854559791,-0.09854464854559791
-0.09121073110560543,-0.09121073110560543
-0.08654369273470112,-0.08654369273470112
-0.0878771322692452,-0.0878771322692452
-0.09387761017469361,-0.09387761017469361
-0.10121152761468609,-0.10121152761468609
-0.1058785659855904,-0.1058785659855904
-0.1105456043564947,-0.1105456043564947
-0.11454592296012696,-0.11454592296012696
-0.1212131206328474,-0.1212131206328474
-0.12654687877102375,-0.12654687877102375
-0.13254735667647213,-0.13254735667647213
-0.13388079621101623,-0.13388079621101623
-0.13254735667647213,-0.13254735667647213
-0.12654687877102375,-0.12654687877102375
-0.1212131206328474,-0.1212131206328474
-0.11454592296012696,-0.11454592296012696
-0.1105456043564947,-0.1105456043564947
-0.1058785659855904,-0.1058785659855904
-0.10254496714923017,-0.10254496714923017
-0.09854464854559791,-0.09854464854559791
-0.09787792877832587,-0.09787792877832587
-0.09854464854559791,-0.09854464854559791
-0.10187824738195812,-0.10187824738195812
-0.10121152761468609,-0.10121152761468609
-0.10054480784741404,-0.10054480784741404
-0.09854464854559791,-0.09854464854559791
-0.10054480784741404,-0.10054480784741404
-0.10254496714923017,-0.10254496714923017
-0.11121232412376675,-0.11121232412376675
-0.11721280202921514,-0.11721280202921514
-0.12387999970193557,-0.12387999970193557
-0.12187984040011944,-0.12187984040011944
-0.12054640086557536,-0.12054640086557536
-0.11921296133103126,-0.11921296133103126
-0.12321327993466354,-0.12321327993466354
-0.1258801590037517,-0.1258801590037517
-0.13121391714192807,-0.13121391714192807
-0.13388079621101623,-0.13388079621101623
-0.13521423574556032,-0.13521423574556032
-0.13121391714192807,-0.13121391714192807
-0.1272135985382958,-0.1272135985382958
-0.12187984040011944,-0.12187984040011944
-0.11654608226194309,-0.11654608226194309
-0.10987888458922265,-0.10987888458922265
-0.10721200552013448,-0.10721200552013448
-0.11187904389103878,-0.11187904389103878
-0.12254656016739149,-0.12254656016739149
-0.13388079621101623,-0.13388079621101623
-0.14321487295282484,-0.14321487295282484
-0.14588175202191303,-0.14588175202191303
-0.14188143341828077,-0.14188143341828077
-0.13121391714192807,-0.13121391714192807
-0.1212131206328474,-0.1212131206328474
-0.11454592296012696,-0.11454592296012696
-0.11121232412376675,-0.11121232412376675
-0.1105456043564947,-0.1105456043564947
-0.1105456043564947,-0.1105456043564947
-0.1105456043564947,-0.1105456043564947
-0.11121232412376675,-0.11121232412376675
-0.115212642727399,-0.115212642727399
-0.12254656016739149,-0.12254656016739149
-0.1318806369092001,-0.1318806369092001
-0.14054799388373668,-0.14054799388373668
-0.14654847178918506,-0.14654847178918506
-0.14588175202191303,-0.14588175202191303
-0.1345475159782883,-0.1345475159782883
-0.11854624156375923,-0.11854624156375923
-0.10321168691650222,-0.10321168691650222
-0.09321089040742156,-0.09321089040742156
-0.09054401133833338,-0.09054401133833338
-0.09921136831286995,-0.09921136831286995
-0.11654608226194309,-0.11654608226194309
-0.1318806369092001,-0.1318806369092001
-0.1272135985382958,-0.1272135985382958
-0.09654448924378177,-0.09654448924378177
-0.032539391585665565,-0.032539391585665565
0.05680105722878832,0.05680105722878832
0.1614760606904992,0.1614760606904992
0.2588171467122176,0.2588171467122176
0.3361566397157747,0.3361566397157747
0.3854939024939059,0.3854939024939059
0.4108292536502436,0.4108292536502436
0.4148295722538759,0.4148295722538759
0.4074956548138834,0.4074956548138834
0.39816157807207475,0.39816157807207475
0.40216189667570706,0.40216189667570706
0.42216348969386835,0.42216348969386835
0.4594997966611028,0.4594997966611028
0.5021698617665136,0.5021698617665136
0.5335056908282997,0.5335056908282997
0.5301720919919395,0.5301720919919395
0.4815015489810803,0.4815015489810803
0.38882750133026617,0.38882750133026617
0.27148482229038645,0.27148482229038645
0.1541421432505067,0.1541421432505067
0.06613513397059693,0.06613513397059693
0.012130832821561376,0.012130832821561376
-0.009870919498416073,-0.009870919498416073
-0.02120515554204082,-0.02120515554204082
-0.04187346832747418,-0.04187346832747418
-0.07187585785471615,-0.07187585785471615
-0.1212131206328474,-0.1212131206328474
-0.15188222992736142,-0.15188222992736142
-0.18588493805823567,-0.18588493805823567
-0.18121789968733135,-0.18121789968733135
-0.18388477875641954,-0.18388477875641954
-0.16788350434189048,-0.16788350434189048
-0.16655006480734638,-0.16655006480734638
-0.1712171031782507,-0.1712171031782507
-0.19188541596368405,-0.19188541596368405
-0.23322204153455078,-0.23322204153455078
-0.2992272984944831,-0.2992272984944831
-0.39523494498165745,-0.39523494498165745
-0.510577464719721,-0.510577464719721
-0.6385876600359535,-0.6385876600359535
-0.7372621855922159,-0.7372621855922159
-0.7652644158176418,-0.7652644158176418
-0.6379209402686814,-0.6379209402686814
-0.2872263426835863,-0.2872263426835863
0.356158232733936,0.356158232733936
1.296233104587518,1.296233104587518
2.4603258182445065,2.4603258182445065
3.6617548388687298,3.6617548388687298
4.657834171173163,4.657834171173163
5.2078779791726,5.2078779791726
5.1838760675508055,5.1838760675508055
4.59782939211868,4.59782939211868
3.621751652832407,3.621751652832407
2.4983288449790133,2.4983288449790133
1.4462450522237278,1.4462450522237278
0.5721754373300783,0.5721754373300783
-0.1212131206328474,-0.1212131206328474
-0.6845913239777245,-0.6845913239777245
-1.1559621994390594,-1.1559621994390594
-1.5399927853877566,-1.5399927853877566
-1.8013469341583979,-1.8013469341583979
-1.9233566515691818,-1.9233566515691818
-1.912689135292829,-1.912689135292829
-1.835349642289272,-1.835349642289272
-1.746009193474818,-1.746009193474818
-1.7013389690675913,-1.7013389690675913
-1.698005370231231,-1.698005370231231
-1.7386752760348256,-1.7386752760348256
-1.7926795771838613,-1.7926795771838613
-1.8546845155401612,-1.8546845155401612
-1.9173561736637335,-1.9173561736637335
-1.972693914347313,-1.972693914347313
-2.0240313364272606,-2.0240313364272606
-2.057367324790863,-2.057367324790863
-2.073368599205392,-2.073368599205392
-2.0807025166453843,-2.0807025166453843
-2.075368758507208,-2.075368758507208
-2.0880364340853768,-2.0880364340853768
-2.1060378678017218,-2.1060378678017218
-2.1480412131398605,-2.1480412131398605
-2.182043921270735,-2.182043921270735
-2.2213803875397855,-2.2213803875397855
-2.2340480631179545,-2.2340480631179545
-2.244048859627035,-2.244048859627035
-2.2347147828852263,-2.2347147828852263
-2.2347147828852263,-2.2347147828852263
-2.2327146235834103,-2.2327146235834103
-2.2407152607906746,-2.2407152607906746
-2.243382139859763,-2.243382139859763
-2.2540496561361154,-2.2540496561361154
-2.262717013110652,-2.262717013110652
-2.280051727059725,-2.280051727059725
-2.290052523568806,-2.290052523568806
-2.29471956193971,-2.29471956193971
-2.2793850072924533,-2.2793850072924533
-2.2500493375324835,-2.2500493375324835
-2.2053791131252565,-2.2053791131252565
-2.1653759270889337,-2.1653759270889337
-2.1313732189580596,-2.1313732189580596
-2.10537114803445,-2.10537114803445
-2.0707017201363036,-2.0707017201363036
-2.0206977375909,-2.0206977375909
-1.9460251236564314,-1.9460251236564314
-1.8560179550747054,-1.8560179550747054
-1.7553432702166267,-1.7553432702166267
-1.666669541169445,-1.666669541169445
-1.5879966086313437,-1.5879966086313437
-1.5293252691114039,-1.5293252691114039
-1.4739875284278243,-1.4739875284278243
-1.4313174633224135,-1.4313174633224135
-1.3826469203115543,-1.3826469203115543
-1.3466440528788641,-1.3466440528788641
-1.3053074273079974,-1.3053074273079974
-1.2826389552207478,-1.2826389552207478
-1.256636884297138,-1.256636884297138
-1.2513031261589618,-1.2513031261589618
-1.2366352912789769,-1.2366352912789769
-1.239302170348065,-1.239302170348065
-1.2273012145371682,-1.2273012145371682
-1.2319682529080724,-1.2319682529080724
-1.223967615700808,-1.223967615700808
-1.239302170348065,-1.239302170348065
-1.252636565693506,-1.252636565693506
-1.2953066307989167,-1.2953066307989167
-1.3406435749734156,-1.3406435749734156
-1.4126493098387962,-1.4126493098387962
-1.487321923773265,-1.487321923773265
-1.5806626911913513,-1.5806626911913513
-1.669336420238533,-1.669336420238533
-1.7646773469584354,-1.7646773469584354
-1.8460171585656246,-1.8460171585656246
-1.9226899318019097,-1.9226899318019097
-1.9800278317873055,-1.9800278317873055
-2.0293650945654367,-2.0293650945654367
-2.0647012422308553,-2.0647012422308553
-2.095370351525369,-2.095370351525369
-2.1160386643108025,-2.1160386643108025
-2.136040257328964,-2.136040257328964
-2.1527082515107647,-2.1527082515107647
-2.17070968522711,-2.17070968522711
-2.184044080572551,-2.184044080572551
