ECG,PPG
0.14535858250963732,0.14535858250963732
0.11848735670725506,0.11848735670725506
0.06182411968918813,0.06182411968918813
0.03845783638276878,0.03845783638276878
0.01041829641506555,0.01041829641506555
-0.015868772304656224,-0.015868772304656224
-0.03923505561107558,-0.03923505561107558
-0.05617561100822961,-0.05617561100822961
-0.07019538099208122,-0.07019538099208122
-0.08479930805859331,-0.08479930805859331
-0.09765076387712396,-0.09765076387712396
-0.10699727719969171,-0.10699727719969171
-0.114591319274278,-0.114591319274278
-0.12218536134886429,-0.12218536134886429
-0.12977940342345057,-0.12977940342345057
-0.1362051313327159,-0.1362051313327159
-0.1432150163246417,-0.1432150163246417
-0.149640744233907,-0.149640744233907
-0.15606647214317232,-0.15606647214317232
-0.1578189433911538,-0.1578189433911538
-0.15898725755647475,-0.15898725755647475
-0.1566506292258328,-0.1566506292258328
-0.15314568672986992,-0.15314568672986992
-0.14788827298592558,-0.14788827298592558
-0.14087838799399977,-0.14087838799399977
-0.1291952463407901,-0.1291952463407901
-0.10933390553033363,-0.10933390553033363
-0.07603695181868605,-0.07603695181868605
-0.025215285627223964,-0.025215285627223964
0.044299407209373615,0.044299407209373615
0.1284180271124833,0.1284180271124833
0.2189623749248583,0.2189623749248583
0.2989918952493446,0.2989918952493446
0.34981356144080666,0.34981356144080666
0.3468927760275043,0.3468927760275043
0.27504145486026477,0.27504145486026477
0.1278338700298228,0.1278338700298228
-0.07895773723198848,-0.07895773723198848
-0.3132047273788425,-0.3132047273788425
-0.5293428479632215,-0.5293428479632215
-0.6882335744468732,-0.6882335744468732
-0.7635898381100755,-0.7635898381100755
-0.7589165814487917,-0.7589165814487917
-0.6888177315295336,-0.6888177315295336
-0.5883427133119303,-0.5883427133119303
-0.48319443843304327,-0.48319443843304327
-0.39557087603397073,-0.39557087603397073
-0.331897754023978,-0.331897754023978
-0.2939275436510465,-0.2939275436510465
-0.2728978886752691,-0.2728978886752691
-0.26413553243536186,-0.26413553243536186
-0.259462275774078,-0.259462275774078
-0.257125647443436,-0.257125647443436
-0.25654149036077556,-0.25654149036077556
-0.25654149036077556,-0.25654149036077556
-0.259462275774078,-0.259462275774078
-0.26121474702205943,-0.26121474702205943
-0.2647196895180223,-0.2647196895180223
-0.26355137535270134,-0.26355137535270134
-0.26413553243536186,-0.26413553243536186
-0.26121474702205943,-0.26121474702205943
-0.2606305899393989,-0.2606305899393989
-0.25887811869141747,-0.25887811869141747
-0.257125647443436,-0.257125647443436
-0.25303654786481267,-0.25303654786481267
-0.24544250579022636,-0.24544250579022636
-0.23259104997169572,-0.23259104997169572
-0.21389802332656024,-0.21389802332656024
-0.18877926877215942,-0.18877926877215942
-0.1572347863084933,-0.1572347863084933
-0.11809626177024089,-0.11809626177024089
-0.07019538099208122,-0.07019538099208122
-0.013532143974014288,-0.013532143974014288
0.05598254886258329,0.05598254886258329
0.13776454043505104,0.13776454043505104
0.23415045907403087,0.23415045907403087
0.3422195193662204,0.3422195193662204
0.46197172131161957,0.46197172131161957
0.5863971799183026,0.5863971799183026
0.7114067956076462,0.7114067956076462
0.8264857408917615,0.8264857408917615
0.9269607591093647,0.9269607591093647
1.0017328656899067,1.0017328656899067
1.049049589385406,1.049049589385406
1.061316888121276,1.061316888121276
1.0414555473108196,1.0414555473108196
0.9871289386233946,0.9871289386233946
0.9047627899682663,0.9047627899682663
0.7978620438413978,0.7978620438413978
0.6781098418959987,0.6781098418959987
0.5501794407933527,0.5501794407933527
0.4245856680213486,0.4245856680213486
0.30658593732393086,0.30658593732393086
0.2014376624450438,0.2014376624450438
0.1097250004673478,0.1097250004673478
0.030863794308182486,0.030863794308182486
-0.03573011311511268,-0.03573011311511268
-0.09064087888519816,-0.09064087888519816
-0.13562097425005543,-0.13562097425005543
-0.17242287045766588,-0.17242287045766588
-0.2004624104253691,-0.2004624104253691
-0.222076222483807,-0.222076222483807
-0.2360959924676586,-0.2360959924676586
-0.24310587745958442,-0.24310587745958442
-0.240185092046282,-0.240185092046282
-0.22908610747573283,-0.22908610747573283
-0.20630398125197394,-0.20630398125197394
-0.17651197003628927,-0.17651197003628927
-0.1362051313327159,-0.1362051313327159
-0.0888884076372167,-0.0888884076372167
-0.0310568564538288,-0.0310568564538288
0.034368736804145386,0.034368736804145386
0.11439825712863168,0.11439825712863168
0.20552676202366718,0.20552676202366718
0.31184335106787525,0.31184335106787525
0.4257539821866696,0.4257539821866696
0.5431695558014268,0.5431695558014268
0.6535752444242583,0.6535752444242583
0.7505453201458986,0.7505453201458986
0.8264857408917615,0.8264857408917615
0.881396506661847,0.881396506661847
0.9170300887041365,0.9170300887041365
0.9415646861758769,0.9415646861758769
0.9567527703250494,0.9567527703250494
0.9684359119782591,0.9684359119782591
0.9754457969701849,0.9754457969701849
0.9766141111355059,0.9766141111355059
0.973109168639543,0.973109168639543
0.9631784982343147,0.9631784982343147
0.953831984911747,0.953831984911747
0.9409805290932164,0.9409805290932164
0.9246241307787227,0.9246241307787227
0.8971687478936801,0.8971687478936801
0.8533569666941437,0.8533569666941437
0.7931887871801139,0.7931887871801139
0.7213374660128744,0.7213374660128744
0.6506544590109559,0.6506544590109559
0.5939912219928889,0.5939912219928889
0.5659516820251858,0.5659516820251858
0.5729615670171115,0.5729615670171115
0.6126842486380244,0.6126842486380244
0.6687633285734309,0.6687633285734309
0.7166642093515906,0.7166642093515906
0.7207533089302139,0.7207533089302139
0.6564960298375607,0.6564960298375607
0.5151300158337236,0.5151300158337236
0.3194373931424615,0.3194373931424615
0.11381410004597119,0.11381410004597119
-0.0456607835203409,-0.0456607835203409
-0.11868041885290138,-0.11868041885290138
-0.0888884076372167,-0.0888884076372167
0.029695480142861518,0.029695480142861518
0.2008535053623833,0.2008535053623833
0.38311051515245426,0.38311051515245426
0.5437537128840874,0.5437537128840874
0.6611692864988445,0.6611692864988445
0.7318522935007631,0.7318522935007631
0.7587235193031454,0.7587235193031454
0.7517136343112196,0.7517136343112196
0.7207533089302139,0.7207533089302139
0.6763573706480172,0.6763573706480172
0.6220307619605921,0.6220307619605921
0.5641992107772043,0.5641992107772043
0.502278560015193,0.502278560015193
0.44094206633584215,0.44094206633584215
0.3749323159952075,0.3749323159952075
0.31417997939851716,0.31417997939851716
0.25284348571916637,0.25284348571916637
0.19910103411440186,0.19910103411440186
0.14827936792293975,0.14827936792293975
0.10563590088872442,0.10563590088872442
0.0700023188464349,0.0700023188464349
0.043131093044052646,0.043131093044052646
0.02443806639891716,0.02443806639891716
0.015675710159009905,0.015675710159009905
0.013339081828367969,0.013339081828367969
0.019764809737633292,0.019764809737633292
0.029111323060201033,0.029111323060201033
0.04605187845735507,0.04605187845735507
0.06532906218515103,0.06532906218515103
0.09336860215285425,0.09336860215285425
0.1272497129471623,0.1272497129471623
0.1722298083120196,0.1722298083120196
0.22772473116476555,0.22772473116476555
0.29723942400136316,0.29723942400136316
0.3790214155738309,0.3790214155738309
0.47423902004748975,0.47423902004748975
0.5793872949263769,0.5793872949263769
0.6903771406318687,0.6903771406318687
0.8001986721720398,0.8001986721720398
0.9000895333069825,0.9000895333069825
0.9830398390447712,0.9830398390447712
1.0402872331454986,1.0402872331454986
1.06599014478256,1.06599014478256
1.0560594743773317,1.0560594743773317
1.011663536095135,1.011663536095135
0.9339706441012905,0.9339706441012905
0.8305748404703849,0.8305748404703849
0.7090701672770042,0.7090701672770042
0.5817239232570188,0.5817239232570188
0.4549618363196938,0.4549618363196938
0.338130419787597,0.338130419787597
0.23239798782604942,0.23239798782604942
0.1424377970963349,0.1424377970963349
0.06532906218515103,0.06532906218515103
0.0010717830924978084,0.0010717830924978084
-0.051502354346945736,-0.051502354346945736
-0.0923933501331796,-0.0923933501331796
-0.12276951843152477,-0.12276951843152477
-0.14438333048996266,-0.14438333048996266
-0.16132388588711669,-0.16132388588711669
-0.1788485983669312,-0.1788485983669312
-0.1969574679294062,-0.1969574679294062
-0.21973959415316507,-0.21973959415316507
-0.24135340621160298,-0.24135340621160298
-0.2623830611873804,-0.2623830611873804
-0.2769869882538925,-0.2769869882538925
-0.28983844407242315,-0.28983844407242315
-0.2980166432296699,-0.2980166432296699
-0.3085314707175586,-0.3085314707175586
-0.31904629820544733,-0.31904629820544733
-0.33248191110663844,-0.33248191110663844
-0.3447492098425086,-0.3447492098425086
-0.3564323514957183,-0.3564323514957183
-0.36577886481828603,-0.36577886481828603
-0.3739570639755328,-0.3739570639755328
-0.3827194202154401,-0.3827194202154401
-0.39440256186864975,-0.39440256186864975
-0.4072540176871804,-0.4072540176871804
-0.42010547350571104,-0.42010547350571104
-0.43003614391093925,-0.43003614391093925
-0.43412524348956266,-0.43412524348956266
-0.4323727722415812,-0.4323727722415812
-0.42769951558029734,-0.42769951558029734
-0.4241945730843344,-0.4241945730843344
-0.42244210183635295,-0.42244210183635295
-0.42769951558029734,-0.42769951558029734
-0.4323727722415812,-0.4323727722415812
-0.440550971398828,-0.440550971398828
-0.44230344264680943,-0.44230344264680943
-0.44347175681213036,-0.44347175681213036
-0.43996681431616746,-0.43996681431616746
-0.438214343068186,-0.438214343068186
-0.43704602890286504,-0.43704602890286504
-0.438214343068186,-0.438214343068186
-0.43704602890286504,-0.43704602890286504
-0.43003614391093925,-0.43003614391093925
-0.40900648893516184,-0.40900648893516184
-0.3727887498102118,-0.3727887498102118
-0.3161255127921449,-0.3161255127921449
-0.24953160536884975,-0.24953160536884975
-0.18410601211087554,-0.18410601211087554
-0.1473041159032651,-0.1473041159032651
-0.15957141463913524,-0.15957141463913524
-0.24252172037692393,-0.24252172037692393
-0.3897293052073659,-0.3897293052073659
-0.5807486712373441,-0.5807486712373441
-0.7700155660193408,-0.7700155660193408
-0.9160548366844619,-0.9160548366844619
-0.983817058273078,-0.983817058273078
-0.9674606599585844,-0.9674606599585844
-0.8792529404768513,-0.8792529404768513
-0.7524908535395264,-0.7524908535395264
-0.6163822532796336,-0.6163822532796336
-0.4995508367475368,-0.4995508367475368
-0.4142639026791062,-0.4142639026791062
-0.3616897652396626,-0.3616897652396626
-0.33540269651994087,-0.33540269651994087
-0.32780865444535456,-0.32780865444535456
-0.331897754023978,-0.331897754023978
-0.3412442673465457,-0.3412442673465457
-0.3570165085783788,-0.3570165085783788
-0.37687784938883523,-0.37687784938883523
-0.40082828977791507,-0.40082828977791507
-0.42010547350571104,-0.42010547350571104
-0.4323727722415812,-0.4323727722415812
-0.4218579447536925,-0.4218579447536925
-0.39323424770332877,-0.39323424770332877
-0.3383234819332433,-0.3383234819332433
-0.2728978886752691,-0.2728978886752691
-0.19754162501206668,-0.19754162501206668
-0.12685861801014817,-0.12685861801014817
-0.056759768090890096,-0.056759768090890096
0.009834139332405066,0.009834139332405066
0.0881111884089099,0.0881111884089099
0.1786555362212849,0.1786555362212849
0.2937344815054002,0.2937344815054002
0.42750645343465105,0.42750645343465105
0.5823080803396793,0.5823080803396793
0.7476245347325962,0.7476245347325962
0.9181984028694574,0.9181984028694574
1.0852673285103558,1.0852673285103558
1.2453263691593284,1.2453263691593284
1.396038896485733,1.396038896485733
1.5409098529855332,1.5409098529855332
1.6828600240720306,1.6828600240720306
1.8218894097452258,1.8218894097452258
1.9544930675091556,1.9544930675091556
2.0701561698759314,2.0701561698759314
2.1571955751923437,2.1571955751923437
2.2045122988878427,2.2045122988878427
2.2080172413838057,2.2080172413838057
2.1671262455975717,2.1671262455975717
2.086512568190425,2.086512568190425
1.974354408319612,1.974354408319612
1.8370774938943983,1.8370774938943983
1.6805233957413888,1.6805233957413888
1.514038627183151,1.514038627183151
1.3434647590462896,1.3434647590462896
1.1804849329840148,1.1804849329840148
1.0350298194015541,1.0350298194015541
0.9181984028694574,0.9181984028694574
0.8346639400490082,0.8346639400490082
0.7861789021881881,0.7861789021881881
0.7657334042950712,0.7657334042950712
0.7657334042950712,0.7657334042950712
0.7774165459482809,0.7774165459482809
0.7937729442627744,0.7937729442627744
0.8124659709079098,0.8124659709079098
0.8317431546357058,0.8317431546357058
0.8510203383635019,0.8510203383635019
0.8667925795953348,0.8667925795953348
0.879059878331205,0.879059878331205
0.8819806637445075,0.8819806637445075
0.8796440354138655,0.8796440354138655
0.8673767366779954,0.8673767366779954
0.8510203383635019,0.8510203383635019
0.8264857408917615,0.8264857408917615
0.7996145150893792,0.7996145150893792
0.7645650901297503,0.7645650901297503
0.7271790368394793,0.7271790368394793
0.6833672556399429,0.6833672556399429
0.6366346890271043,0.6366346890271043
0.5846447086703211,0.5846447086703211
0.5309022570655567,0.5309022570655567
0.47423902004748975,0.47423902004748975
0.4169916259467623,0.4169916259467623
0.35740760351539297,0.35740760351539297
0.29957605233200507,0.29957605233200507
0.24174450114861717,0.24174450114861717
0.1903386778744946,0.1903386778744946
0.14126948293101393,0.14126948293101393
0.10096264422744054,0.10096264422744054
0.06474490510249055,0.06474490510249055
0.03612120805212684,0.03612120805212684
0.009834139332405066,0.009834139332405066
-0.011779672726032836,-0.011779672726032836
-0.031641013536489286,-0.031641013536489286
-0.049165726016303805,-0.049165726016303805
-0.06610628141345784,-0.06610628141345784
-0.08071020847996993,-0.08071020847996993
-0.09648244971180299,-0.09648244971180299
-0.10933390553033363,-0.10933390553033363
-0.1216012042662038,-0.1216012042662038
-0.12744277509280863,-0.12744277509280863
-0.12452198967950621,-0.12452198967950621
-0.10874974844767316,-0.10874974844767316
-0.08012605139730945,-0.08012605139730945
-0.04098752685905703,-0.04098752685905703
0.0004876260098373246,0.0004876260098373246
0.03144795139084297,0.03144795139084297
0.03612120805212684,0.03612120805212684
-0.001264845238144127,-0.001264845238144127
-0.09064087888519816,-0.09064087888519816
-0.23375936413701667,-0.23375936413701667
-0.4148480597617667,-0.4148480597617667
-0.6058674257917449,-0.6058674257917449
-0.7688472518540199,-0.7688472518540199
-0.8734113696502465,-0.8734113696502465
-0.8996984383699683,-0.8996984383699683
-0.8523817146744691,-0.8523817146744691
-0.7484017539609029,-0.7484017539609029
-0.6181347245276151,-0.6181347245276151
-0.48845185217698767,-0.48845185217698767
-0.38096694896745864,-0.38096694896745864
-0.3026898998909538,-0.3026898998909538
-0.25362070494747313,-0.25362070494747313
-0.2261653220624304,-0.2261653220624304
-0.21214555207857877,-0.21214555207857877
-0.203967352921332,-0.203967352921332
-0.19929409626004813,-0.19929409626004813
-0.2004624104253691,-0.2004624104253691
-0.20864060958261588,-0.20864060958261588
-0.2267494791450909,-0.2267494791450909
-0.25011576245151024,-0.25011576245151024
-0.276402831171232,-0.276402831171232
-0.2962641719816885,-0.2962641719816885
-0.3061948423869167,-0.3061948423869167
-0.3021057428082933,-0.3021057428082933
-0.2816602449151764,-0.2816602449151764
-0.2483632912035288,-0.2483632912035288
-0.20163072459069006,-0.20163072459069006
-0.1502249013165675,-0.1502249013165675
-0.09706660679446348,-0.09706660679446348
-0.04858156893364332,-0.04858156893364332
-0.005353944816767514,-0.005353944816767514
0.03144795139084297,0.03144795139084297
0.06766569051579296,0.06766569051579296
0.10563590088872442,0.10563590088872442
0.15120015333624218,0.15120015333624218
0.2043584478583462,0.2043584478583462
0.26861572695099944,0.26861572695099944
0.34338783353154134,0.34338783353154134
0.4304272388479535,0.4304272388479535
0.5273973145695938,0.5273973145695938
0.6331297465311414,0.6331297465311414
0.7417829639059913,0.7417829639059913
0.8486837100328599,0.8486837100328599
0.9444854715891793,0.9444854715891793
1.023930834831005,1.023930834831005
1.077089129353109,1.077089129353109
1.1016237268248494,1.1016237268248494
1.0922772135022816,1.0922772135022816
1.0513862177160478,1.0513862177160478
0.9801190536314688,0.9801190536314688
0.8872380774884518,0.8872380774884518
0.7768323888656203,0.7768323888656203
0.6600009723335236,0.6600009723335236
0.5414170845534454,0.5414170845534454
0.4292589246826325,0.4292589246826325
0.3258631210517268,0.3258631210517268
0.23473461615669136,0.23473461615669136
0.1541209387495446,0.1541209387495446
0.08460624591294699,0.08460624591294699
0.023269752233596196,0.023269752233596196
-0.03047269937116832,-0.03047269937116832
-0.07778942306666752,-0.07778942306666752
-0.11926457593556186,-0.11926457593556186
-0.15548231506051186,-0.15548231506051186
-0.18702679752417797,-0.18702679752417797
-0.21389802332656024,-0.21389802332656024
-0.23901677788096104,-0.23901677788096104
-0.26121474702205943,-0.26121474702205943
-0.28458103032847876,-0.28458103032847876
-0.30444237113893524,-0.30444237113893524
-0.3260561831973731,-0.3260561831973731
-0.34358089567718764,-0.34358089567718764
-0.3616897652396626,-0.3616897652396626
-0.3751253781408538,-0.3751253781408538
-0.3897293052073659,-0.3897293052073659
-0.40082828977791507,-0.40082828977791507
-0.41192727434846427,-0.41192727434846427
-0.4183530022577296,-0.4183530022577296
-0.42302625891901346,-0.42302625891901346
-0.42010547350571104,-0.42010547350571104
-0.41192727434846427,-0.41192727434846427
-0.39323424770332877,-0.39323424770332877
-0.36577886481828603,-0.36577886481828603
-0.3272244973626941,-0.3272244973626941
-0.2769869882538925,-0.2769869882538925
-0.21272970916123926,-0.21272970916123926
-0.1332843459194135,-0.1332843459194135
-0.03573011311511268,-0.03573011311511268
0.08168546049964458,0.08168546049964458
0.21370496118091395,0.21370496118091395
0.36208086017667684,0.36208086017667684
0.5092884450071188,0.5092884450071188
0.6553277156722397,0.6553277156722397
0.7791690171962623,0.7791690171962623
0.8831489779098285,0.8831489779098285
0.952663670746426,0.952663670746426
0.9947229806979808,0.9947229806979808
1.006990279433851,1.006990279433851
0.9999803944419252,0.9999803944419252
0.9789507394661477,0.9789507394661477
0.952663670746426,0.952663670746426
0.9246241307787227,0.9246241307787227
0.8977529049763405,0.8977529049763405
0.8656242654300139,0.8656242654300139
0.8183075417345147,0.8183075417345147
0.7376938643273679,0.7376938643273679
0.6033377353154566,0.6033377353154566
0.39771444221896635,0.39771444221896635
0.12374477045119942,0.12374477045119942
-0.19578915376408523,-0.19578915376408523
-0.511818135483407,-0.511818135483407
-0.7711838801846618,-0.7711838801846618
-0.9242330358417086,-0.9242330358417086
-0.9511042616440909,-0.9511042616440909
-0.8605599138317158,-0.8605599138317158
-0.6858969461162312,-0.6858969461162312
-0.47092713969717315,-0.47092713969717315
-0.2547890191127941,-0.2547890191127941
-0.0637696530828159,-0.0637696530828159
0.09220028798753328,0.09220028798753328
0.21312080409825346,0.21312080409825346
0.30658593732393086,0.30658593732393086
0.3790214155738309,0.3790214155738309
0.4362688096745583,0.4362688096745583
0.4800805908740946,0.4800805908740946
0.5133775445857421,0.5133775445857421
0.5338230424788591,0.5338230424788591
0.5449220270494083,0.5449220270494083
0.5437537128840874,0.5437537128840874
0.5332388853961986,0.5332388853961986
0.5116250733377607,0.5116250733377607
0.48066474795675507,0.48066474795675507
0.4432786946664841,0.4432786946664841
0.4006352276322688,0.4006352276322688
0.35740760351539297,0.35740760351539297
0.3135958223158567,0.3135958223158567
0.2715365123643019,0.2715365123643019
0.23122967366072847,0.23122967366072847
0.1897545207918341,0.1897545207918341
0.15061599625358169,0.15061599625358169
0.1103091575500083,0.1103091575500083
0.07409141842505829,0.07409141842505829
0.04079446471341071,0.04079446471341071
0.015675710159009905,0.015675710159009905
-0.001264845238144127,-0.001264845238144127
-0.004185630651446546,-0.004185630651446546
0.0074975110017631305,0.0074975110017631305
0.03787367930010829,0.03787367930010829
0.08694287424358893,0.08694287424358893
0.15645756708018652,0.15645756708018652
0.24349697239659862,0.24349697239659862
0.3468927760275043,0.3468927760275043
0.4590509358983172,0.4590509358983172
0.5723774099344511,0.5723774099344511
0.6769415277306776,0.6769415277306776
0.7633967759644292,0.7633967759644292
0.8223966413131382,0.8223966413131382
0.8486837100328599,0.8486837100328599
0.8387530396276317,0.8387530396276317
0.7937729442627744,0.7937729442627744
0.718416680599572,0.718416680599572
0.6208624477952712,0.6208624477952712
0.5092884450071188,0.5092884450071188
0.393625342640343,0.393625342640343
0.2814671827695301,0.2814671827695301
0.17748722205596396,0.17748722205596396
0.08752703132624942,0.08752703132624942
0.009834139332405066,0.009834139332405066
-0.05208651142960622,-0.05208651142960622
-0.10173986345574734,-0.10173986345574734
-0.13795760258069734,-0.13795760258069734
-0.16482882838307958,-0.16482882838307958
-0.18352185502821508,-0.18352185502821508
-0.19578915376408523,-0.19578915376408523
-0.2033831958386715,-0.2033831958386715
-0.20747229541729492,-0.20747229541729492
-0.21214555207857877,-0.21214555207857877
-0.2156504945745417,-0.2156504945745417
-0.222076222483807,-0.222076222483807
-0.22733363622775135,-0.22733363622775135
-0.23492767830233766,-0.23492767830233766
-0.23960093496362153,-0.23960093496362153
-0.24544250579022636,-0.24544250579022636
-0.2483632912035288,-0.2483632912035288
-0.25245239078215215,-0.25245239078215215
-0.2547890191127941,-0.2547890191127941
-0.25770980452609654,-0.25770980452609654
-0.259462275774078,-0.259462275774078
-0.2606305899393989,-0.2606305899393989
-0.26121474702205943,-0.26121474702205943
-0.2617989041047199,-0.2617989041047199
-0.2629672182700409,-0.2629672182700409
-0.26413553243536186,-0.26413553243536186
-0.2664721607660038,-0.2664721607660038
-0.2682246320139852,-0.2682246320139852
-0.2693929461793062,-0.2693929461793062
-0.27114541742728765,-0.27114541742728765
-0.2728978886752691,-0.2728978886752691
-0.27348204575792956,-0.27348204575792956
-0.27465035992325054,-0.27465035992325054
-0.27523451700591106,-0.27523451700591106
-0.27873945950187395,-0.27873945950187395
-0.2804919307498554,-0.2804919307498554
-0.2851651874111393,-0.2851651874111393
-0.2880859728244417,-0.2880859728244417
-0.2915909153204046,-0.2915909153204046
-0.2950958578163675,-0.2950958578163675
-0.30035327156031183,-0.30035327156031183
-0.30677899946957715,-0.30677899946957715
-0.312620570296182,-0.312620570296182
-0.311452256130861,-0.311452256130861
-0.2974324861470094,-0.2974324861470094
-0.26355137535270134,-0.26355137535270134
-0.20980892374793683,-0.20980892374793683
-0.1432150163246417,-0.1432150163246417
-0.08596762222391428,-0.08596762222391428
-0.06201718183483445,-0.06201718183483445
-0.0999873922077659,-0.0999873922077659
-0.20805645249995539,-0.20805645249995539
-0.3774620064714957,-0.3774620064714957
-0.5719863149974368,-0.5719863149974368
-0.7489859110435635,-0.7489859110435635
-0.8646490134103393,-0.8646490134103393
-0.9002825954526288,-0.9002825954526288
-0.8576391284184134,-0.8576391284184134
-0.7624215239447546,-0.7624215239447546
-0.6432534790820159,-0.6432534790820159
-0.531095319211203,-0.531095319211203
-0.44113512848148845,-0.44113512848148845
-0.37979863480213766,-0.37979863480213766
-0.3418284244292062,-0.3418284244292062
-0.32196708361874976,-0.32196708361874976
-0.311452256130861,-0.311452256130861
-0.30677899946957715,-0.30677899946957715
-0.3038582140562747,-0.3038582140562747
-0.3015215857256328,-0.3015215857256328
-0.29684832906434894,-0.29684832906434894
-0.2869176586591207,-0.2869176586591207
-0.2728978886752691,-0.2728978886752691
-0.2506999195341707,-0.2506999195341707
-0.2296702645583933,-0.2296702645583933
-0.20513566708665298,-0.20513566708665298
-0.18819511168949896,-0.18819511168949896
-0.1712545562923449,-0.1712545562923449
-0.16015557172179573,-0.16015557172179573
-0.14496748757262315,-0.14496748757262315
-0.12744277509280863,-0.12744277509280863
-0.09765076387712396,-0.09765076387712396
-0.060264710586852996,-0.060264710586852996
-0.007106416064748966,-0.007106416064748966
0.05481423469726232,0.05481423469726232
0.13309128377376717,0.13309128377376717
0.22421978866880266,0.22421978866880266
0.338130419787597,0.338130419787597
0.47657564837813166,0.47657564837813166
0.6465653594323325,0.6465653594323325
0.8480995529501995,0.8480995529501995
1.07825744351843,1.07825744351843
1.3265242036491356,1.3265242036491356
1.580632534606446,1.580632534606446
1.8236418809932073,1.8236418809932073
2.0415324728255677,2.0415324728255677
2.224373639698299,2.224373639698299
2.3639871824541547,2.3639871824541547
2.458036472762493,2.458036472762493
2.5036007252100108,2.5036007252100108
2.5024324110446896,2.5024324110446896
2.4527790590185488,2.4527790590185488
2.3563931403795686,2.3563931403795686
2.2173637547063736,2.2173637547063736
2.0432849440735494,2.0432849440735494
1.8446715359689847,1.8446715359689847
1.6343749862112105,1.6343749862112105
1.4246625935360968,1.4246625935360968
1.2266333425141929,1.2266333425141929
1.044376332724122,1.044376332724122
0.8802281924965261,0.8802281924965261
0.7324364505834237,0.7324364505834237
0.6010011069848148,0.6010011069848148
0.4835855333700575,0.4835855333700575
0.38427882931777524,0.38427882931777524
0.30541762315860993,0.30541762315860993
0.25284348571916637,0.25284348571916637
0.22714057408210508,0.22714057408210508
0.22480394575146315,0.22480394575146315
0.24349697239659862,0.24349697239659862
0.2732889836122833,0.2732889836122833
0.3089225656545728,0.3089225656545728
0.3422195193662204,0.3422195193662204
0.37201153058190506,0.37201153058190506
0.393625342640343,0.393625342640343
0.40881342678951554,0.40881342678951554
0.4134866834507994,0.4134866834507994
0.411734212202818,0.411734212202818
0.4000510705496083,0.4000510705496083
0.3825263580697938,0.3825263580697938
0.35799176059805343,0.35799176059805343
0.3311205347956712,0.3311205347956712
0.30074436649732605,0.30074436649732605
0.26978404111632037,0.26978404111632037
0.2376554015699938,0.2376554015699938
0.20669507618898814,0.20669507618898814
0.17631890789064297,0.17631890789064297
0.14652689667495827,0.14652689667495827
0.11673488545927362,0.11673488545927362
0.08635871716092845,0.08635871716092845
0.054230077614601836,0.054230077614601836
0.020348966820293777,0.020348966820293777
-0.014116301056674772,-0.014116301056674772
-0.04974988309896429,-0.04974988309896429
-0.08421515097593284,-0.08421515097593284
-0.11751210468758042,-0.11751210468758042
-0.14788827298592558,-0.14788827298592558
-0.17417534170564733,-0.17417534170564733
-0.19812578209472717,-0.19812578209472717
-0.2185712799878441,-0.2185712799878441
-0.2366801495503191,-0.2366801495503191
-0.2471949770382078,-0.2471949770382078
-0.2483632912035288,-0.2483632912035288
-0.23375936413701667,-0.23375936413701667
-0.20163072459069006,-0.20163072459069006
-0.1537298438125304,-0.1537298438125304
-0.09881907804244493,-0.09881907804244493
-0.053838982677587674,-0.053838982677587674
-0.042739998107038484,-0.042739998107038484
-0.08772009347189574,-0.08772009347189574
-0.19987825334270862,-0.19987825334270862
-0.37220459272755135,-0.37220459272755135
-0.5754912574933997,-0.5754912574933997
-0.7659264664407175,-0.7659264664407175
-0.8991142812873077,-0.8991142812873077
-0.9481834762307885,-0.9481834762307885
-0.909044951692536,-0.909044951692536
-0.8009758914003465,-0.8009758914003465
-0.6549366207352255,-0.6549366207352255
-0.5024716221608393,-0.5024716221608393
-0.366947178983607,-0.366947178983607
-0.26121474702205943,-0.26121474702205943
-0.18702679752417797,-0.18702679752417797
-0.13912591674601832,-0.13912591674601832
-0.10933390553033363,-0.10933390553033363
-0.0923933501331796,-0.0923933501331796
-0.08246267972795138,-0.08246267972795138
-0.07954189431464896,-0.07954189431464896
-0.08596762222391428,-0.08596762222391428
-0.10057154929042639,-0.10057154929042639
-0.12569030384482718,-0.12569030384482718
-0.1537298438125304,-0.1537298438125304
-0.18060106961491265,-0.18060106961491265
-0.19812578209472717,-0.19812578209472717
-0.20163072459069006,-0.20163072459069006
-0.1893634258548199,-0.1893634258548199
-0.16015557172179573,-0.16015557172179573
-0.11926457593556186,-0.11926457593556186
-0.06902706682676026,-0.06902706682676026
-0.017621243552637673,-0.017621243552637673
0.03261626555616394,0.03261626555616394
0.07584388967303975,0.07584388967303975
0.11381410004597119,0.11381410004597119
0.14477442542697683,0.14477442542697683
0.17281396539468008,0.17281396539468008
0.19968519119706232,0.19968519119706232
0.23181383074338893,0.23181383074338893
0.2715365123643019,0.2715365123643019
0.3235264927210849,0.3235264927210849
0.3883679288963986,0.3883679288963986
0.4654766638075825,0.4654766638075825
0.5519319120413341,0.5519319120413341
0.6453970452670115,0.6453970452670115
0.7417829639059913,0.7417829639059913
0.8381688825449711,0.8381688825449711
0.9281290732746857,0.9281290732746857
1.006990279433851,1.006990279433851
1.0654059876998994,1.0654059876998994
1.099871255576868,1.099871255576868
1.1045445122381519,1.1045445122381519
1.0800099147664115,1.0800099147664115
1.0280199344096284,1.0280199344096284
0.953831984911747,0.953831984911747
0.8638717941820325,0.8638717941820325
0.7645650901297503,0.7645650901297503
0.662921757746826,0.662921757746826
0.5636150536945438,0.5636150536945438
0.4713182346341873,0.4713182346341873
0.3889520859790591,0.3889520859790591
0.3194373931424615,0.3194373931424615
0.2616058419590736,0.2616058419590736
0.2160415895115559,0.2160415895115559
0.17748722205596396,0.17748722205596396
0.1459427395922978,0.1459427395922978
0.11790319962459458,0.11790319962459458
0.09512107340083571,0.09512107340083571
0.07642804675570022,0.07642804675570022
0.06416074801983006,0.06416074801983006
0.05364592053194135,0.05364592053194135
0.04722019262267603,0.04722019262267603
0.03845783638276878,0.03845783638276878
0.030279637225522002,0.030279637225522002
0.01801233848965184,0.01801233848965184
0.006913353919102647,0.006913353919102647
-0.007106416064748966,-0.007106416064748966
-0.01995787188327961,-0.01995787188327961
-0.03456179894979171,-0.03456179894979171
-0.04741325476832235,-0.04741325476832235
-0.06201718183483445,-0.06201718183483445
-0.07545279473602558,-0.07545279473602558
-0.0888884076372167,-0.0888884076372167
-0.0999873922077659,-0.0999873922077659
-0.10816559136501268,-0.10816559136501268
-0.11283884802629654,-0.11283884802629654
-0.11575963343959896,-0.11575963343959896
-0.11692794760491992,-0.11692794760491992
-0.11868041885290138,-0.11868041885290138
-0.1216012042662038,-0.1216012042662038
-0.12569030384482718,-0.12569030384482718
-0.13036356050611106,-0.13036356050611106
-0.1332843459194135,-0.1332843459194135
-0.13678928841537638,-0.13678928841537638
-0.13678928841537638,-0.13678928841537638
-0.13912591674601832,-0.13912591674601832
-0.13678928841537638,-0.13678928841537638
-0.13795760258069734,-0.13795760258069734
-0.1362051313327159,-0.1362051313327159
-0.13678928841537638,-0.13678928841537638
-0.13678928841537638,-0.13678928841537638
-0.1362051313327159,-0.1362051313327159
-0.13153187467143201,-0.13153187467143201
-0.11984873301822235,-0.11984873301822235
-0.09648244971180299,-0.09648244971180299
-0.06084886766951348,-0.06084886766951348
-0.012947986891353803,-0.012947986891353803
0.03612120805212684,0.03612120805212684
0.07350726134239781,0.07350726134239781
0.07701220383836072,0.07701220383836072
0.027943008894880064,0.027943008894880064
-0.08596762222391428,-0.08596762222391428
-0.25654149036077556,-0.25654149036077556
-0.4604123122092844,-0.4604123122092844
-0.6572732490658675,-0.6572732490658675
-0.8056491480616303,-0.8056491480616303
-0.875163840898228,-0.875163840898228
-0.8593915996663949,-0.8593915996663949
-0.7711838801846618,-0.7711838801846618
-0.6415010078340344,-0.6415010078340344
-0.5018874650781787,-0.5018874650781787
-0.3786303206368167,-0.3786303206368167
-0.28574934449379974,-0.28574934449379974
-0.22733363622775135,-0.22733363622775135
-0.19754162501206668,-0.19754162501206668
-0.18877926877215942,-0.18877926877215942
-0.19228421126812234,-0.19228421126812234
-0.20221488167335055,-0.20221488167335055
-0.21681880873986265,-0.21681880873986265
-0.23434352121967716,-0.23434352121967716
-0.25654149036077556,-0.25654149036077556
-0.28224440199783685,-0.28224440199783685
-0.313788884461503,-0.313788884461503
-0.3447492098425086,-0.3447492098425086
-0.3751253781408538,-0.3751253781408538
-0.39673919019929166,-0.39673919019929166
-0.40783817476984086,-0.40783817476984086
-0.4025807610258965,-0.4025807610258965
-0.3803827918847981,-0.3803827918847981
-0.3406601102638852,-0.3406601102638852
-0.2904226011550836,-0.2904226011550836
-0.23375936413701667,-0.23375936413701667
-0.1794327554495917,-0.1794327554495917
-0.12977940342345057,-0.12977940342345057
-0.08772009347189574,-0.08772009347189574
-0.04858156893364332,-0.04858156893364332
-0.010611358560711869,-0.010611358560711869
0.03144795139084297,0.03144795139084297
0.08051714633432361,0.08051714633432361
0.1395170116830325,0.1395170116830325
0.211368332850272,0.211368332850272
0.29548695275338166,0.29548695275338166
0.39070455722704056,0.39070455722704056
0.49293204669262525,0.49293204669262525
0.5963278503235309,0.5963278503235309
0.6921296118798502,0.6921296118798502
0.775079917617639,0.775079917617639
0.8364164112969897,0.8364164112969897
0.8738024645872607,0.8738024645872607
0.8825648208271679,0.8825648208271679
0.863287637099372,0.863287637099372
0.8159709134038728,0.8159709134038728
0.7452879064019543,0.7452879064019543
0.6547435585895792,0.6547435585895792
0.5525160691239945,0.5525160691239945
0.44503116591446557,0.44503116591446557
0.34046704811823897,0.34046704811823897
0.24291281531393813,0.24291281531393813
0.157041724162847,0.157041724162847
0.08168546049964458,0.08168546049964458
0.01801233848965184,0.01801233848965184
-0.037482584363094124,-0.037482584363094124
-0.08246267972795138,-0.08246267972795138
-0.12043289010088283,-0.12043289010088283
-0.14905658715124653,-0.14905658715124653
-0.1712545562923449,-0.1712545562923449
-0.18644264044151748,-0.18644264044151748
-0.19870993917738766,-0.19870993917738766
-0.20922476666527637,-0.20922476666527637
-0.2185712799878441,-0.2185712799878441
-0.22908610747573283,-0.22908610747573283
-0.23843262079830055,-0.23843262079830055
-0.24894744828618925,-0.24894744828618925
-0.25654149036077556,-0.25654149036077556
-0.26355137535270134,-0.26355137535270134
-0.26764047493132476,-0.26764047493132476
-0.27114541742728765,-0.27114541742728765
-0.2728978886752691,-0.2728978886752691
-0.2728978886752691,-0.2728978886752691
-0.2717295745099481,-0.2717295745099481
-0.26997710326196667,-0.26997710326196667
-0.2682246320139852,-0.2682246320139852
-0.2658880036833433,-0.2658880036833433
-0.2647196895180223,-0.2647196895180223
-0.26355137535270134,-0.26355137535270134
-0.26413553243536186,-0.26413553243536186
-0.26355137535270134,-0.26355137535270134
-0.26355137535270134,-0.26355137535270134
-0.26355137535270134,-0.26355137535270134
-0.26355137535270134,-0.26355137535270134
-0.26413553243536186,-0.26413553243536186
-0.2658880036833433,-0.2658880036833433
-0.26705631784866424,-0.26705631784866424
-0.26997710326196667,-0.26997710326196667
-0.2705612603446272,-0.2705612603446272
-0.2717295745099481,-0.2717295745099481
-0.26997710326196667,-0.26997710326196667
-0.2682246320139852,-0.2682246320139852
-0.2658880036833433,-0.2658880036833433
-0.26413553243536186,-0.26413553243536186
-0.2653038466006828,-0.2653038466006828
-0.2682246320139852,-0.2682246320139852
-0.2717295745099481,-0.2717295745099481
-0.27231373159260863,-0.27231373159260863
-0.2647196895180223,-0.2647196895180223
-0.24544250579022636,-0.24544250579022636
-0.20922476666527637,-0.20922476666527637
-0.16015557172179573,-0.16015557172179573
-0.10816559136501268,-0.10816559136501268
-0.07311616640538364,-0.07311616640538364
-0.07895773723198848,-0.07895773723198848
-0.14613580173794413,-0.14613580173794413
-0.2769869882538925,-0.2769869882538925
-0.4551548984653401,-0.4551548984653401
-0.6415010078340344,-0.6415010078340344
-0.7968867918217231,-0.7968867918217231
-0.8827578829728142,-0.8827578829728142
-0.8903519250474006,-0.8903519250474006
-0.8260946459547474,-0.8260946459547474
-0.7186097427452183,-0.7186097427452183
-0.5947684412211957,-0.5947684412211957
-0.4826102813503828,-0.4826102813503828
-0.3926500906206683,-0.3926500906206683
-0.3313135969413175,-0.3313135969413175
-0.2927592294857255,-0.2927592294857255
-0.27114541742728765,-0.27114541742728765
-0.25887811869141747,-0.25887811869141747
-0.2518682336994917,-0.2518682336994917
-0.2477791341208683,-0.2477791341208683
-0.2477791341208683,-0.2477791341208683
-0.25303654786481267,-0.25303654786481267
-0.2647196895180223,-0.2647196895180223
-0.2828285590804973,-0.2828285590804973
-0.3026898998909538,-0.3026898998909538
-0.3231353977840707,-0.3231353977840707
-0.33657101068526185,-0.33657101068526185
-0.34007595318122474,-0.34007595318122474
-0.32897696861067555,-0.32897696861067555
-0.3015215857256328,-0.3015215857256328
-0.25887811869141747,-0.25887811869141747
-0.20630398125197394,-0.20630398125197394
-0.1502249013165675,-0.1502249013165675
-0.09531413554648202,-0.09531413554648202
-0.04682909768566187,-0.04682909768566187
-0.0030173164861255785,-0.0030173164861255785
0.03728952221744781,0.03728952221744781
0.07876467508634216,0.07876467508634216
0.12374477045119942,0.12374477045119942
0.17631890789064297,0.17631890789064297
0.2376554015699938,0.2376554015699938
0.31125919398521473,0.31125919398521473
0.3965461280536454,0.3965461280536454
0.4941003608579462,0.4941003608579462
0.5992486357368333,0.5992486357368333
0.7096543243596647,0.7096543243596647
0.8171392275691938,0.8171392275691938
0.9170300887041365,0.9170300887041365
1.0011487086072461,1.0011487086072461
1.0654059876998994,1.0654059876998994
1.099871255576868,1.099871255576868
1.1045445122381519,1.1045445122381519
1.0718317156091648,1.0718317156091648
1.008158593599172,1.008158593599172
0.9135251462081736,0.9135251462081736
0.7990303580067187,0.7990303580067187
0.6710999569040728,0.6710999569040728
0.5414170845534454,0.5414170845534454
0.41523915469878087,0.41523915469878087
0.30074436649732605,0.30074436649732605
0.20026934827972281,0.20026934827972281
0.11673488545927362,0.11673488545927362
0.04897266387065748,0.04897266387065748
-0.00476978773410703,-0.00476978773410703
-0.04741325476832235,-0.04741325476832235
-0.08129436556263041,-0.08129436556263041
-0.1105022196956546,-0.1105022196956546
-0.1362051313327159,-0.1362051313327159
-0.15898725755647475,-0.15898725755647475
-0.18001691253225216,-0.18001691253225216
-0.19929409626004813,-0.19929409626004813
-0.21740296582252314,-0.21740296582252314
-0.23259104997169572,-0.23259104997169572
-0.24661081995554732,-0.24661081995554732
-0.25770980452609654,-0.25770980452609654
-0.2664721607660038,-0.2664721607660038
-0.2717295745099481,-0.2717295745099481
-0.27523451700591106,-0.27523451700591106
-0.27757114533655297,-0.27757114533655297
-0.2804919307498554,-0.2804919307498554
-0.28341271616315783,-0.28341271616315783
-0.2863335015764602,-0.2863335015764602
-0.28983844407242315,-0.28983844407242315
-0.2915909153204046,-0.2915909153204046
-0.2939275436510465,-0.2939275436510465
-0.2950958578163675,-0.2950958578163675
-0.2980166432296699,-0.2980166432296699
-0.29976911447765137,-0.29976911447765137
-0.3021057428082933,-0.3021057428082933
-0.3026898998909538,-0.3026898998909538
-0.3021057428082933,-0.3021057428082933
-0.30035327156031183,-0.30035327156031183
-0.29918495739499085,-0.29918495739499085
-0.2974324861470094,-0.2974324861470094
-0.29976911447765137,-0.29976911447765137
-0.29976911447765137,-0.29976911447765137
-0.30327405697361426,-0.30327405697361426
-0.3026898998909538,-0.3026898998909538
-0.3038582140562747,-0.3038582140562747
-0.3026898998909538,-0.3026898998909538
-0.3038582140562747,-0.3038582140562747
-0.30444237113893524,-0.30444237113893524
-0.3050265282215957,-0.3050265282215957
-0.3015215857256328,-0.3015215857256328
-0.2915909153204046,-0.2915909153204046
-0.26764047493132476,-0.26764047493132476
-0.22733363622775135,-0.22733363622775135
-0.1712545562923449,-0.1712545562923449
-0.10991806261299412,-0.10991806261299412
-0.06201718183483445,-0.06201718183483445
-0.05559145392556913,-0.05559145392556913
-0.1110863767783151,-0.1110863767783151
-0.2366801495503191,-0.2366801495503191
-0.4142639026791062,-0.4142639026791062
-0.6076198970397263,-0.6076198970397263
-0.7711838801846618,-0.7711838801846618
-0.8687381129889626,-0.8687381129889626
-0.8845103542207957,-0.8845103542207957
-0.8272629601200683,-0.8272629601200683
-0.7221146852411812,-0.7221146852411812
-0.60002585496514,-0.60002585496514
-0.48669938092900616,-0.48669938092900616
-0.39790750436461264,-0.39790750436461264
-0.3371551677679223,-0.3371551677679223
-0.30093742864297235,-0.30093742864297235
-0.28107608783251586,-0.28107608783251586
-0.2705612603446272,-0.2705612603446272
-0.26355137535270134,-0.26355137535270134
-0.25770980452609654,-0.25770980452609654
-0.25362070494747313,-0.25362070494747313
-0.2518682336994917,-0.2518682336994917
-0.25654149036077556,-0.25654149036077556
-0.2664721607660038,-0.2664721607660038
-0.28458103032847876,-0.28458103032847876
-0.3056106853042562,-0.3056106853042562
-0.32780865444535456,-0.32780865444535456
-0.3447492098425086,-0.3447492098425086
-0.35117493775177394,-0.35117493775177394
-0.3453333669251691,-0.3453333669251691
-0.32138292653608924,-0.32138292653608924
-0.2839968732458183,-0.2839968732458183
-0.23492767830233766,-0.23492767830233766
-0.18060106961491265,-0.18060106961491265
-0.12569030384482718,-0.12569030384482718
-0.07545279473602558,-0.07545279473602558
-0.029304385205847352,-0.029304385205847352
0.014507395993688938,0.014507395993688938
0.06123996260652764,0.06123996260652764
0.11439825712863168,0.11439825712863168
0.17807137913862442,0.17807137913862442
0.25284348571916637,0.25284348571916637
0.33988289103557845,0.33988289103557845
0.4380212809225397,0.4380212809225397
0.5449220270494083,0.5449220270494083
0.6547435585895792,0.6547435585895792
0.7616443047164478,0.7616443047164478
0.8568619091901066,0.8568619091901066
0.9351389582666115,0.9351389582666115
0.9871289386233946,0.9871289386233946
1.0099110648471534,1.0099110648471534
0.9988120802766043,0.9988120802766043
0.955000299077068,0.955000299077068
0.879059878331205,0.879059878331205
0.7780007030309414,0.7780007030309414
0.6582485010855421,0.6582485010855421
0.5320705712308776,0.5320705712308776
0.4058926413762131,0.4058926413762131
0.2878929106787954,0.2878929106787954
0.18099216455192685,0.18099216455192685
0.08927950257423087,0.08927950257423087
0.009834139332405066,0.009834139332405066
-0.05500729684290864,-0.05500729684290864
-0.10816559136501268,-0.10816559136501268
-0.149640744233907,-0.149640744233907
-0.18118522669757314,-0.18118522669757314
-0.20630398125197394,-0.20630398125197394
-0.22441285081444895,-0.22441285081444895
-0.2407692491289425,-0.2407692491289425
-0.2542048620301336,-0.2542048620301336
-0.2693929461793062,-0.2693929461793062
-0.2828285590804973,-0.2828285590804973
-0.29918495739499085,-0.29918495739499085
-0.312620570296182,-0.312620570296182
-0.32780865444535456,-0.32780865444535456
-0.34007595318122474,-0.34007595318122474
-0.3523432519170949,-0.3523432519170949
-0.36110560815700216,-0.36110560815700216
-0.3704521214795699,-0.3704521214795699
-0.3774620064714957,-0.3774620064714957
-0.385056048546082,-0.385056048546082
-0.39323424770332877,-0.39323424770332877
-0.403164918108557,-0.403164918108557
-0.41309558851378525,-0.41309558851378525
-0.42302625891901346,-0.42302625891901346
-0.43120445807626023,-0.43120445807626023
-0.43704602890286504,-0.43704602890286504
-0.44113512848148845,-0.44113512848148845
-0.44522422806011186,-0.44522422806011186
-0.4493133276387352,-0.4493133276387352
-0.45457074138267956,-0.45457074138267956
-0.45924399804396343,-0.45924399804396343
-0.4609964692919449,-0.4609964692919449
-0.4627489405399264,-0.4627489405399264
-0.45982815512662395,-0.45982815512662395
-0.45865984096130297,-0.45865984096130297
-0.4528182701346981,-0.4528182701346981
-0.4504816418040562,-0.4504816418040562
-0.44347175681213036,-0.44347175681213036
-0.439382657233507,-0.439382657233507
-0.43412524348956266,-0.43412524348956266
-0.43354108640690214,-0.43354108640690214
-0.43412524348956266,-0.43412524348956266
-0.43704602890286504,-0.43704602890286504
-0.43354108640690214,-0.43354108640690214
-0.421273787671032,-0.421273787671032
-0.3897293052073659,-0.3897293052073659
-0.34241258151186665,-0.34241258151186665
-0.28224440199783685,-0.28224440199783685
-0.23142273580637474,-0.23142273580637474
-0.21039308083059732,-0.21039308083059732
-0.2477791341208683,-0.2477791341208683
-0.35000662358645296,-0.35000662358645296
-0.511818135483407,-0.511818135483407
-0.6975800877694409,-0.6975800877694409
-0.8710747413196046,-0.8710747413196046
-0.9873220007690409,-0.9873220007690409
-1.0317179390512377,-1.0317179390512377
-1.001925927835553,-1.001925927835553
-0.9218964075110666,-0.9218964075110666
-0.8155798184668586,-0.8155798184668586
-0.7115998577532925,-0.7115998577532925
-0.621639667023578,-0.621639667023578
-0.5544616025176223,-0.5544616025176223
-0.5053924075741417,-0.5053924075741417
-0.4738479251104755,-0.4738479251104755
-0.4528182701346981,-0.4528182701346981
-0.44113512848148845,-0.44113512848148845
-0.43412524348956266,-0.43412524348956266
-0.43120445807626023,-0.43120445807626023
-0.4329569293242417,-0.4329569293242417
-0.43879850015084654,-0.43879850015084654
-0.4516499559693772,-0.4516499559693772
-0.4685905113665312,-0.4685905113665312
-0.49195679467295056,-0.49195679467295056
-0.512986449648728,-0.512986449648728
-0.5305111621285424,-0.5305111621285424
-0.5363527329551473,-0.5363527329551473
-0.528758690880561,-0.528758690880561
-0.5030557792434998,-0.5030557792434998
-0.4615806263746054,-0.4615806263746054
-0.40666986060451993,-0.40666986060451993
-0.34650168109049007,-0.34650168109049007
-0.2863335015764602,-0.2863335015764602
-0.23200689288903523,-0.23200689288903523
-0.18410601211087554,-0.18410601211087554
-0.14146254507666026,-0.14146254507666026
-0.0999873922077659,-0.0999873922077659
-0.05500729684290864,-0.05500729684290864
-0.00476978773410703,-0.00476978773410703
0.05773502011056474,0.05773502011056474
0.13192296960844618,0.13192296960844618
0.2230514745034817,0.2230514745034817
0.3258631210517268,0.3258631210517268
0.4391895950878607,0.4391895950878607
0.5513477549586736,0.5513477549586736
0.6576643440028817,0.6576643440028817
0.7470403776499357,0.7470403776499357
0.8188916988171752,0.8188916988171752
0.864455951264693,0.864455951264693
0.8843172920751494,0.8843172920751494
0.8697133650086373,0.8697133650086373
0.8253174267264405,0.8253174267264405
0.7487928488979172,0.7487928488979172
0.6506544590109559,0.6506544590109559
0.536159670809501,0.536159670809501
0.41640746886410185,0.41640746886410185
0.29665526691870264,0.29665526691870264
0.18391294996522928,0.18391294996522928
0.08168546049964458,0.08168546049964458
-0.005938101899427998,-0.005938101899427998
-0.07895773723198848,-0.07895773723198848
-0.1362051313327159,-0.1362051313327159
-0.1817693837802336,-0.1817693837802336
-0.21798712290518363,-0.21798712290518363
-0.25011576245151024,-0.25011576245151024
-0.27873945950187395,-0.27873945950187395
-0.30444237113893524,-0.30444237113893524
-0.32547202611471265,-0.32547202611471265
-0.3406601102638852,-0.3406601102638852
-0.3505907806691135,-0.3505907806691135
-0.3558481944130578,-0.3558481944130578
-0.35876897982636025,-0.35876897982636025
-0.36110560815700216,-0.36110560815700216
-0.3634422364876441,-0.3634422364876441
-0.3634422364876441,-0.3634422364876441
-0.3599372939916812,-0.3599372939916812
-0.3523432519170949,-0.3523432519170949
-0.3406601102638852,-0.3406601102638852
-0.3272244973626941,-0.3272244973626941
-0.3132047273788425,-0.3132047273788425
-0.3021057428082933,-0.3021057428082933
-0.2927592294857255,-0.2927592294857255
-0.2863335015764602,-0.2863335015764602
-0.2799077736671949,-0.2799077736671949
-0.27465035992325054,-0.27465035992325054
-0.2682246320139852,-0.2682246320139852
-0.2617989041047199,-0.2617989041047199
-0.2547890191127941,-0.2547890191127941
-0.24894744828618925,-0.24894744828618925
-0.24252172037692393,-0.24252172037692393
-0.23784846371564006,-0.23784846371564006
-0.2331752070543562,-0.2331752070543562
-0.23083857872371427,-0.23083857872371427
-0.22791779331041184,-0.22791779331041184
-0.22733363622775135,-0.22733363622775135
-0.2255811649797699,-0.2255811649797699
-0.22441285081444895,-0.22441285081444895
-0.22324453664912797,-0.22324453664912797
-0.222076222483807,-0.222076222483807
-0.2185712799878441,-0.2185712799878441
-0.21214555207857877,-0.21214555207857877
-0.2004624104253691,-0.2004624104253691
-0.18001691253225216,-0.18001691253225216
-0.14788827298592558,-0.14788827298592558
-0.1034923347037288,-0.1034923347037288
-0.04858156893364332,-0.04858156893364332
0.0074975110017631305,0.0074975110017631305
0.048388506787997,0.048388506787997
0.05130929220129942,0.05130929220129942
-0.0030173164861255785,-0.0030173164861255785
-0.1216012042662038,-0.1216012042662038
-0.28983844407242315,-0.28983844407242315
-0.47735286760643847,-0.47735286760643847
-0.6397485365860529,-0.6397485365860529
-0.7413918689689771,-0.7413918689689771
-0.7606690526967731,-0.7606690526967731
-0.7040058156787062,-0.7040058156787062
-0.5912634987252328,-0.5912634987252328
-0.45340242721735863,-0.45340242721735863
-0.31787798404012635,-0.31787798404012635
-0.2033831958386715,-0.2033831958386715
-0.11809626177024089,-0.11809626177024089
-0.061433024752173965,-0.061433024752173965
-0.02579944270988445,-0.02579944270988445
-0.00476978773410703,-0.00476978773410703
0.008081668084423614,0.008081668084423614
0.016844024324330874,0.016844024324330874
0.022101438068275227,0.022101438068275227
0.02385390931625668,0.02385390931625668
0.01801233848965184,0.01801233848965184
0.006329196836442163,0.006329196836442163
-0.012947986891353803,-0.012947986891353803
-0.03456179894979171,-0.03456179894979171
-0.056759768090890096,-0.056759768090890096
-0.07253200932272316,-0.07253200932272316
-0.07662110890134655,-0.07662110890134655
-0.06669043849611832,-0.06669043849611832
-0.03923505561107558,-0.03923505561107558
0.0010717830924978084,0.0010717830924978084
0.05364592053194135,0.05364592053194135
0.10855668630202683,0.10855668630202683
0.1611308237414704,0.1611308237414704
0.20552676202366718,0.20552676202366718
0.2446652865619196,0.2446652865619196
0.2791305544388881,0.2791305544388881
0.3159324506464986,0.3159324506464986
0.35799176059805343,0.35799176059805343
0.410565898037497,0.410565898037497
0.47423902004748975,0.47423902004748975
0.5495952837106921,0.5495952837106921
0.6360505319444437,0.6360505319444437
0.7312681364181026,0.7312681364181026
0.8317431546357058,0.8317431546357058
0.9328023299359696,0.9328023299359696
1.026267463161647,1.026267463161647
1.1068811405687937,1.1068811405687937
1.1670493200828236,1.1670493200828236
1.201514587959792,1.201514587959792
1.203851216290434,1.203851216290434
1.173475047992089,1.173475047992089
1.1098019259820961,1.1098019259820961
1.0175051069217398,1.0175051069217398
0.9041786328856058,0.9041786328856058
0.7797531742789228,0.7797531742789228
0.6541594015069188,0.6541594015069188
0.536159670809501,0.536159670809501
0.4315955530132744,0.4315955530132744
0.3416353622835599,0.3416353622835599
0.265694941537697,0.265694941537697
0.20202181952770426,0.20202181952770426
0.1494476820882607,0.1494476820882607
0.10563590088872442,0.10563590088872442
0.07175479009441635,0.07175479009441635
0.0448835642920341,0.0448835642920341
0.0267746947295591,0.0267746947295591
0.012754924745707486,0.012754924745707486
0.003992568505800227,0.003992568505800227
-0.005353944816767514,-0.005353944816767514
-0.012947986891353803,-0.012947986891353803
-0.024046971461903,-0.024046971461903
-0.033977641867131224,-0.033977641867131224
-0.04682909768566187,-0.04682909768566187
-0.057343925173550574,-0.057343925173550574
-0.06844290974409976,-0.06844290974409976
-0.07603695181868605,-0.07603695181868605
-0.08421515097593284,-0.08421515097593284
-0.09064087888519816,-0.09064087888519816
-0.09940323512510542,-0.09940323512510542
-0.10641312011703122,-0.10641312011703122
-0.10874974844767316,-0.10874974844767316
-0.09940323512510542,-0.09940323512510542
-0.07486863765336509,-0.07486863765336509
-0.03222517061914977,-0.03222517061914977
0.02443806639891716,0.02443806639891716
0.08752703132624942,0.08752703132624942
0.14769521084027926,0.14769521084027926
0.1973485628664204,0.1973485628664204
0.23298214490870991,0.23298214490870991
0.25751674238045025,0.25751674238045025
0.27212066944696234,0.27212066944696234
0.2814671827695301,0.2814671827695301
0.2884770677614559,0.2884770677614559
0.2937344815054002,0.2937344815054002
0.2978235810840236,0.2978235810840236
0.3013285235799865,0.3013285235799865
0.30541762315860993,0.30541762315860993
0.3095067227372333,0.3095067227372333
0.31184335106787525,0.31184335106787525
0.31417997939851716,0.31417997939851716
0.31417997939851716,0.31417997939851716
0.31417997939851716,0.31417997939851716
0.31534829356383814,0.31534829356383814
0.3206057073077825,0.3206057073077825
0.33287300604365266,0.33287300604365266
0.3533185039367696,0.3533185039367696
0.3790214155738309,0.3790214155738309
0.40121938471492924,0.40121938471492924
0.40530848429355265,0.40530848429355265
0.3801897297391518,0.3801897297391518
0.3194373931424615,0.3194373931424615
0.23181383074338893,0.23181383074338893
0.13659622626973006,0.13659622626973006
0.06123996260652764,0.06123996260652764
0.0267746947295591,0.0267746947295591
0.043131093044052646,0.043131093044052646
0.10388342964074297,0.10388342964074297
0.19150699203981555,0.19150699203981555
0.282635496934851,0.282635496934851
0.3603283889286954,0.3603283889286954
0.411734212202818,0.411734212202818
0.43510049550923735,0.43510049550923735
0.43334802426125585,0.43334802426125585
0.4158233117814414,0.4158233117814414
0.3901204001443801,0.3901204001443801
0.36616995975530026,0.36616995975530026
0.34747693311016475,0.34747693311016475
0.33637794853961556,0.33637794853961556
0.32936806354768977,0.32936806354768977
0.3235264927210849,0.3235264927210849
0.3135958223158567,0.3135958223158567
0.30074436649732605,0.30074436649732605
0.284972125265493,0.284972125265493
0.2715365123643019,0.2715365123643019
0.26335831320705505,0.26335831320705505
0.265694941537697,0.265694941537697
0.2802988686042091,0.2802988686042091
0.30775425148925184,0.30775425148925184
0.3428036764488809,0.3428036764488809
0.38311051515245426,0.38311051515245426
0.41757578302942283,0.41757578302942283
0.4426945375838236,0.4426945375838236
0.4491202654930889,0.4491202654930889
0.4403579092531817,0.4403579092531817
0.41640746886410185,0.41640746886410185
0.38661545764841715,0.38661545764841715
0.356239289350072,0.356239289350072
0.33228884896099214,0.33228884896099214
0.3171007648118196,0.3171007648118196
0.31184335106787525,0.31184335106787525
0.31417997939851716,0.31417997939851716
0.3235264927210849,0.3235264927210849
0.3346254772916341,0.3346254772916341
0.3457244618621833,0.3457244618621833
0.3503977185234672,0.3503977185234672
0.34747693311016475,0.34747693311016475
0.33287300604365266,0.33287300604365266
0.3083384085719123,0.3083384085719123
0.2732889836122833,0.2732889836122833
0.23064551657806798,0.23064551657806798
0.18216047871724783,0.18216047871724783
0.13250712669110667,0.13250712669110667
0.08343793174762604,0.08343793174762604
0.04254693596139216,0.04254693596139216
0.012170767663047002,0.012170767663047002
-0.0030173164861255785,-0.0030173164861255785
-0.0030173164861255785,-0.0030173164861255785
0.011002453497726035,0.011002453497726035
0.03495289388680587,0.03495289388680587
0.066497376350472,0.066497376350472
0.0992101729794591,0.0992101729794591
0.13367544085642763,0.13367544085642763
0.1681407087333962,0.1681407087333962
0.20552676202366718,0.20552676202366718
0.2440811294792591,0.2440811294792591
0.28614043943081396,0.28614043943081396
0.32936806354768977,0.32936806354768977
0.37317984474722604,0.37317984474722604
0.4134866834507994,0.4134866834507994
0.44970442257574944,0.44970442257574944
0.47657564837813166,0.47657564837813166
0.49526867502326716,0.49526867502326716
0.5028627170978535,0.5028627170978535
0.502278560015193,0.502278560015193
0.4941003608579462,0.4941003608579462
0.48124890503941553,0.48124890503941553
0.466060820890243,0.466060820890243
0.44970442257574944,0.44970442257574944
0.43334802426125585,0.43334802426125585
0.41874409719474376,0.41874409719474376
0.40647679845887363,0.40647679845887363
0.3959619709709849,0.3959619709709849
0.3848629864004357,0.3848629864004357
0.36967490225126315,0.36967490225126315
0.3492294043581462,0.3492294043581462
0.3246948068864059,0.3246948068864059
0.30074436649732605,0.30074436649732605
0.2843879681828325,0.2843879681828325
0.2802988686042091,0.2802988686042091
0.28906122484411634,0.28906122484411634
0.3060017802412704,0.3060017802412704
0.32527896396906636,0.32527896396906636
0.34105120520089943,0.34105120520089943
0.3503977185234672,0.3503977185234672
0.3539026610194301,0.3539026610194301
0.34747693311016475,0.34747693311016475
0.32878390646502925,0.32878390646502925
0.29315032442273975,0.29315032442273975
0.23882371573531475,0.23882371573531475
0.17398227956000104,0.17398227956000104
0.10914084338468732,0.10914084338468732
0.06065580552386716,0.06065580552386716
0.03962615054808974,0.03962615054808974
0.053061763449280874,0.053061763449280874
0.09979433006211957,0.09979433006211957
0.17515059372532202,0.17515059372532202
0.265694941537697,0.265694941537697
0.3539026610194301,0.3539026610194301
0.41290252636813896,0.41290252636813896
0.4216648826080462,0.4216648826080462
0.3650016455899793,0.3650016455899793
0.24992270030586394,0.24992270030586394
0.09628938756615668,0.09628938756615668
-0.05792808225621106,-0.05792808225621106
-0.1817693837802336,-0.1817693837802336
-0.25245239078215215,-0.25245239078215215
-0.26764047493132476,-0.26764047493132476
-0.23492767830233766,-0.23492767830233766
-0.17592781295362878,-0.17592781295362878
-0.10641312011703122,-0.10641312011703122
-0.04449246935501993,-0.04449246935501993
0.004576725588460712,0.004576725588460712
0.03728952221744781,0.03728952221744781
0.05831917719322523,0.05831917719322523
0.07175479009441635,0.07175479009441635
0.08343793174762604,0.08343793174762604
0.09453691631817522,0.09453691631817522
0.1062200579713849,0.1062200579713849
0.11556657129395265,0.11556657129395265
0.12140814212055748,0.12140814212055748
0.120823985037897,0.120823985037897
0.1173190425419341,0.1173190425419341
0.10680421505404539,0.10680421505404539
0.09745770173147765,0.09745770173147765
0.08694287424358893,0.08694287424358893
0.08577456007826796,0.08577456007826796
0.09278444507019377,0.09278444507019377
0.11439825712863168,0.11439825712863168
0.14827936792293975,0.14827936792293975
0.19618024870109943,0.19618024870109943
0.2505068573885244,0.2505068573885244
0.3089225656545728,0.3089225656545728
0.3638333314246583,0.3638333314246583
0.4158233117814414,0.4158233117814414
0.4625558783942801,0.4625558783942801
0.5098726020897792,0.5098726020897792
0.5571893257852785,0.5571893257852785
0.6132684057206849,0.6132684057206849
0.6786939989786591,0.6786939989786591
0.7593076763858059,0.7593076763858059
0.8533569666941437,0.8533569666941437
0.9637626553169752,0.9637626553169752
1.082930700179714,1.082930700179714
1.2079403158690574,1.2079403158690574
1.3276925178144565,1.3276925178144565
1.435761578106646,1.435761578106646
1.5233851405057186,1.5233851405057186
1.5841374771024088,1.5841374771024088
1.6115928599874516,1.6115928599874516
1.6045829749955258,1.6045829749955258
1.5619395079613105,1.5619395079613105
1.48891987262875,1.48891987262875
1.3907814827417888,1.3907814827417888
1.2780391657883154,1.2780391657883154
1.1571186496775954,1.1571186496775954
1.0385347618975171,1.0385347618975171
0.9257924449440438,0.9257924449440438
0.8241491125611196,0.8241491125611196
0.7324364505834237,0.7324364505834237
0.6524069302589374,0.6524069302589374
0.5828922374223398,0.5828922374223398
0.5227240579083099,0.5227240579083099
0.4713182346341873,0.4713182346341873
0.4280906105173115,0.4280906105173115
0.39187287139236154,0.39187287139236154
0.36091254601135586,0.36091254601135586
0.33404132020897365,0.33404132020897365
0.31067503690255427,0.31067503690255427
0.28906122484411634,0.28906122484411634
0.2703681981989809,0.2703681981989809
0.25284348571916637,0.25284348571916637
0.23882371573531475,0.23882371573531475
0.2253881028341236,0.2253881028341236
0.2148732753462349,0.2148732753462349
0.20377429077568573,0.20377429077568573
0.19559609161843894,0.19559609161843894
0.18624957829587122,0.18624957829587122
0.18040800746926636,0.18040800746926636
0.17456643664266153,0.17456643664266153
0.1716456512293591,0.1716456512293591
0.1687248658160567,0.1687248658160567
0.1675565516507357,0.1675565516507357
0.16405160915477282,0.16405160915477282
0.1611308237414704,0.1611308237414704
0.15587340999752605,0.15587340999752605
0.15236846750156313,0.15236846750156313
0.14711105375761876,0.14711105375761876
0.14535858250963732,0.14535858250963732
0.1424377970963349,0.1424377970963349
0.14360611126165587,0.14360611126165587
0.1424377970963349,0.1424377970963349
0.14419026834431636,0.14419026834431636
0.14360611126165587,0.14360611126165587
0.14419026834431636,0.14419026834431636
0.14360611126165587,0.14360611126165587
0.14419026834431636,0.14419026834431636
0.14477442542697683,0.14477442542697683
0.14535858250963732,0.14535858250963732
0.14477442542697683,0.14477442542697683
0.14360611126165587,0.14360611126165587
0.14126948293101393,0.14126948293101393
0.14360611126165587,0.14360611126165587
0.15645756708018652,0.15645756708018652
0.1897545207918341,0.1897545207918341
0.24933854322320345,0.24933854322320345
0.3357937914569551,0.3357937914569551
0.43860543800520024,0.43860543800520024
0.537327984974822,0.537327984974822
0.6027535782327962,0.6027535782327962
0.609763463224722,0.609763463224722
0.5455061841320687,0.5455061841320687
0.4169916259467623,0.4169916259467623
0.2505068573885244,0.2505068573885244
0.08343793174762604,0.08343793174762604
-0.04974988309896429,-0.04974988309896429
-0.12977940342345057,-0.12977940342345057
-0.1537298438125304,-0.1537298438125304
-0.1332843459194135,-0.1332843459194135
-0.08713593638923525,-0.08713593638923525
-0.032809327701810255,-0.032809327701810255
0.01509155307634942,0.01509155307634942
0.053061763449280874,0.053061763449280874
0.07759636092102119,0.07759636092102119
0.09395275923551474,0.09395275923551474
0.10329927255808248,0.10329927255808248
0.11264578588065022,0.11264578588065022
0.12023982795523651,0.12023982795523651
0.12958634127780425,0.12958634127780425
0.1348437550217486,0.1348437550217486
0.14010116876569295,0.14010116876569295
0.1354279121044091,0.1354279121044091
0.13075465544312523,0.13075465544312523
0.11848735670725506,0.11848735670725506
0.10914084338468732,0.10914084338468732
0.09979433006211957,0.09979433006211957
0.0992101729794591,0.0992101729794591
0.10738837213670586,0.10738837213670586
0.12900218419514378,0.12900218419514378
0.16229913790679137,0.16229913790679137
0.20786339035430912,0.20786339035430912
0.2592692136284317,0.2592692136284317
0.3130116652331962,0.3130116652331962
0.36441748850731875,0.36441748850731875
0.411734212202818,0.411734212202818
0.45613015048501476,0.45613015048501476
0.5005260887672115,0.5005260887672115
0.5490111266280316,0.5490111266280316
0.6050902065634381,0.6050902065634381
0.6734365852347147,0.6734365852347147
0.7546344197245219,0.7546344197245219
0.8486837100328599,0.8486837100328599
0.955000299077068,0.955000299077068
1.0689109301958624,1.0689109301958624
1.18691066089328,1.18691066089328
1.3031579203427162,1.3031579203427162
1.4112269806349058,1.4112269806349058
1.5041079567779227,1.5041079567779227
1.5765434350278227,1.5765434350278227
1.6215235303926798,1.6215235303926798
1.636127457459192,1.636127457459192
1.6168502737313961,1.6168502737313961
1.566028607539934,1.566028607539934
1.4854149301327872,1.4854149301327872
1.3831874406672025,1.3831874406672025
1.2651877099697848,1.2651877099697848
1.1419305655284229,1.1419305655284229
1.019257578169721,1.019257578169721
0.9053469470509268,0.9053469470509268
0.8007828292547002,0.8007828292547002
0.7102384814423253,0.7102384814423253
0.630208961117839,0.630208961117839
0.5641992107772043,0.5641992107772043
0.5057835025111559,0.5057835025111559
0.4584667788156567,0.4584667788156567
0.4158233117814414,0.4158233117814414
0.3825263580697938,0.3825263580697938
0.3515660326887881,0.3515660326887881
0.32936806354768977,0.32936806354768977
0.30775425148925184,0.30775425148925184
0.2925661673400793,0.2925661673400793
0.2762097690255857,0.2762097690255857
0.26511078445503655,0.26511078445503655
0.24992270030586394,0.24992270030586394
0.23882371573531475,0.23882371573531475
0.2253881028341236,0.2253881028341236
0.2154574324288954,0.2154574324288954
0.20377429077568573,0.20377429077568573
0.19559609161843894,0.19559609161843894
0.18741789246119217,0.18741789246119217
0.18157632163458734,0.18157632163458734
0.17631890789064297,0.17631890789064297
0.17339812247734057,0.17339812247734057
0.17047733706403814,0.17047733706403814
0.1681407087333962,0.1681407087333962
0.16346745207211233,0.16346745207211233
0.158210038328168,0.158210038328168
0.15178431041890267,0.15178431041890267
0.14652689667495827,0.14652689667495827
0.14068532584835344,0.14068532584835344
0.13776454043505104,0.13776454043505104
0.13425959793908812,0.13425959793908812
0.13250712669110667,0.13250712669110667
0.13017049836046474,0.13017049836046474
0.1284180271124833,0.1284180271124833
0.1278338700298228,0.1278338700298228
0.1272497129471623,0.1272497129471623
0.12666555586450184,0.12666555586450184
0.12374477045119942,0.12374477045119942
0.11907151378991554,0.11907151378991554
0.1103091575500083,0.1103091575500083
0.0992101729794591,0.0992101729794591
0.09044781673955184,0.09044781673955184
0.08927950257423087,0.08927950257423087
0.10563590088872442,0.10563590088872442
0.14711105375761876,0.14711105375761876
0.2189623749248583,0.2189623749248583
0.3159324506464986,0.3159324506464986
0.4222490396907067,0.4222490396907067
0.5122092304204212,0.5122092304204212
0.5577734828679389,0.5577734828679389
0.536159670809501,0.536159670809501
0.4438628517491446,0.4438628517491446
0.2960711098360422,0.2960711098360422
0.12608139878184135,0.12608139878184135
-0.029304385205847352,-0.029304385205847352
-0.14146254507666026,-0.14146254507666026
-0.19812578209472717,-0.19812578209472717
-0.20221488167335055,-0.20221488167335055
-0.16950208504436345,-0.16950208504436345
-0.11751210468758042,-0.11751210468758042
-0.06201718183483445,-0.06201718183483445
-0.012947986891353803,-0.012947986891353803
0.02560638056423813,0.02560638056423813
0.054230077614601836,0.054230077614601836
0.07409141842505829,0.07409141842505829
0.08577456007826796,0.08577456007826796
0.08986365965689136,0.08986365965689136
0.08694287424358893,0.08694287424358893
0.07642804675570022,0.07642804675570022
0.06240827677184861,0.06240827677184861
0.0448835642920341,0.0448835642920341
0.029111323060201033,0.029111323060201033
0.013923238911028453,0.013923238911028453
0.003408411423139744,0.003408411423139744
-0.0030173164861255785,-0.0030173164861255785
-0.0030173164861255785,-0.0030173164861255785
0.003992568505800227,0.003992568505800227
0.018596495572312324,0.018596495572312324
0.03962615054808974,0.03962615054808974
0.06240827677184861,0.06240827677184861
0.08343793174762604,0.08343793174762604
0.0992101729794591,0.0992101729794591
0.1097250004673478,0.1097250004673478
0.11381410004597119,0.11381410004597119
0.11439825712863168,0.11439825712863168
0.11322994296331071,0.11322994296331071
0.11556657129395265,0.11556657129395265
0.12199229920321797,0.12199229920321797
0.1348437550217486,0.1348437550217486
0.15353678166688411,0.15353678166688411
0.17807137913862442,0.17807137913862442
0.20611091910632764,0.20611091910632764
0.23298214490870991,0.23298214490870991
0.25634842821512926,0.25634842821512926
0.2715365123643019,0.2715365123643019
0.27504145486026477,0.27504145486026477
0.265694941537697,0.265694941537697
0.24232865823127767,0.24232865823127767
0.20669507618898814,0.20669507618898814
0.15996250957614944,0.15996250957614944
0.10505174380606394,0.10505174380606394
0.045467721374694584,0.045467721374694584
-0.01528461522199574,-0.01528461522199574
-0.07428448057070461,-0.07428448057070461
-0.12802693217546912,-0.12802693217546912
-0.17300702754032637,-0.17300702754032637
-0.20747229541729492,-0.20747229541729492
-0.22908610747573283,-0.22908610747573283
-0.23843262079830055,-0.23843262079830055
-0.2366801495503191,-0.2366801495503191
-0.2267494791450909,-0.2267494791450909
-0.21097723791325781,-0.21097723791325781
-0.19111589710280136,-0.19111589710280136
-0.16891792796170296,-0.16891792796170296
-0.1467199588206046,-0.1467199588206046
-0.12569030384482718,-0.12569030384482718
-0.10758143428235219,-0.10758143428235219
-0.09180919305051913,-0.09180919305051913
-0.08012605139730945,-0.08012605139730945
-0.07019538099208122,-0.07019538099208122
-0.061433024752173965,-0.061433024752173965
-0.05325482559492719,-0.05325482559492719
-0.043908312272359445,-0.043908312272359445
-0.03514595603245219,-0.03514595603245219
-0.026383599792544933,-0.026383599792544933
-0.01995787188327961,-0.01995787188327961
-0.014116301056674772,-0.014116301056674772
-0.011195515643372353,-0.011195515643372353
-0.008858887312730417,-0.008858887312730417
-0.008858887312730417,-0.008858887312730417
-0.007690573147409449,-0.007690573147409449
-0.009443044395390902,-0.009443044395390902
-0.010027201478051384,-0.010027201478051384
-0.011779672726032836,-0.011779672726032836
-0.011779672726032836,-0.011779672726032836
-0.011195515643372353,-0.011195515643372353
-0.009443044395390902,-0.009443044395390902
-0.007690573147409449,-0.007690573147409449
-0.007106416064748966,-0.007106416064748966
-0.007690573147409449,-0.007690573147409449
-0.008858887312730417,-0.008858887312730417
-0.009443044395390902,-0.009443044395390902
-0.007690573147409449,-0.007690573147409449
-0.00476978773410703,-0.00476978773410703
-9.653107282315926e-05,-9.653107282315926e-05
0.004576725588460712,0.004576725588460712
0.006913353919102647,0.006913353919102647
0.006329196836442163,0.006329196836442163
0.0016559401751582922,0.0016559401751582922
-0.005938101899427998,-0.005938101899427998
-0.01528461522199574,-0.01528461522199574
-0.021126186048600577,-0.021126186048600577
-0.018205400635298158,-0.018205400635298158
-0.001264845238144127,-0.001264845238144127
0.03144795139084297,0.03144795139084297
0.07759636092102119,0.07759636092102119
0.1284180271124833,0.1284180271124833
0.17047733706403814,0.17047733706403814
0.18683373537853168,0.18683373537853168
0.16288329498945187,0.16288329498945187
0.09453691631817522,0.09453691631817522
-0.009443044395390902,-0.009443044395390902
-0.12627446092748768,-0.12627446092748768
-0.2261653220624304,-0.2261653220624304
-0.28107608783251586,-0.28107608783251586
-0.28107608783251586,-0.28107608783251586
-0.23142273580637474,-0.23142273580637474
-0.15139321548188847,-0.15139321548188847
-0.06552212433079735,-0.06552212433079735
0.0074975110017631305,0.0074975110017631305
0.05773502011056474,0.05773502011056474
0.08343793174762604,0.08343793174762604
0.09044781673955184,0.09044781673955184
0.08519040299560748,0.08519040299560748
0.07409141842505829,0.07409141842505829
0.06240827677184861,0.06240827677184861
0.053061763449280874,0.053061763449280874
0.04722019262267603,0.04722019262267603
0.043131093044052646,0.043131093044052646
0.03962615054808974,0.03962615054808974
0.03261626555616394,0.03261626555616394
0.02385390931625668,0.02385390931625668
0.011586610580386517,0.011586610580386517
0.0016559401751582922,0.0016559401751582922
-0.005353944816767514,-0.005353944816767514
-0.005938101899427998,-0.005938101899427998
-9.653107282315926e-05,-9.653107282315926e-05
0.013923238911028453,0.013923238911028453
0.0337845797214849,0.0337845797214849
0.05715086302790426,0.05715086302790426
0.07818051800368167,0.07818051800368167
0.09395275923551474,0.09395275923551474
0.09979433006211957,0.09979433006211957
0.09687354464881716,0.09687354464881716
0.08986365965689136,0.08986365965689136
0.08869534549157039,0.08869534549157039
0.10037848714478007,0.10037848714478007
0.13075465544312523,0.13075465544312523
0.18157632163458734,0.18157632163458734
0.2505068573885244,0.2505068573885244
0.3334571631263131,0.3334571631263131
0.4269222963519905,0.4269222963519905
0.5279814716522543,0.5279814716522543
0.6331297465311414,0.6331297465311414
0.738862178492689,0.738862178492689
0.8393371967102922,0.8393371967102922
0.9310498586879881,0.9310498586879881
1.0046536511032091,1.0046536511032091
1.0572277885426526,1.0572277885426526
1.0823465430970534,1.0823465430970534
1.07825744351843,1.07825744351843
1.043208018558801,1.043208018558801
0.9818715248794502,0.9818715248794502
0.8971687478936801,0.8971687478936801
0.7966937296760769,0.7966937296760769
0.6874563552185663,0.6874563552185663
0.5764665095130744,0.5764665095130744
0.46664497797290344,0.46664497797290344
0.3614967030940164,0.3614967030940164
0.2621899990417341,0.2621899990417341
0.1716456512293591,0.1716456512293591
0.09103197382221233,0.09103197382221233
0.02443806639891716,0.02443806639891716
-0.029888542288507836,-0.029888542288507836
-0.0713636951574022,-0.0713636951574022
-0.1034923347037288,-0.1034923347037288
-0.1291952463407901,-0.1291952463407901
-0.15197737256454893,-0.15197737256454893
-0.17242287045766588,-0.17242287045766588
-0.19111589710280136,-0.19111589710280136
-0.20747229541729492,-0.20747229541729492
-0.22090790831848603,-0.22090790831848603
-0.23259104997169572,-0.23259104997169572
-0.24310587745958442,-0.24310587745958442
-0.25303654786481267,-0.25303654786481267
-0.26355137535270134,-0.26355137535270134
-0.27465035992325054,-0.27465035992325054
-0.2869176586591207,-0.2869176586591207
-0.2986008003123304,-0.2986008003123304
-0.31028394196554004,-0.31028394196554004
-0.3207987694534288,-0.3207987694534288
-0.331897754023978,-0.331897754023978
-0.3412442673465457,-0.3412442673465457
-0.35000662358645296,-0.35000662358645296
-0.3564323514957183,-0.3564323514957183
-0.36227392232232314,-0.36227392232232314
-0.3663630219009465,-0.3663630219009465
-0.3704521214795699,-0.3704521214795699
-0.3751253781408538,-0.3751253781408538
-0.3803827918847981,-0.3803827918847981
-0.38564020562874246,-0.38564020562874246
-0.39089761937268686,-0.39089761937268686
-0.39323424770332877,-0.39323424770332877
-0.3938184047859893,-0.3938184047859893
-0.39089761937268686,-0.39089761937268686
-0.38680851979406344,-0.38680851979406344
-0.37921447771947714,-0.37921447771947714
-0.37337290689287234,-0.37337290689287234
-0.3663630219009465,-0.3663630219009465
-0.36227392232232314,-0.36227392232232314
-0.3581848227436997,-0.3581848227436997
-0.35351156608241585,-0.35351156608241585
-0.3412442673465457,-0.3412442673465457
-0.313788884461503,-0.313788884461503
-0.26413553243536186,-0.26413553243536186
-0.19053174002014087,-0.19053174002014087
-0.09881907804244493,-0.09881907804244493
-0.00476978773410703,-0.00476978773410703
0.06708153343313249,0.06708153343313249
0.09103197382221233,0.09103197382221233
0.05130929220129942,0.05130929220129942
-0.053838982677587674,-0.053838982677587674
-0.20513566708665298,-0.20513566708665298
-0.37220459272755135,-0.37220459272755135
-0.5182438633926724,-0.5182438633926724
-0.6175505674449546,-0.6175505674449546
-0.657857406148528,-0.657857406148528
-0.6450059503299973,-0.6450059503299973
-0.5930159699732143,-0.5930159699732143
-0.5229171200539562,-0.5229171200539562
-0.4516499559693772,-0.4516499559693772
-0.3920659335380078,-0.3920659335380078
-0.34766999525581105,-0.34766999525581105
-0.3196304552881078,-0.3196304552881078
-0.3021057428082933,-0.3021057428082933
-0.2910067582377441,-0.2910067582377441
-0.2816602449151764,-0.2816602449151764
-0.2728978886752691,-0.2728978886752691
-0.26413553243536186,-0.26413553243536186
-0.2559573332781151,-0.2559573332781151
-0.2518682336994917,-0.2518682336994917
-0.25011576245151024,-0.25011576245151024
-0.25303654786481267,-0.25303654786481267
-0.2553731761954546,-0.2553731761954546
-0.259462275774078,-0.259462275774078
-0.259462275774078,-0.259462275774078
-0.25303654786481267,-0.25303654786481267
-0.23784846371564006,-0.23784846371564006
-0.2115613949959183,-0.2115613949959183
-0.17359118462298684,-0.17359118462298684
-0.12627446092748768,-0.12627446092748768
-0.07428448057070461,-0.07428448057070461
-0.020542028965940096,-0.020542028965940096
0.029695480142861518,0.029695480142861518
0.07701220383836072,0.07701220383836072
0.12199229920321797,0.12199229920321797
0.1681407087333962,0.1681407087333962
0.21837821784219782,0.21837821784219782
0.2773780831909067,0.2773780831909067
0.34630861894484377,0.34630861894484377
0.4280906105173115,0.4280906105173115
0.5221399008256494,0.5221399008256494
0.6267040186218761,0.6267040186218761
0.7376938643273679,0.7376938643273679
0.8504361812808413,0.8504361812808413
0.9573369274077099,0.9573369274077099
1.0519703747987084,1.0519703747987084
1.1255741672139292,1.1255741672139292
1.173475047992089,1.173475047992089
1.1909997604719034,1.1909997604719034
1.1769799904880518,1.1769799904880518
1.131415738040534,1.131415738040534
1.0578119456253132,1.0578119456253132
0.9608418699036728,0.9608418699036728
0.8480995529501995,0.8480995529501995
0.7254265655914978,0.7254265655914978
0.6015852640674753,0.6015852640674753
0.48124890503941553,0.48124890503941553
0.3714273734992446,0.3714273734992446
0.2732889836122833,0.2732889836122833
0.18858620662651315,0.18858620662651315
0.11615072837661312,0.11615072837661312
0.05481423469726232,0.05481423469726232
0.004576725588460712,0.004576725588460712
-0.03689842728043364,-0.03689842728043364
-0.06961122390942073,-0.06961122390942073
-0.09765076387712396,-0.09765076387712396
-0.11926457593556186,-0.11926457593556186
-0.14146254507666026,-0.14146254507666026
-0.16015557172179573,-0.16015557172179573
-0.18118522669757314,-0.18118522669757314
-0.19812578209472717,-0.19812578209472717
-0.21623465165720215,-0.21623465165720215
-0.22908610747573283,-0.22908610747573283
-0.24252172037692393,-0.24252172037692393
-0.2518682336994917,-0.2518682336994917
-0.2629672182700409,-0.2629672182700409
-0.2705612603446272,-0.2705612603446272
-0.2793236165845344,-0.2793236165845344
-0.28458103032847876,-0.28458103032847876
-0.2904226011550836,-0.2904226011550836
-0.294511700733707,-0.294511700733707
-0.29918495739499085,-0.29918495739499085
-0.3050265282215957,-0.3050265282215957
-0.312620570296182,-0.312620570296182
-0.32196708361874976,-0.32196708361874976
-0.331897754023978,-0.331897754023978
-0.3412442673465457,-0.3412442673465457
-0.3505907806691135,-0.3505907806691135
-0.35876897982636025,-0.35876897982636025
-0.36577886481828603,-0.36577886481828603
-0.3716204356448909,-0.3716204356448909
-0.3751253781408538,-0.3751253781408538
-0.37979863480213766,-0.37979863480213766
-0.38096694896745864,-0.38096694896745864
-0.38330357729810055,-0.38330357729810055
-0.38213526313277957,-0.38213526313277957
-0.383887734380761,-0.383887734380761
-0.38330357729810055,-0.38330357729810055
-0.38739267687672396,-0.38739267687672396
-0.3897293052073659,-0.3897293052073659
-0.39031346229002634,-0.39031346229002634
-0.37687784938883523,-0.37687784938883523
-0.34416505275984816,-0.34416505275984816
-0.28224440199783685,-0.28224440199783685
-0.19578915376408523,-0.19578915376408523
-0.09180919305051913,-0.09180919305051913
0.0016559401751582922,0.0016559401751582922
0.06123996260652764,0.06123996260652764
0.056566705945243774,0.056566705945243774
-0.01995787188327961,-0.01995787188327961
-0.16424467130041912,-0.16424467130041912
-0.3447492098425086,-0.3447492098425086
-0.5258379054672586,-0.5258379054672586
-0.6677880765537562,-0.6677880765537562
-0.7513225393742053,-0.7513225393742053
-0.7711838801846618,-0.7711838801846618
-0.7431443402169586,-0.7431443402169586
-0.6858969461162312,-0.6858969461162312
-0.6233921382715594,-0.6233921382715594
-0.5684813725014739,-0.5684813725014739
-0.528758690880561,-0.528758690880561
-0.5030557792434998,-0.5030557792434998
-0.4896201663423086,-0.4896201663423086
-0.48202612426772234,-0.48202612426772234
-0.4791053388544199,-0.4791053388544199
-0.47676871052377795,-0.47676871052377795
-0.4761845534411175,-0.4761845534411175
-0.47676871052377795,-0.47676871052377795
-0.48027365301974084,-0.48027365301974084
-0.4872835380116667,-0.4872835380116667
-0.4972142084168949,-0.4972142084168949
-0.5124022925660675,-0.5124022925660675
-0.5281745337979006,-0.5281745337979006
-0.5451150891950546,-0.5451150891950546
-0.5567982308482643,-0.5567982308482643
-0.5603031733442272,-0.5603031733442272
-0.550372502938999,-0.550372502938999
-0.5270062196325795,-0.5270062196325795
-0.48903600925964813,-0.48903600925964813
-0.44230344264680943,-0.44230344264680943
-0.3891451481247054,-0.3891451481247054
-0.33657101068526185,-0.33657101068526185
-0.2863335015764602,-0.2863335015764602
-0.23901677788096104,-0.23901677788096104
-0.1940366825161038,-0.1940366825161038
-0.1473041159032651,-0.1473041159032651
-0.09823492095978445,-0.09823492095978445
-0.04098752685905703,-0.04098752685905703
0.02443806639891716,0.02443806639891716
0.10154680131010103,0.10154680131010103
0.18624957829587122,0.18624957829587122
0.28205133985219055,0.28205133985219055
0.38077388682181235,0.38077388682181235
0.4824172192047365,0.4824172192047365
0.5770506665957349,0.5770506665957349
0.6635059148294865,0.6635059148294865
0.7306839793354422,0.7306839793354422
0.7780007030309414,0.7780007030309414
0.7984462009240583,0.7984462009240583
0.7931887871801139,0.7931887871801139
0.7593076763858059,0.7593076763858059
0.700307811037097,0.700307811037097
0.6161891911339873,0.6161891911339873
0.5151300158337236,0.5151300158337236
0.4000510705496083,0.4000510705496083
0.2802988686042091,0.2802988686042091
0.15996250957614944,0.15996250957614944
0.047804349705336514,0.047804349705336514
-0.05500729684290864,-0.05500729684290864
-0.14555164465528364,-0.14555164465528364
-0.22441285081444895,-0.22441285081444895
-0.2904226011550836,-0.2904226011550836
-0.34766999525581105,-0.34766999525581105
-0.3961550331166312,-0.3961550331166312
-0.43763018598552555,-0.43763018598552555
-0.47092713969717315,-0.47092713969717315
-0.49779836549955536,-0.49779836549955536
-0.5176597063100118,-0.5176597063100118
-0.5316794762938635,-0.5316794762938635
-0.5416101466990917,-0.5416101466990917
-0.548035874608357,-0.548035874608357
-0.5527091312696408,-0.5527091312696408
-0.5556299166829433,-0.5556299166829433
-0.5579665450135852,-0.5579665450135852
-0.5579665450135852,-0.5579665450135852
-0.5567982308482643,-0.5567982308482643
-0.5538774454349619,-0.5538774454349619
-0.5497883458563384,-0.5497883458563384
-0.5451150891950546,-0.5451150891950546
-0.5410259896164312,-0.5410259896164312
-0.5381052042031288,-0.5381052042031288
-0.5346002617071659,-0.5346002617071659
-0.5328477904591844,-0.5328477904591844
-0.529927005045882,-0.529927005045882
-0.52759037671524,-0.52759037671524
-0.5246695913019377,-0.5246695913019377
-0.5240854342192771,-0.5240854342192771
-0.5246695913019377,-0.5246695913019377
-0.5264220625499191,-0.5264220625499191
-0.5229171200539562,-0.5229171200539562
-0.5100656642354255,-0.5100656642354255
-0.4791053388544199,-0.4791053388544199
-0.43120445807626023,-0.43120445807626023
-0.3663630219009465,-0.3663630219009465
-0.2962641719816885,-0.2962641719816885
-0.22908610747573283,-0.22908610747573283
-0.17475949878830782,-0.17475949878830782
-0.13562097425005543,-0.13562097425005543
-0.11167053386097557,-0.11167053386097557
-0.09823492095978445,-0.09823492095978445
-0.09005672180253767,-0.09005672180253767
-0.08129436556263041,-0.08129436556263041
-0.0672745955787788,-0.0672745955787788
-0.042155841024378,-0.042155841024378
-0.007106416064748966,-0.007106416064748966
0.03612120805212684,0.03612120805212684
0.07467557550771878,0.07467557550771878
0.09453691631817522,0.09453691631817522
0.07876467508634216,0.07876467508634216
0.021517280985614742,0.021517280985614742
-0.07428448057070461,-0.07428448057070461
-0.18819511168949896,-0.18819511168949896
-0.2950958578163675,-0.2950958578163675
-0.36461055065296505,-0.36461055065296505
-0.38330357729810055,-0.38330357729810055
-0.34766999525581105,-0.34766999525581105
-0.27231373159260863,-0.27231373159260863
-0.1782644412842707,-0.1782644412842707
-0.0888884076372167,-0.0888884076372167
-0.018789557717958642,-0.018789557717958642
0.02268559515093571,0.02268559515093571
0.03904199346542926,0.03904199346542926
0.035537050969466355,0.035537050969466355
0.021517280985614742,0.021517280985614742
0.003408411423139744,0.003408411423139744
-0.012947986891353803,-0.012947986891353803
-0.026383599792544933,-0.026383599792544933
-0.037482584363094124,-0.037482584363094124
-0.04741325476832235,-0.04741325476832235
-0.05792808225621106,-0.05792808225621106
-0.06669043849611832,-0.06669043849611832
-0.07486863765336509,-0.07486863765336509
-0.07837358014932799,-0.07837358014932799
-0.07662110890134655,-0.07662110890134655
-0.06961122390942073,-0.06961122390942073
-0.056759768090890096,-0.056759768090890096
-0.040403369776396546,-0.040403369776396546
-0.021126186048600577,-0.021126186048600577
-0.0030173164861255785,-0.0030173164861255785
0.012754924745707486,0.012754924745707486
0.02268559515093571,0.02268559515093571
0.0267746947295591,0.0267746947295591
0.025022223481577646,0.025022223481577646
0.020933123902954258,0.020933123902954258
0.016844024324330874,0.016844024324330874
0.01625986724167039,0.01625986724167039
0.020348966820293777,0.020348966820293777
0.030279637225522002,0.030279637225522002
0.045467721374694584,0.045467721374694584
0.066497376350472,0.066497376350472
0.09044781673955184,0.09044781673955184
0.11673488545927362,0.11673488545927362
0.1424377970963349,0.1424377970963349
0.1646357662374333,0.1646357662374333
0.1798238503866059,0.1798238503866059
0.18449710704788974,0.18449710704788974
0.17690306497330346,0.17690306497330346
0.15587340999752605,0.15587340999752605
0.12257645628587845,0.12257645628587845
0.07759636092102119,0.07759636092102119
0.02443806639891716,0.02443806639891716
-0.03339348478447074,-0.03339348478447074
-0.09064087888519816,-0.09064087888519816
-0.14438333048996266,-0.14438333048996266
-0.18819511168949896,-0.18819511168949896
-0.21915543707050458,-0.21915543707050458
-0.23492767830233766,-0.23492767830233766
-0.23434352121967716,-0.23434352121967716
-0.21740296582252314,-0.21740296582252314
-0.18410601211087554,-0.18410601211087554
-0.13737344549803687,-0.13737344549803687
-0.07954189431464896,-0.07954189431464896
-0.015868772304656224,-0.015868772304656224
0.04897266387065748,0.04897266387065748
0.1097250004673478,0.1097250004673478
0.16405160915477282,0.16405160915477282
0.20844754743696958,0.20844754743696958
0.2405761869832962,0.2405761869832962
0.2581008994631107,0.2581008994631107
0.25985337071109216,0.25985337071109216
0.24524944364458007,0.24524944364458007
0.2154574324288954,0.2154574324288954
0.1757347508079825,0.1757347508079825
0.13075465544312523,0.13075465544312523
0.08577456007826796,0.08577456007826796
0.043131093044052646,0.043131093044052646
0.005745039753781679,0.005745039753781679
-0.026967756875205418,-0.026967756875205418
-0.05442313976024816,-0.05442313976024816
-0.07720526598400702,-0.07720526598400702
-0.09706660679446348,-0.09706660679446348
-0.11400716219161751,-0.11400716219161751
-0.13094771758877155,-0.13094771758877155
-0.14788827298592558,-0.14788827298592558
-0.16482882838307958,-0.16482882838307958
-0.18118522669757314,-0.18118522669757314
-0.19462083959876428,-0.19462083959876428
-0.2045515100039925,-0.2045515100039925
-0.20864060958261588,-0.20864060958261588
-0.20571982416931345,-0.20571982416931345
-0.19929409626004813,-0.19929409626004813
-0.18469016919353604,-0.18469016919353604
-0.1683337708790425,-0.1683337708790425
-0.14613580173794413,-0.14613580173794413
-0.1251061467621667,-0.1251061467621667
-0.10232402053840783,-0.10232402053840783
-0.08304683681061187,-0.08304683681061187
-0.06552212433079735,-0.06552212433079735
-0.04974988309896429,-0.04974988309896429
-0.032809327701810255,-0.032809327701810255
-0.01528461522199574,-0.01528461522199574
0.005745039753781679,0.005745039753781679
0.026190537646898614,0.026190537646898614
0.045467721374694584,0.045467721374694584
0.05481423469726232,0.05481423469726232
0.0448835642920341,0.0448835642920341
-9.653107282315926e-05,-9.653107282315926e-05
-0.09356166429850057,-0.09356166429850057
-0.24193756329426347,-0.24193756329426347
-0.4329569293242417,-0.4329569293242417
-0.6403326936687135,-0.6403326936687135
-0.8214213892934634,-0.8214213892934634
-0.946431004982807,-0.946431004982807
-0.9955001999262876,-0.9955001999262876
-0.9773913303638126,-0.9773913303638126
-0.9137182083538199,-0.9137182083538199
-0.837777787607957,-0.837777787607957
-0.7735205085153037,-0.7735205085153037
-0.7396393977209957,-0.7396393977209957
-0.7367186123076933,-0.7367186123076933
-0.7659264664407175,-0.7659264664407175
-0.8149956613841981,-0.8149956613841981
-0.8780846263115304,-0.8780846263115304
-0.9429260624868441,-0.9429260624868441
-1.0065991844968367,-1.0065991844968367
-1.0615099502669223,-1.0615099502669223
-1.111747459375724,-1.111747459375724
-1.1514701409966368,-1.1514701409966368
-1.1871037230389263,-1.1871037230389263
-1.2133907917586482,-1.2133907917586482
-1.236172917982407,-1.236172917982407
-1.2484402167182773,-1.2484402167182773
-1.2589550442061659,-1.2589550442061659
-1.2607075154541474,-1.2607075154541474
-1.2642124579501104,-1.2642124579501104
-1.261291672536808,-1.261291672536808
-1.261291672536808,-1.261291672536808
-1.2572025729581846,-1.2572025729581846
-1.255450101710203,-1.255450101710203
-1.2490243738009377,-1.2490243738009377
-1.2420144888090119,-1.2420144888090119
-1.2279947188251603,-1.2279947188251603
-1.2093016921800248,-1.2093016921800248
-1.1800938380470005,-1.1800938380470005
-1.14329194183939,-1.14329194183939
-1.0942227468959094,-1.0942227468959094
-1.035807038629861,-1.035807038629861
-0.9627874032973005,-0.9627874032973005
-0.8792529404768513,-0.8792529404768513
-0.7811145505898901,-0.7811145505898901
-0.6753821186283425,-0.6753821186283425
-0.5620556445922086,-0.5620556445922086
-0.45223411305203765,-0.45223411305203765
-0.3482541523384715,-0.3482541523384715
-0.2623830611873804,-0.2623830611873804
-0.1969574679294062,-0.1969574679294062
-0.16132388588711669,-0.16132388588711669
-0.15256152964720943,-0.15256152964720943
-0.17651197003628927,-0.17651197003628927
-0.2261653220624304,-0.2261653220624304
-0.3021057428082933,-0.3021057428082933
-0.3926500906206683,-0.3926500906206683
-0.4972142084168949,-0.4972142084168949
-0.6029466403784425,-0.6029466403784425
-0.712184014835953,-0.712184014835953
-0.8114907188882352,-0.8114907188882352
-0.9072924804445546,-0.9072924804445546
-0.9879061578517013,-0.9879061578517013
-1.0632624215149038,-1.0632624215149038
-1.1210939726982916,-1.1210939726982916
-1.1742522672203957,-1.1742522672203957
-1.2110541634280063,-1.2110541634280063
-1.2466877454702958,-1.2466877454702958
-1.2700540287767152,-1.2700540287767152
-1.295172783331116,-1.295172783331116
-1.3115291816456096,-1.3115291816456096
-1.329053894125424,-1.329053894125424
-1.3395687216133128,-1.3395687216133128
-1.349499392018541,-1.349499392018541
-1.3535884915971643,-1.3535884915971643
-1.3570934340931273,-1.3570934340931273
-1.3565092770104668,-1.3565092770104668
-1.3559251199278064,-1.3559251199278064
-1.3512518632665225,-1.3512518632665225
-1.3477469207705595,-1.3477469207705595
-1.3413211928612943,-1.3413211928612943
-1.3366479362000103,-1.3366479362000103
-1.3302222082907451,-1.3302222082907451
-1.3255489516294612,-1.3255489516294612
-1.3197073808028563,-1.3197073808028563
-1.3138658099762515,-1.3138658099762515
-1.3068559249843257,-1.3068559249843257
-1.2998460399924,-1.2998460399924
-1.2916678408351532,-1.2916678408351532
-1.2840737987605668,-1.2840737987605668
-1.27589559960332,-1.27589559960332
-1.2665490862807522,-1.2665490862807522
-1.2542817875448822,-1.2542817875448822
-1.240846174643691,-1.240846174643691
-1.2250739334118579,-1.2250739334118579
-1.2110541634280063,-1.2110541634280063
-1.1987868646921362,-1.1987868646921362
-1.1871037230389263,-1.1871037230389263
-1.178341366799019,-1.178341366799019
-1.1666582251458093,-1.1666582251458093
-1.1549750834925998,-1.1549750834925998
-1.1351137426821432,-1.1351137426821432
-1.110579145210403,-1.110579145210403
-1.0679356781761877,-1.0679356781761877
-1.0101041269927997,-1.0101041269927997
-0.9236488787590481,-0.9236488787590481
-0.816163975549519,-0.816163975549519
-0.6899860456948546,-0.6899860456948546
-0.5678972154188134,-0.5678972154188134
-0.46975882553185216,-0.46975882553185216
-0.4171846880924086,-0.4171846880924086
-0.41192727434846427,-0.41192727434846427
-0.43412524348956266,-0.43412524348956266
-0.4469766993080933,-0.4469766993080933
-0.4049173893565384,-0.4049173893565384
-0.27873945950187395,-0.27873945950187395
-0.05851223933887154,-0.05851223933887154
0.23531877323935185,0.23531877323935185
0.5694566245211486,0.5694566245211486
0.9024261616376245,0.9024261616376245
1.205019530455755,1.205019530455755
1.455038761834442,1.455038761834442
1.6483947561950623,1.6483947561950623
1.782166728124313,1.782166728124313
1.8651170338621017,1.8651170338621017
1.8989981446564097,1.8989981446564097
1.8925724167471445,1.8925724167471445
1.8493447926302686,1.8493447926302686
1.777493471463029,1.777493471463029
1.6822758669893703,1.6822758669893703
1.5730384925318597,1.5730384925318597
1.4567912330824235,1.4567912330824235
1.3405439736329872,1.3405439736329872
1.2318907562581372,1.2318907562581372
1.132584052205855,1.132584052205855
1.0472971181374244,1.0472971181374244
0.9748616398875244,0.9748616398875244
0.9193667170347785,0.9193667170347785
0.8796440354138655,0.8796440354138655
0.8591985375207486,0.8591985375207486
0.8539411237768042,0.8539411237768042
0.8679608937606559,0.8679608937606559
0.8930796483150567,0.8930796483150567
0.9322181728533091,0.9322181728533091
0.9742774828048639,0.9742774828048639
1.0215942065003631,1.0215942065003631
1.064821830617239,1.064821830617239
1.110970240147417,1.110970240147417
1.1524453930163114,1.1524453930163114
1.1997621167118107,1.1997621167118107
1.2470788404073097,1.2470788404073097
1.3031579203427162,1.3031579203427162
1.3609894715261042,1.3609894715261042
1.4240784364534365,1.4240784364534365
1.4830783018021452,1.4830783018021452
1.5362365963242492,1.5362365963242492
1.5742068066971806,1.5742068066971806
1.5934839904249767,1.5934839904249767
1.58530579126773,1.58530579126773
1.5473355808947984,1.5473355808947984
1.4760684168102194,1.4760684168102194
1.3720884560966533,1.3720884560966533
1.237732327084742,1.237732327084742
1.0788416006010906,1.0788416006010906
0.9024261616376245,0.9024261616376245
0.718416680599572,0.718416680599572
0.5332388853961986,0.5332388853961986
0.3556551322674115,0.3556551322674115
0.1897545207918341,0.1897545207918341
0.03904199346542926,0.03904199346542926
-0.09589829262914251,-0.09589829262914251
-0.2150663374918812,-0.2150663374918812
-0.31846214112278687,-0.31846214112278687
-0.4084223318525014,-0.4084223318525014
-0.48553106676368524,-0.48553106676368524
-0.5509566600216594,-0.5509566600216594
-0.6070357399570658,-0.6070357399570658
-0.654352463652565,-0.654352463652565
-0.6940751452734779,-0.6940751452734779
-0.727956256067786,-0.727956256067786
-0.7565799531181497,-0.7565799531181497
-0.7799462364245691,-0.7799462364245691
-0.7986392630697046,-0.7986392630697046
-0.8138273472188772,-0.8138273472188772
-0.8255104888720868,-0.8255104888720868
-0.8354411592773151,-0.8354411592773151
-0.8442035155172223,-0.8442035155172223
-0.8523817146744691,-0.8523817146744691
-0.8593915996663949,-0.8593915996663949
-0.8664014846583207,-0.8664014846583207
-0.870490584236944,-0.870490584236944
-0.8757479979808884,-0.8757479979808884
-0.8769163121462094,-0.8769163121462094
-0.8798370975595118,-0.8798370975595118
-0.8775004692288699,-0.8775004692288699
-0.8763321550635489,-0.8763321550635489
-0.8675697988236417,-0.8675697988236417
-0.8593915996663949,-0.8593915996663949
-0.8442035155172223,-0.8442035155172223
-0.8290154313680498,-0.8290154313680498
-0.8079857763922723,-0.8079857763922723
-0.7887085926644763,-0.7887085926644763
-0.7624215239447546,-0.7624215239447546
-0.7378869264730142,-0.7378869264730142
-0.7045899727613667,-0.7045899727613667
-0.6724613332150401,-0.6724613332150401
-0.6379960653380715,-0.6379960653380715
-0.6140456249489916,-0.6140456249489916
-0.602362483295782,-0.602362483295782
-0.6111248395356893,-0.6111248395356893
-0.6356594370074296,-0.6356594370074296
-0.6724613332150401,-0.6724613332150401
-0.7092632294226505,-0.7092632294226505
-0.7396393977209957,-0.7396393977209957
-0.7536591677048473,-0.7536591677048473
-0.7548274818701682,-0.7548274818701682
-0.749570068126224,-0.749570068126224
-0.7595007385314522,-0.7595007385314522
-0.8033125197309884,-0.8033125197309884
-0.9055400091965731,-0.9055400091965731
-1.068519835258848,-1.068519835258848
-1.2840737987605668,-1.2840737987605668
-1.5142316893287975,-1.5142316893287975
-1.7204391395079481,-1.7204391395079481
-1.8588843680984828,-1.8588843680984828
-1.9126268197032474,-1.9126268197032474
-1.8787457089089394,-1.8787457089089394
-1.785280575683262,-1.785280575683262
-1.6579343316632764,-1.6579343316632764
-1.5346771872219143,-1.5346771872219143
-1.4295289123430273,-1.4295289123430273
-1.3582617482584483,-1.3582617482584483
-1.310945024562949,-1.310945024562949
-1.2875787412565296,-1.2875787412565296
-1.2718065000246965,-1.2718065000246965
-1.2647966150327707,-1.2647966150327707
-1.255450101710203,-1.255450101710203
-1.2490243738009377,-1.2490243738009377
-1.2402620175610304,-1.2402620175610304
-1.2303313471558022,-1.2303313471558022
-1.218064048419932,-1.218064048419932
-1.202291807188099,-1.202291807188099
-1.183014623460303,-1.183014623460303
-1.1590641830712232,-1.1590641830712232
-1.1316088001861804,-1.1316088001861804
-1.1012326318878352,-1.1012326318878352
-1.0667673640108666,-1.0667673640108666
-1.0317179390512377,-1.0317179390512377
-0.9914111003476642,-0.9914111003476642
-0.9487676333134489,-0.9487676333134489
-0.8979459671219868,-0.8979459671219868
-0.8371936305252965,-0.8371936305252965
-0.7606690526967731,-0.7606690526967731
-0.6631148198924723,-0.6631148198924723
-0.5363527329551473,-0.5363527329551473
-0.3739570639755328,-0.3739570639755328
-0.16599714254840056,-0.16599714254840056
0.09103197382221233,0.09103197382221233
0.39829859930162687,0.39829859930162687
0.7482086918152566,0.7482086918152566
1.1308315809578735,1.1308315809578735
1.5286425542496629,1.5286425542496629
1.92353274212815,1.92353274212815
2.2944724896175575,2.2944724896175575
2.6251053984033916,2.6251053984033916
2.8979067560058374,2.8979067560058374
3.1035300491023277,3.1035300491023277
3.2361337068662577,3.2361337068662577
3.298054357628269,3.298054357628269
3.298054357628269,3.298054357628269
3.245480220188825,3.245480220188825
3.1514309298804872,3.1514309298804872
3.022916371695181,3.022916371695181
2.8681147447901525,2.8681147447901525
2.6916993058266865,2.6916993058266865
2.5000957827140478,2.5000957827140478
2.3003140604441623,2.3003140604441623
2.101116495256937,2.101116495256937
1.9060080296483355,1.9060080296483355
1.723166862775604,1.723166862775604
1.5496722092254405,1.5496722092254405
1.3931181110724307,1.3931181110724307
1.2459105262419887,1.2459105262419887
1.119148439304664,1.119148439304664
1.0034853369378882,1.0034853369378882
0.9117726749601921,0.9117726749601921
0.8340797829663478,0.8340797829663478
0.7815056455269043,0.7815056455269043
0.7423671209886519,0.7423671209886519
0.7265948797568188,0.7265948797568188
0.7190008376822324,0.7190008376822324
0.7295156651701212,0.7295156651701212
0.7423671209886519,0.7423671209886519
0.7663175613777317,0.7663175613777317
0.78851553051883,0.78851553051883
0.8177233846518542,0.8177233846518542
0.8445946104542366,0.8445946104542366
0.8778915641658841,0.8778915641658841
0.9082677324642292,0.9082677324642292
0.9351389582666115,0.9351389582666115
0.9433171574238582,0.9433171574238582
0.9181984028694574,0.9181984028694574
0.8393371967102922,0.8393371967102922
0.6927137689625107,0.6927137689625107
0.47832811962611316,0.47832811962611316
0.21370496118091395,0.21370496118091395
-0.06318549600015541,-0.06318549600015541
-0.30677899946957715,-0.30677899946957715
-0.47443208219313604,-0.47443208219313604
-0.545699246277715,-0.545699246277715
-0.5223329629712957,-0.5223329629712957
-0.4329569293242417,-0.4329569293242417
-0.313788884461503,-0.313788884461503
-0.2045515100039925,-0.2045515100039925
-0.1291952463407901,-0.1291952463407901
-0.09881907804244493,-0.09881907804244493
-0.1105022196956546,-0.1105022196956546
-0.15197737256454893,-0.15197737256454893
-0.2115613949959183,-0.2115613949959183
-0.27757114533655297,-0.27757114533655297
-0.3453333669251691,-0.3453333669251691
-0.40783817476984086,-0.40783817476984086
-0.46683804011854974,-0.46683804011854974
-0.5176597063100118,-0.5176597063100118
-0.5632239587575296,-0.5632239587575296
-0.5988575407998191,-0.5988575407998191
-0.6298178661808247,-0.6298178661808247
-0.6520158353219231,-0.6520158353219231
-0.6689563907190772,-0.6689563907190772
-0.6806395323722868,-0.6806395323722868
-0.6853127890335707,-0.6853127890335707
-0.6858969461162312,-0.6858969461162312
-0.6800553752896263,-0.6800553752896263
-0.6707088619670586,-0.6707088619670586
-0.656689091983207,-0.656689091983207
-0.6403326936687135,-0.6403326936687135
-0.619303038692936,-0.619303038692936
-0.5936001270558747,-0.5936001270558747
-0.5603031733442272,-0.5603031733442272
-0.5199963346406538,-0.5199963346406538
-0.4691746684491917,-0.4691746684491917
-0.40783817476984086,-0.40783817476984086
-0.3348185394372804,-0.3348185394372804
-0.2542048620301336,-0.2542048620301336
-0.16541298546574007,-0.16541298546574007
-0.07778942306666752,-0.07778942306666752
0.006329196836442163,0.006329196836442163
0.07759636092102119,0.07759636092102119
0.13425959793908812,0.13425959793908812
0.16638823748541476,0.16638823748541476
0.17690306497330346,0.17690306497330346
0.157041724162847,0.157041724162847
0.11498241421129216,0.11498241421129216
0.04605187845735507,0.04605187845735507
-0.03689842728043364,-0.03689842728043364
-0.13445266008473444,-0.13445266008473444
-0.23200689288903523,-0.23200689288903523
-0.33248191110663844,-0.33248191110663844
-0.4218579447536925,-0.4218579447536925
-0.5071448788221231,-0.5071448788221231
-0.5772437287413812,-0.5772437287413812
-0.6415010078340344,-0.6415010078340344
-0.690570202777515,-0.690570202777515
-0.7361344552250328,-0.7361344552250328
-0.7705997231020013,-0.7705997231020013
-0.803896676813649,-0.803896676813649
-0.8295995884507102,-0.8295995884507102
-0.855886657170432,-0.855886657170432
-0.8780846263115304,-0.8780846263115304
-0.9002825954526288,-0.9002825954526288
-0.9195597791804248,-0.9195597791804248
-0.9370844916602392,-0.9370844916602392
-0.9534408899747328,-0.9534408899747328
-0.9680448170412449,-0.9680448170412449
-0.9808962728597755,-0.9808962728597755
-0.9931635715956457,-0.9931635715956457
-1.0060150274141764,-1.0060150274141764
-1.018866483232707,-1.018866483232707
-1.031133781968577,-1.031133781968577
-1.0434010807044474,-1.0434010807044474
-1.0545000652749965,-1.0545000652749965
-1.0655990498455457,-1.0655990498455457
-1.0737772490027924,-1.0737772490027924
-1.0825396052426997,-1.0825396052426997
-1.0883811760693045,-1.0883811760693045
-1.09480690397857,-1.09480690397857
-1.0983118464745327,-1.0983118464745327
-1.102400946053156,-1.102400946053156
-1.1029851031358167,-1.1029851031358167
-1.1047375743837982,-1.1047375743837982
-1.1035692602184772,-1.1035692602184772
-1.1047375743837982,-1.1047375743837982
-1.1035692602184772,-1.1035692602184772
-1.1053217314664585,-1.1053217314664585
-1.1029851031358167,-1.1029851031358167
-1.1053217314664585,-1.1053217314664585
-1.1000643177225142,-1.1000643177225142
-1.1006484748051748,-1.1006484748051748
-1.093638589813249,-1.093638589813249
-1.0942227468959094,-1.0942227468959094
-1.0883811760693045,-1.0883811760693045
-1.0895494902346254,-1.0895494902346254
-1.0877970189866442,-1.0877970189866442
-1.0918861185652675,-1.0918861185652675
-1.0918861185652675,-1.0918861185652675
-1.0918861185652675,-1.0918861185652675
-1.0796188198293972,-1.0796188198293972
-1.055084222357657,-1.055084222357657
-1.0106882840754603,-1.0106882840754603
-0.9534408899747328,-0.9534408899747328
-0.8926885533780424,-0.8926885533780424
-0.8523817146744691,-0.8523817146744691
-0.8529658717571296,-0.8529658717571296
-0.9148865225191408,-0.9148865225191408
-1.0334704102992192,-1.0334704102992192
-1.1882720372042472,-1.1882720372042472
-1.3348954649520288,-1.3348954649520288
-1.4283605981777063,-1.4283605981777063
-1.4306972265083482,-1.4306972265083482
-1.3302222082907451,-1.3302222082907451
-1.1356978997648037,-1.1356978997648037
-0.8775004692288699,-0.8775004692288699
-0.5912634987252328,-0.5912634987252328
-0.30794731363489813,-0.30794731363489813
-0.04741325476832235,-0.04741325476832235
0.18391294996522928,0.18391294996522928
0.38778377181373813,0.38778377181373813
0.5682883103558276,0.5682883103558276
0.7265948797568188,0.7265948797568188
0.8597826946034091,0.8597826946034091
0.9637626553169752,0.9637626553169752
1.0350298194015541,1.0350298194015541
1.0759208151877881,1.0759208151877881
1.097534627246226,1.097534627246226
1.1057128264034728,1.1057128264034728
1.1133068684780592,1.1133068684780592
1.1179801251393429,1.1179801251393429
1.1214850676353059,1.1214850676353059
1.115643496808701,1.115643496808701
1.098702941411547,1.098702941411547
1.064821830617239,1.064821830617239
1.0204258923350422,1.0204258923350422
0.9625943411516542,0.9625943411516542
0.9024261616376245,0.9024261616376245
0.8375847254623107,0.8375847254623107
0.7791690171962623,0.7791690171962623
0.7236740943435164,0.7236740943435164
0.6816147843919615,0.6816147843919615
0.6494861448456349,0.6494861448456349
0.6378030031924252,0.6378030031924252
0.6430604169363696,0.6430604169363696
0.6763573706480172,0.6763573706480172
0.7330206076660841,0.7330206076660841
0.8200600129824962,0.8200600129824962
0.9310498586879881,0.9310498586879881
1.064821830617239,1.064821830617239
1.2085244729517177,1.2085244729517177
1.3574845290301412,1.3574845290301412
1.4959297576206758,1.4959297576206758
1.6168502737313961,1.6168502737313961
1.7079787786264315,1.7079787786264315
1.765226172727159,1.765226172727159
1.7815825710416524,1.7815825710416524
1.757047973569912,1.757047973569912
1.690454066146617,1.690454066146617
1.5888107337636928,1.5888107337636928
1.4585437043304048,1.4585437043304048
1.308999491169321,1.308999491169321
1.1489404505203487,1.1489404505203487
0.987713095706055,0.987713095706055
0.8329114688010268,0.8329114688010268
0.6874563552185663,0.6874563552185663
0.5548526974546365,0.5548526974546365
0.43393218134391637,0.43393218134391637
0.3258631210517268,0.3258631210517268
0.22714057408210508,0.22714057408210508
0.13776454043505104,0.13776454043505104
0.05598254886258329,0.05598254886258329
-0.019373714800619127,-0.019373714800619127
-0.0888884076372167,-0.0888884076372167
-0.1537298438125304,-0.1537298438125304
-0.2115613949959183,-0.2115613949959183
-0.26705631784866424,-0.26705631784866424
-0.3149571986268239,-0.3149571986268239
-0.3605214510743417,-0.3605214510743417
-0.3973233472819522,-0.3973233472819522
-0.43354108640690214,-0.43354108640690214
-0.46216478345726586,-0.46216478345726586
-0.48903600925964813,-0.48903600925964813
-0.5088973500701046,-0.5088973500701046
-0.5270062196325795,-0.5270062196325795
-0.5392735183684497,-0.5392735183684497
-0.5497883458563384,-0.5497883458563384
-0.5562140737656037,-0.5562140737656037
-0.5620556445922086,-0.5620556445922086
-0.567313058336153,-0.567313058336153
-0.5719863149974368,-0.5719863149974368
-0.5760754145760603,-0.5760754145760603
-0.5795803570720232,-0.5795803570720232
-0.5825011424853256,-0.5825011424853256
-0.584253613733307,-0.584253613733307
-0.5865902420639489,-0.5865902420639489
-0.5877585562292699,-0.5877585562292699
-0.5912634987252328,-0.5912634987252328
-0.5936001270558747,-0.5936001270558747
-0.5976892266344981,-0.5976892266344981
-0.60002585496514,-0.60002585496514
-0.6041149545437634,-0.6041149545437634
-0.6070357399570658,-0.6070357399570658
-0.6122931537010102,-0.6122931537010102
-0.6187188816102756,-0.6187188816102756
-0.6263129236848618,-0.6263129236848618
-0.6321544945114667,-0.6321544945114667
-0.6333228086767876,-0.6333228086767876
-0.6233921382715594,-0.6233921382715594
-0.6006100120478005,-0.6006100120478005
-0.5608873304268877,-0.5608873304268877
-0.5124022925660675,-0.5124022925660675
-0.4645014117879078,-0.4645014117879078
-0.44113512848148845,-0.44113512848148845
-0.4627489405399264,-0.4627489405399264
-0.550372502938999,-0.550372502938999
-0.7028375015133852,-0.7028375015133852
-0.907876637527215,-0.907876637527215
-1.1222622868636125,-1.1222622868636125
-1.309776710397628,-1.309776710397628
-1.424271498599083,-1.424271498599083
-1.4505585673188046,-1.4505585673188046
-1.3810438744822071,-1.3810438744822071
-1.2425986458916725,-1.2425986458916725
-1.0580050077709593,-1.0580050077709593
-0.8669856417409811,-0.8669856417409811
-0.6911543598601756,-0.6911543598601756
-0.5562140737656037,-0.5562140737656037
-0.46566972595322875,-0.46566972595322875
-0.42244210183635295,-0.42244210183635295
-0.41309558851378525,-0.41309558851378525
-0.4294519868282788,-0.4294519868282788
-0.45632321263066106,-0.45632321263066106
-0.48786769509432715,-0.48786769509432715
-0.5182438633926724,-0.5182438633926724
-0.546867560443036,-0.546867560443036
-0.5743229433280788,-0.5743229433280788
-0.5976892266344981,-0.5976892266344981
-0.6181347245276151,-0.6181347245276151
-0.6309861803461457,-0.6309861803461457
-0.637411908255411,-0.637411908255411
-0.63624359409009,-0.63624359409009
-0.6298178661808247,-0.6298178661808247
-0.619303038692936,-0.619303038692936
-0.6058674257917449,-0.6058674257917449
-0.5865902420639489,-0.5865902420639489
-0.5638081158401901,-0.5638081158401901
-0.531095319211203,-0.531095319211203
-0.49663005133423443,-0.49663005133423443
-0.45457074138267956,-0.45457074138267956
-0.41309558851378525,-0.41309558851378525
-0.3605214510743417,-0.3605214510743417
-0.3021057428082933,-0.3021057428082933
-0.222076222483807,-0.222076222483807
-0.1286110892581296,-0.1286110892581296
-0.010027201478051384,-0.010027201478051384
0.12199229920321797,0.12199229920321797
0.2727048265296228,0.2727048265296228
0.4327638671785954,0.4327638671785954
0.6080109919767406,0.6080109919767406
0.7931887871801139,0.7931887871801139
0.990049724036697,0.990049724036697
1.1933363888025454,1.1933363888025454
1.3954547394030727,1.3954547394030727
1.5905632050116743,1.5905632050116743
1.7669786439751405,1.7669786439751405
1.9217802708801686,1.9217802708801686
2.047958200734833,2.047958200734833
2.1484332189524364,2.1484332189524364
2.2237894826156386,2.2237894826156386
2.2816210337990266,2.2816210337990266
2.325432814998563,2.325432814998563
2.359313925792871,2.359313925792871
2.3803435807686486,2.3803435807686486
2.378591109520667,2.378591109520667
2.341205056230396,2.341205056230396
2.252997336748663,2.252997336748663
2.105789751918221,2.105789751918221
1.9013347729870516,1.9013347729870516
1.653068012856346,1.653068012856346
1.3831874406672025,1.3831874406672025
1.116811810974022,1.116811810974022
0.8743866216699212,0.8743866216699212
0.6710999569040728,0.6710999569040728
0.5145458587510632,0.5145458587510632
0.4140708405334599,0.4140708405334599
0.3714273734992446,0.3714273734992446
0.3959619709709849,0.3959619709709849
0.48183306212207605,0.48183306212207605
0.6243673902912341,0.6243673902912341
0.7984462009240583,0.7984462009240583
0.9894655669540365,0.9894655669540365
1.1682176342481445,1.1682176342481445
1.3323657744757404,1.3323657744757404
1.4667219034876517,1.4667219034876517
1.5847216341850694,1.5847216341850694
1.6758501390801048,1.6758501390801048
1.7582162877352332,1.7582162877352332
1.816047838918621,1.816047838918621
1.8668695051100832,1.8668695051100832
1.8966615163257678,1.8966615163257678
1.924701056293471,1.924701056293471
1.9375525121120016,1.9375525121120016
1.9550772245918162,1.9550772245918162
1.9644237379143838,1.9644237379143838
1.980195979146217,1.980195979146217
1.991294963716766,1.991294963716766
2.0041464195352967,2.0041464195352967
2.008819676196581,2.008819676196581
2.005314733700618,2.005314733700618
1.9872058641381427,1.9872058641381427
1.957413852922458,1.957413852922458
1.9165228571362243,1.9165228571362243
1.8768001755153114,1.8768001755153114
1.841166593473022,1.841166593473022
1.818384467249263,1.818384467249263
1.8055330114307324,1.8055330114307324
1.8031963831000903,1.8031963831000903
1.8014439118521088,1.8014439118521088
1.7985231264388064,1.7985231264388064
1.7827508852069733,1.7827508852069733
1.7529588739912887,1.7529588739912887
1.7003847365518452,1.7003847365518452
1.6244443158059823,1.6244443158059823
1.5233851405057186,1.5233851405057186
1.401880467312338,1.401880467312338
1.2628510816391427,1.2628510816391427
1.1138910255607195,1.1138910255607195
0.9596735557383518,0.9596735557383518
0.805456085915984,0.805456085915984
0.6541594015069188,0.6541594015069188
0.5075359737591373,0.5075359737591373
0.3679224310032817,0.3679224310032817
0.2370712444873333,0.2370712444873333
0.11615072837661312,0.11615072837661312
0.005745039753781679,0.005745039753781679
-0.09414582138116107,-0.09414582138116107
-0.18410601211087554,-0.18410601211087554
-0.26413553243536186,-0.26413553243536186
-0.3348185394372804,-0.3348185394372804
-0.3973233472819522,-0.3973233472819522
-0.45106579888671666,-0.45106579888671666
-0.49779836549955536,-0.49779836549955536
-0.5357685758724868,-0.5357685758724868
-0.5696496866667949,-0.5696496866667949
-0.5947684412211957,-0.5947684412211957
-0.6163822532796336,-0.6163822532796336
-0.6304020232634853,-0.6304020232634853
-0.6415010078340344,-0.6415010078340344
-0.6485108928259602,-0.6485108928259602
-0.654352463652565,-0.654352463652565
-0.6590257203138489,-0.6590257203138489
-0.6642831340577933,-0.6642831340577933
-0.6689563907190772,-0.6689563907190772
-0.6742138044630215,-0.6742138044630215
-0.6794712182069659,-0.6794712182069659
-0.6853127890335707,-0.6853127890335707
-0.6923226740254965,-0.6923226740254965
-0.6999167161000828,-0.6999167161000828
-0.7086790723399901,-0.7086790723399901
-0.7168572714972369,-0.7168572714972369
-0.7244513135718231,-0.7244513135718231
-0.7314611985637489,-0.7314611985637489
-0.7384710835556747,-0.7384710835556747
-0.74489681146494,-0.74489681146494
-0.7530750106221868,-0.7530750106221868
-0.7606690526967731,-0.7606690526967731
-0.7694314089366804,-0.7694314089366804
-0.7781937651765877,-0.7781937651765877
-0.7892927497471368,-0.7892927497471368
-0.7998075772350255,-0.7998075772350255
-0.8114907188882352,-0.8114907188882352
-0.8220055463761239,-0.8220055463761239
-0.8313520596986916,-0.8313520596986916
-0.8371936305252965,-0.8371936305252965
-0.8418668871865804,-0.8418668871865804
-0.8436193584345618,-0.8436193584345618
-0.8453718296825433,-0.8453718296825433
-0.8453718296825433,-0.8453718296825433
-0.8471243009305247,-0.8471243009305247
-0.8459559867652038,-0.8459559867652038
-0.8459559867652038,-0.8459559867652038
-0.8418668871865804,-0.8418668871865804
-0.838946101773278,-0.838946101773278
-0.8325203738640127,-0.8325203738640127
-0.8272629601200683,-0.8272629601200683
-0.819668918045482,-0.819668918045482
-0.8144115043015376,-0.8144115043015376
-0.8050649909789699,-0.8050649909789699
-0.7968867918217231,-0.7968867918217231
-0.782282864755211,-0.782282864755211
-0.7694314089366804,-0.7694314089366804
-0.7501542252088844,-0.7501542252088844
-0.7332136698117304,-0.7332136698117304
-0.7115998577532925,-0.7115998577532925
-0.6923226740254965,-0.6923226740254965
-0.6707088619670586,-0.6707088619670586
-0.6496792069912812,-0.6496792069912812
-0.6245604524368804,-0.6245604524368804
-0.5936001270558747,-0.5936001270558747
-0.5521249741869804,-0.5521249741869804
-0.4972142084168949,-0.4972142084168949
-0.42653120141497636,-0.42653120141497636
-0.3429967385945272,-0.3429967385945272
-0.25654149036077556,-0.25654149036077556
-0.1823535408628941,-0.1823535408628941
-0.14146254507666026,-0.14146254507666026
-0.1502249013165675,-0.1502249013165675
-0.21331386624389975,-0.21331386624389975
-0.313788884461503,-0.313788884461503
-0.41660053100974814,-0.41660053100974814
-0.4750162392757965,-0.4750162392757965
-0.4504816418040562,-0.4504816418040562
-0.32196708361874976,-0.32196708361874976
-0.09589829262914251,-0.09589829262914251
0.2008535053623833,0.2008535053623833
0.5262290004042728,0.5262290004042728
0.845178767536897,0.845178767536897
1.1284949526272317,1.1284949526272317
1.364494414022067,1.364494414022067
1.546751423812138,1.546751423812138
1.6863649665679936,1.6863649665679936
1.7897607701988993,1.7897607701988993
1.8721269188540275,1.8721269188540275
1.9340475696160389,1.9340475696160389
1.9807801362288775,1.9807801362288775
2.0006414770393337,2.0006414770393337
1.9953840632953896,1.9953840632953896
1.9539089104264953,1.9539089104264953
1.891988259664484,1.891988259664484
1.8084537968440346,1.8084537968440346
1.7237510198582646,1.7237510198582646
1.6390482428724944,1.6390482428724944
1.5642761362919524,1.5642761362919524
1.4953456005380155,1.4953456005380155
1.435761578106646,1.435761578106646
1.381434969419221,1.381434969419221
1.3393756594676662,1.3393756594676662
1.3060787057560186,1.3060787057560186
1.2897223074415252,1.2897223074415252
1.2844648936975807,1.2844648936975807
1.2961480353507904,1.2961480353507904
1.3177618474092283,1.3177618474092283
1.3545637436168387,1.3545637436168387
1.399543838981696,1.399543838981696
1.4591278614130654,1.4591278614130654
1.5286425542496629,1.5286425542496629
1.6115928599874516,1.6115928599874516
1.7021372077998267,1.7021372077998267
1.799107283521467,1.799107283521467
1.8931565738298048,1.8931565738298048
1.9813642933115378,1.9813642933115378
2.0543839286440986,2.0543839286440986
2.1110471656621654,2.1110471656621654
2.1460965906217946,2.1460965906217946
2.157779732275004,2.157779732275004
2.142007491043171,2.142007491043171
2.0976115527609744,2.0976115527609744
2.0228394461804324,2.0228394461804324
1.9194436425495267,1.9194436425495267
1.7915132414468806,1.7915132414468806
1.6443056566164387,1.6443056566164387
1.484246615967466,1.484246615967466
1.3189301615745492,1.3189301615745492
1.153029550098972,1.153029550098972
0.9918021952846784,0.9918021952846784
0.8364164112969897,0.8364164112969897
0.6909612977145293,0.6909612977145293
0.554268540371976,0.554268540371976
0.42984308176529296,0.42984308176529296
0.3124275081505357,0.3124275081505357
0.20903170451963007,0.20903170451963007
0.11089331463266877,0.11089331463266877
0.0267746947295591,0.0267746947295591
-0.052670668512266705,-0.052670668512266705
-0.11868041885290138,-0.11868041885290138
-0.18118522669757314,-0.18118522669757314
-0.23142273580637474,-0.23142273580637474
-0.2804919307498554,-0.2804919307498554
-0.31904629820544733,-0.31904629820544733
-0.3581848227436997,-0.3581848227436997
-0.3891451481247054,-0.3891451481247054
-0.41952131642305057,-0.41952131642305057
