ECG,PPG
0.028421072800626168,0.028421072800626168
0.7661818987829193,0.7661818987829193
0.348010041959768,0.348010041959768
0.06385936575174068,0.06385936575174068
0.348010041959768,0.348010041959768
0.601232753410459,0.601232753410459
0.4852528855704478,0.4852528855704478
0.31063875121131995,0.31063875121131995
0.348010041959768,0.348010041959768
0.43563927543888753,0.43563927543888753
0.3937576564966613,0.3937576564966613
0.28873144284154006,0.28873144284154006
0.25651481288598144,0.25651481288598144
0.24427249350286911,0.24427249350286911
0.11991630187441274,0.11991630187441274
-0.12879608138250004,-0.12879608138250004
-0.3375598434945201,-0.3375598434945201
-0.4090807619958603,-0.4090807619958603
-0.4284107399691955,-0.4284107399691955
-0.5308596232278721,-0.5308596232278721
-0.6571488126536619,-0.6571488126536619
-0.6822777840189976,-0.6822777840189976
-0.6114011981167686,-0.6114011981167686
-0.6094682003194352,-0.6094682003194352
-0.7028964271905552,-0.7028964271905552
-0.7866596650750077,-0.7866596650750077
-0.7486440417274485,-0.7486440417274485
-0.6726127950323301,-0.6726127950323301
-0.6571488126536619,-0.6571488126536619
-0.7273810659567798,-0.7273810659567798
-0.7486440417274485,-0.7486440417274485
-0.7048294249878887,-0.7048294249878887
-0.6571488126536619,-0.6571488126536619
-0.6945201034021099,-0.6945201034021099
-0.7486440417274485,-0.7486440417274485
-0.7499327069256708,-0.7499327069256708
-0.7028964271905552,-0.7028964271905552
-0.6893654426092206,-0.6893654426092206
-0.7028964271905552,-0.7028964271905552
-0.706118090186111,-0.706118090186111
-0.7028964271905552,-0.7028964271905552
-0.7976133192598976,-0.7976133192598976
-0.9767377818128037,-0.9767377818128037
-1.074032004278591,-1.074032004278591
-0.8858868853381283,-0.8858868853381283
-0.4419417245505301,-0.4419417245505301
0.165663916411306,0.165663916411306
0.9916983084718298,0.9916983084718298
2.175981625638166,2.175981625638166
3.405368224742284,3.405368224742284
3.912457980242777,3.912457980242777
3.1096195617502556,3.1096195617502556
1.3080656146354157,1.3080656146354157
-0.5733855747692094,-0.5733855747692094
-1.7995505108777716,-1.7995505108777716
-2.3498105505187135,-2.3498105505187135
-2.530868010868953,-2.530868010868953
-2.512182365494729,-2.512182365494729
-2.2106347091107,-2.2106347091107
-1.6913026342270947,-1.6913026342270947
-1.2054758544972701,-1.2054758544972701
-0.9464541496545786,-0.9464541496545786
-0.7943916562643417,-0.7943916562643417
-0.6236435174998809,-0.6236435174998809
-0.4741583545060888,-0.4741583545060888
-0.4464520527443083,-0.4464520527443083
-0.4284107399691955,-0.4284107399691955
-0.33691551089540894,-0.33691551089540894
-0.24606461442073355,-0.24606461442073355
-0.2731265835834028,-0.2731265835834028
-0.2918122289576268,-0.2918122289576268
-0.2138479844651749,-0.2138479844651749
-0.10882177081005368,-0.10882177081005368
-0.12428575318872183,-0.12428575318872183
-0.15456938534694697,-0.15456938534694697
-0.10302277741805313,-0.10302277741805313
-0.017326541736267114,-0.017326541736267114
-0.013460546141600076,-0.013460546141600076
-0.017326541736267114,-0.017326541736267114
0.04130772478284963,0.04130772478284963
0.11991630187441274,0.11991630187441274
0.13086995605930268,0.13086995605930268
0.165663916411306,0.165663916411306
0.28615411244509537,0.28615411244509537
0.4395052710335545,0.4395052710335545
0.5142478525304506,0.5142478525304506
0.5767481146442344,0.5767481146442344
0.6965939780789125,0.6965939780789125
0.8505894692664829,0.8505894692664829
0.9227547203669343,0.9227547203669343
0.9420846983402695,0.9420846983402695
0.981388986886051,0.981388986886051
1.0793275419509494,1.0793275419509494
1.1502041278531783,1.1502041278531783
1.1708227710247359,1.1708227710247359
1.1695341058265136,1.1695341058265136
1.2165703855616292,1.2165703855616292
1.2636066652967448,1.2636066652967448
1.2623180000985226,1.2623180000985226
1.212704389966962,1.212704389966962
1.2165703855616292,1.2165703855616292
1.2623180000985226,1.2623180000985226
1.2623180000985226,1.2623180000985226
1.1502041278531783,1.1502041278531783
1.033579927414056,1.033579927414056
0.9646363393091606,0.9646363393091606
0.8963370838033762,0.8963370838033762
0.7642489009855857,0.7642489009855857
0.668243343718021,0.668243343718021
0.6469803679473523,0.6469803679473523
0.6224957291811277,0.6224957291811277
0.48911888116511487,0.48911888116511487
0.348010041959768,0.348010041959768
0.2694014648682049,0.2694014648682049
0.2114115309481993,0.2114115309481993
0.0851223415224094,0.0851223415224094
-0.017326541736267114,-0.017326541736267114
-0.04825450649360342,-0.04825450649360342
-0.0630741562731604,-0.0630741562731604
-0.14812605935583523,-0.14812605935583523
-0.20031699988384025,-0.20031699988384025
-0.177121026315838,-0.177121026315838
-0.15456938534694697,-0.15456938534694697
-0.23188929724028773,-0.23188929724028773
-0.2918122289576268,-0.2918122289576268
-0.26088426420029054,-0.26088426420029054
-0.20031699988384025,-0.20031699988384025
-0.2273789690465095,-0.2273789690465095
-0.24606461442073355,-0.24606461442073355
-0.16423437433361457,-0.16423437433361457
-0.017326541736267114,-0.017326541736267114
0.054838709364184265,0.054838709364184265
0.07416868733751945,0.07416868733751945
0.10316365429752224,0.10316365429752224
0.165663916411306,0.165663916411306
0.20496820495708756,0.20496820495708756
0.25651481288598144,0.25651481288598144
0.34092238336954506,0.34092238336954506
0.4395052710335545,0.4395052710335545
0.47945389217844725,0.47945389217844725
0.4852528855704478,0.4852528855704478
0.4929848767597819,0.4929848767597819
0.5310005001073411,0.5310005001073411
0.5574181366708992,0.5574181366708992
0.5767481146442344,0.5767481146442344
0.5812584428380126,0.5812584428380126
0.5767481146442344,0.5767481146442344
0.5142478525304506,0.5142478525304506
0.3937576564966613,0.3937576564966613
0.2404064979082021,0.2404064979082021
0.11991630187441274,0.11991630187441274
7.043843973455665e-05,7.043843973455665e-05
-0.15456938534694697,-0.15456938534694697
-0.33433818049896424,-0.33433818049896424
-0.4284107399691955,-0.4284107399691955
-0.4445190549469748,-0.4445190549469748
-0.4741583545060888,-0.4741583545060888
-0.5695195791745424,-0.5695195791745424
-0.6114011981167686,-0.6114011981167686
-0.575318572566543,-0.575318572566543
-0.5656535835798754,-0.5656535835798754
-0.6577931452527731,-0.6577931452527731
-0.7028964271905552,-0.7028964271905552
-0.635241504283882,-0.635241504283882
-0.5656535835798754,-0.5656535835798754
-0.6326641738874373,-0.6326641738874373
-0.7028964271905552,-0.7028964271905552
-0.6771231232261082,-0.6771231232261082
-0.6114011981167686,-0.6114011981167686
-0.6455508258696608,-0.6455508258696608
-0.7028964271905552,-0.7028964271905552
-0.6829221166181089,-0.6829221166181089
-0.6114011981167686,-0.6114011981167686
-0.6114011981167686,-0.6114011981167686
-0.6571488126536619,-0.6571488126536619
-0.664880803842996,-0.664880803842996
-0.6571488126536619,-0.6571488126536619
-0.8169432972332328,-0.8169432972332328
-1.1597282399603768,-1.1597282399603768
-1.4297035989879583,-1.4297035989879583
-1.2969710835710566,-1.2969710835710566
-0.7789276738856736,-0.7789276738856736
-0.0630741562731604,-0.0630741562731604
0.8480121388700382,0.8480121388700382
2.1302340111012725,2.1302340111012725
3.465291156459623,3.465291156459623
4.003953209316563,4.003953209316563
3.1624548348773716,3.1624548348773716
1.3989165111100912,1.3989165111100912
-0.31822986552118493,-0.31822986552118493
-1.4342139271817365,-1.4342139271817365
-2.0824125218875764,-2.0824125218875764
-2.48512039633206,-2.48512039633206
-2.653935537299187,-2.653935537299187
-2.48512039633206,-2.48512039633206
-2.0405309029453504,-2.0405309029453504
-1.4799615417186298,-1.4799615417186298
-1.007021413971029,-1.007021413971029
-0.7028964271905552,-0.7028964271905552
-0.5360142840207613,-0.5360142840207613
-0.3826631254323022,-0.3826631254323022
-0.24799761221806704,-0.24799761221806704
-0.20031699988384025,-0.20031699988384025
-0.26088426420029054,-0.26088426420029054
-0.2918122289576268,-0.2918122289576268
-0.23897695583051062,-0.23897695583051062
-0.15456938534694697,-0.15456938534694697
-0.14490439636027938,-0.14490439636027938
-0.15456938534694697,-0.15456938534694697
-0.17132203292383746,-0.17132203292383746
-0.20031699988384025,-0.20031699988384025
-0.25057494261451174,-0.25057494261451174
-0.20031699988384025,-0.20031699988384025
-0.03730085230871348,-0.03730085230871348
0.11991630187441274,0.11991630187441274
0.1682412468077507,0.1682412468077507
0.2114115309481993,0.2114115309481993
0.30870575341398643,0.30870575341398643
0.3937576564966613,0.3937576564966613
0.3931133238975501,0.3931133238975501
0.4395052710335545,0.4395052710335545
0.5967224252166807,0.5967224252166807
0.7597385727918076,0.7597385727918076
0.7900222049500326,0.7900222049500326
0.8054861873287008,0.8054861873287008
0.9304867115562684,0.9304867115562684
1.1250751564878427,1.1250751564878427
1.2133487225660733,1.2133487225660733
1.2165703855616292,1.2165703855616292
1.2584520045038554,1.2584520045038554
1.3989165111100912,1.3989165111100912
1.5039427247652124,1.5039427247652124
1.4904117401838777,1.4904117401838777
1.394406182916313,1.394406182916313
1.353813229172309,1.353813229172309
1.3789422005376448,1.3789422005376448
1.3989165111100912,1.3989165111100912
1.3267512600096398,1.3267512600096398
1.2165703855616292,1.2165703855616292
1.126363821686065,1.126363821686065
1.0793275419509494,1.0793275419509494
1.0155386146389431,1.0155386146389431
0.9420846983402695,0.9420846983402695
0.8538111322620388,0.8538111322620388
0.7597385727918076,0.7597385727918076
0.6353823811633511,0.6353823811633511
0.5310005001073411,0.5310005001073411
0.4401496036326657,0.4401496036326657
0.348010041959768,0.348010041959768
0.2307415089215345,0.2307415089215345
0.165663916411306,0.165663916411306
0.14504527323974847,0.14504527323974847
0.11991630187441274,0.11991630187441274
0.036153063989960245,0.036153063989960245
-0.017326541736267114,-0.017326541736267114
-0.032146191515824096,-0.032146191515824096
-0.0630741562731604,-0.0630741562731604
-0.158435380941614,-0.158435380941614
-0.20031699988384025,-0.20031699988384025
-0.1681003699282816,-0.1681003699282816
-0.15456938534694697,-0.15456938534694697
-0.2421986188260665,-0.2421986188260665
-0.2918122289576268,-0.2918122289576268
-0.23317796243851008,-0.23317796243851008
-0.15456938534694697,-0.15456938534694697
-0.18034268931139388,-0.18034268931139388
-0.20031699988384025,-0.20031699988384025
-0.12686308358516651,-0.12686308358516651
-0.017326541736267114,-0.017326541736267114
0.009091094827290978,0.009091094827290978
0.028421072800626168,0.028421072800626168
0.09865332610374403,0.09865332610374403
0.165663916411306,0.165663916411306
0.1495556014335267,0.1495556014335267
0.165663916411306,0.165663916411306
0.27520045826020545,0.27520045826020545
0.3937576564966613,0.3937576564966613
0.4021339802851065,0.4021339802851065
0.3937576564966613,0.3937576564966613
0.4549692534122227,0.4549692534122227
0.5310005001073411,0.5310005001073411
0.5032941983455607,0.5032941983455607
0.4395052710335545,0.4395052710335545
0.42468562125399756,0.42468562125399756
0.4395052710335545,0.4395052710335545
0.3737833459242149,0.3737833459242149
0.25651481288598144,0.25651481288598144
0.15148859923086022,0.15148859923086022
0.07416868733751945,0.07416868733751945
-0.04825450649360342,-0.04825450649360342
-0.20031699988384025,-0.20031699988384025
-0.340781506490076,-0.340781506490076
-0.4284107399691955,-0.4284107399691955
-0.5031533214660916,-0.5031533214660916
-0.5656535835798754,-0.5656535835798754
-0.6249321826981032,-0.6249321826981032
-0.6571488126536619,-0.6571488126536619
-0.6854994470145536,-0.6854994470145536
-0.7028964271905552,-0.7028964271905552
-0.7177160769701122,-0.7177160769701122
-0.7028964271905552,-0.7028964271905552
-0.6958087686003323,-0.6958087686003323
-0.7028964271905552,-0.7028964271905552
-0.7306027289523357,-0.7306027289523357
-0.7028964271905552,-0.7028964271905552
-0.6623034734465513,-0.6623034734465513
-0.6571488126536619,-0.6571488126536619
-0.7041850923887776,-0.7041850923887776
-0.7028964271905552,-0.7028964271905552
-0.646195158468772,-0.646195158468772
-0.6114011981167686,-0.6114011981167686
-0.6571488126536619,-0.6571488126536619
-0.7028964271905552,-0.7028964271905552
-0.7215820725647792,-0.7215820725647792
-0.7943916562643417,-0.7943916562643417
-1.0089544117683624,-1.0089544117683624
-1.2054758544972701,-1.2054758544972701
-1.1242899470092624,-1.1242899470092624
-0.6571488126536619,-0.6571488126536619
0.0058694318317351135,0.0058694318317351135
0.7597385727918076,0.7597385727918076
1.7565211036167923,1.7565211036167923
3.0902895837769204,3.0902895837769204
4.16696935689169,4.16696935689169
4.049700823853457,4.049700823853457
2.4504673128595256,2.4504673128595256
0.25651481288598144,0.25651481288598144
-1.3916879756403993,-1.3916879756403993
-2.1197838126360247,-2.1197838126360247
-2.340789894131157,-2.340789894131157
-2.393625167258273,-2.393625167258273
-2.2583153214449267,-2.2583153214449267
-1.845298125414665,-1.845298125414665
-1.34271869810795,-1.34271869810795
-0.9767377818128037,-0.9767377818128037
-0.8098556386430099,-0.8098556386430099
-0.7028964271905552,-0.7028964271905552
-0.5843392289540994,-0.5843392289540994
-0.4741583545060888,-0.4741583545060888
-0.44000872675319663,-0.44000872675319663
-0.4284107399691955,-0.4284107399691955
-0.3826631254323022,-0.3826631254323022
-0.2918122289576268,-0.2918122289576268
-0.2595955990020682,-0.2595955990020682
-0.2918122289576268,-0.2918122289576268
-0.33627117829629777,-0.33627117829629777
-0.2918122289576268,-0.2918122289576268
-0.2138479844651749,-0.2138479844651749
-0.15456938534694697,-0.15456938534694697
-0.12879608138250004,-0.12879608138250004
-0.0630741562731604,-0.0630741562731604
0.012312757822846843,0.012312757822846843
0.028421072800626168,0.028421072800626168
-0.014749211339822422,-0.014749211339822422
0.028421072800626168,0.028421072800626168
0.16437525121308366,0.16437525121308366
0.25651481288598144,0.25651481288598144
0.2159218591419775,0.2159218591419775
0.2114115309481993,0.2114115309481993
0.3473657093606568,0.3473657093606568
0.5310005001073411,0.5310005001073411
0.6089647445997931,0.6089647445997931
0.668243343718021,0.668243343718021
0.7983985287384779,0.7983985287384779
0.9420846983402695,0.9420846983402695
0.9762343260931616,0.9762343260931616
0.9878323128771628,0.9878323128771628
1.0690182203651706,1.0690182203651706
1.1708227710247359,1.1708227710247359
1.1585804516416236,1.1585804516416236
1.0793275419509494,1.0793275419509494
1.0148942820398321,1.0148942820398321
0.9878323128771628,0.9878323128771628
0.9601260111153823,0.9601260111153823
0.9878323128771628,0.9878323128771628
1.0451779141980573,1.0451779141980573
1.033579927414056,1.033579927414056
0.891826755609598,0.891826755609598
0.7597385727918076,0.7597385727918076
0.7088362974620249,0.7088362974620249
0.668243343718021,0.668243343718021
0.5303561675082299,0.5303561675082299
0.3937576564966613,0.3937576564966613
0.34607704416243446,0.34607704416243446
0.348010041959768,0.348010041959768
0.2610251410797596,0.2610251410797596
0.11991630187441274,0.11991630187441274
0.014890088219291536,0.014890088219291536
-0.017326541736267114,-0.017326541736267114
-0.08369279944471794,-0.08369279944471794
-0.20031699988384025,-0.20031699988384025
-0.30212155054340556,-0.30212155054340556
-0.2918122289576268,-0.2918122289576268
-0.25315227301095644,-0.25315227301095644
-0.2918122289576268,-0.2918122289576268
-0.4187457509825279,-0.4187457509825279
-0.4741583545060888,-0.4741583545060888
-0.4277664073700843,-0.4277664073700843
-0.3826631254323022,-0.3826631254323022
-0.4522510461363089,-0.4522510461363089
-0.519905969042982,-0.519905969042982
-0.4896223368847569,-0.4896223368847569
-0.3826631254323022,-0.3826631254323022
-0.29889988754784974,-0.29889988754784974
-0.20031699988384025,-0.20031699988384025
-0.09529078622871905,-0.09529078622871905
-0.0630741562731604,-0.0630741562731604
-0.14297139856294586,-0.14297139856294586
-0.15456938534694697,-0.15456938534694697
-0.0005738941593766163,-0.0005738941593766163
0.2114115309481993,0.2114115309481993
0.31063875121131995,0.31063875121131995
0.348010041959768,0.348010041959768
0.3860256653073272,0.3860256653073272
0.3937576564966613,0.3937576564966613
0.3364120551757669,0.3364120551757669
0.348010041959768,0.348010041959768
0.45110325781755567,0.45110325781755567
0.4852528855704478,0.4852528855704478
0.3312573943828775,0.3312573943828775
0.165663916411306,0.165663916411306
0.12635962786552446,0.12635962786552446
0.11991630187441274,0.11991630187441274
-0.019259539533600635,-0.019259539533600635
-0.20031699988384025,-0.20031699988384025
-0.3085648765345173,-0.3085648765345173
-0.3826631254323022,-0.3826631254323022
-0.5295709580296497,-0.5295709580296497
-0.6571488126536619,-0.6571488126536619
-0.6938757708029988,-0.6938757708029988
-0.7028964271905552,-0.7028964271905552
-0.784082334678563,-0.784082334678563
-0.8401392708012351,-0.8401392708012351
-0.7898813280705635,-0.7898813280705635
-0.7028964271905552,-0.7028964271905552
-0.7260924007585574,-0.7260924007585574
-0.7943916562643417,-0.7943916562643417
-0.7931029910661194,-0.7931029910661194
-0.7028964271905552,-0.7028964271905552
-0.6932314382038876,-0.6932314382038876
-0.7943916562643417,-0.7943916562643417
-0.9090828589061306,-0.9090828589061306
-0.8858868853381283,-0.8858868853381283
-0.784082334678563,-0.784082334678563
-0.7486440417274485,-0.7486440417274485
-0.8059896430483429,-0.8059896430483429
-0.7943916562643417,-0.7943916562643417
-0.698386098996777,-0.698386098996777
-0.7028964271905552,-0.7028964271905552
-0.9142375196990199,-0.9142375196990199
-1.1139806254234836,-1.1139806254234836
-1.1333106033968188,-1.1333106033968188
-1.022485396349697,-1.022485396349697
-0.8208092928278998,-0.8208092928278998
-0.3375598434945201,-0.3375598434945201
0.4369279406371099,0.4369279406371099
1.3080656146354157,1.3080656146354157
2.281007839293287,2.281007839293287
3.5013737820098485,3.5013737820098485
4.359624804025931,4.359624804025931
3.7301118546943153,3.7301118546943153
1.476236423003432,1.476236423003432
-0.9316344998750216,-0.9316344998750216
-2.1571551033844725,-2.1571551033844725
-2.393625167258273,-2.393625167258273
-2.530223678269842,-2.530223678269842
-2.6223632399427395,-2.6223632399427395
-2.2570266562467043,-2.2570266562467043
-1.5708124381933053,-1.5708124381933053
-1.1146249580225946,-1.1146249580225946
-0.9316344998750216,-0.9316344998750216
-0.7402677179390033,-0.7402677179390033
-0.519905969042982,-0.519905969042982
-0.4657820307176435,-0.4657820307176435
-0.4741583545060888,-0.4741583545060888
-0.3755754668420793,-0.3755754668420793
-0.24606461442073355,-0.24606461442073355
-0.2731265835834028,-0.2731265835834028
-0.3375598434945201,-0.3375598434945201
-0.2847245703674039,-0.2847245703674039
-0.15456938534694697,-0.15456938534694697
-0.13072907917983356,-0.13072907917983356
-0.15456938534694697,-0.15456938534694697
-0.13137341177894474,-0.13137341177894474
-0.0630741562731604,-0.0630741562731604
-0.05469783248471515,-0.05469783248471515
-0.0630741562731604,-0.0630741562731604
-0.005728554952266001,-0.005728554952266001
0.11991630187441274,0.11991630187441274
0.18692689218197472,0.18692689218197472
0.165663916411306,0.165663916411306
0.11927196927530156,0.11927196927530156
0.165663916411306,0.165663916411306
0.29130877323798476,0.29130877323798476
0.4395052710335545,0.4395052710335545
0.538088158697564,0.538088158697564
0.6224957291811277,0.6224957291811277
0.7062589670655802,0.7062589670655802
0.8054861873287008,0.8054861873287008
0.8905380904113757,0.8905380904113757
0.9878323128771628,0.9878323128771628
1.0599975639776142,1.0599975639776142
1.0793275419509494,1.0793275419509494
1.0490439097927242,1.0490439097927242
1.0793275419509494,1.0793275419509494
1.166956775430069,1.166956775430069
1.2165703855616292,1.2165703855616292
1.1502041278531783,1.1502041278531783
1.0793275419509494,1.0793275419509494
1.070951218162504,1.070951218162504
1.0793275419509494,1.0793275419509494
1.0129612842424984,1.0129612842424984
0.9420846983402695,0.9420846983402695
0.9150227291776002,0.9150227291776002
0.8963370838033762,0.8963370838033762
0.8190171719100354,0.8190171719100354
0.7597385727918076,0.7597385727918076
0.7352539340255829,0.7352539340255829
0.668243343718021,0.668243343718021
0.4813868899757808,0.4813868899757808
0.3022624274228747,0.3022624274228747
0.21398886134464398,0.21398886134464398
0.165663916411306,0.165663916411306
0.04839538337307253,0.04839538337307253
-0.0630741562731604,-0.0630741562731604
-0.11784242719761011,-0.11784242719761011
-0.15456938534694697,-0.15456938534694697
-0.24542028182162237,-0.24542028182162237
-0.2918122289576268,-0.2918122289576268
-0.25250794041184527,-0.25250794041184527
-0.20031699988384025,-0.20031699988384025
-0.24413161662340002,-0.24413161662340002
-0.2918122289576268,-0.2918122289576268
-0.27956990957451455,-0.27956990957451455
-0.24606461442073355,-0.24606461442073355
-0.281502907371848,-0.281502907371848
-0.2918122289576268,-0.2918122289576268
-0.20611599327584082,-0.20611599327584082
-0.0630741562731604,-0.0630741562731604
0.00715809702995746,0.00715809702995746
0.028421072800626168,0.028421072800626168
0.058060372359740126,0.058060372359740126
0.11991630187441274,0.11991630187441274
0.146978271037082,0.146978271037082
0.165663916411306,0.165663916411306
0.2236538503313116,0.2236538503313116
0.348010041959768,0.348010041959768
0.44852592742111097,0.44852592742111097
0.4852528855704478,0.4852528855704478
0.4962065397553378,0.4962065397553378
0.5767481146442344,0.5767481146442344
0.6688876763171322,0.6688876763171322
0.668243343718021,0.668243343718021
0.5657944604593445,0.5657944604593445
0.5310005001073411,0.5310005001073411
0.5986554230140143,0.5986554230140143
0.6224957291811277,0.6224957291811277
0.46592290759711263,0.46592290759711263
0.25651481288598144,0.25651481288598144
0.12120496707263509,0.12120496707263509
0.028421072800626168,0.028421072800626168
-0.13330640957627826,-0.13330640957627826
-0.2918122289576268,-0.2918122289576268
-0.378152797238524,-0.378152797238524
-0.4284107399691955,-0.4284107399691955
-0.5211946342412044,-0.5211946342412044
-0.5656535835798754,-0.5656535835798754
-0.5211946342412044,-0.5211946342412044
-0.4741583545060888,-0.4741583545060888
-0.5237719646376491,-0.5237719646376491
-0.5656535835798754,-0.5656535835798754
-0.5411689448136507,-0.5411689448136507
-0.519905969042982,-0.519905969042982
-0.6004475439318787,-0.6004475439318787
-0.6571488126536619,-0.6571488126536619
-0.6242878500989921,-0.6242878500989921
-0.5656535835798754,-0.5656535835798754
-0.6062465373238792,-0.6062465373238792
-0.6571488126536619,-0.6571488126536619
-0.631375508689215,-0.631375508689215
-0.5656535835798754,-0.5656535835798754
-0.5740299073683206,-0.5740299073683206
-0.6114011981167686,-0.6114011981167686
-0.597870213535434,-0.597870213535434
-0.5656535835798754,-0.5656535835798754
-0.6764787906269971,-0.6764787906269971
-0.9316344998750216,-0.9316344998750216
-1.148774585775487,-1.148774585775487
-1.1139806254234836,-1.1139806254234836
-0.8394949382021238,-0.8394949382021238
-0.3826631254323022,-0.3826631254323022
0.3357677225766557,0.3357677225766557
1.4904117401838777,1.4904117401838777
2.8602628458942316,2.8602628458942316
3.7752151366320974,3.7752151366320974
3.5935133436827464,3.5935133436827464
2.358972083785739,2.358972083785739
0.6772640001055774,0.6772640001055774
-0.7943916562643417,-0.7943916562643417
-1.7976175130804382,-1.7976175130804382
-2.3478775527213798,-2.3478775527213798
-2.574682627608513,-2.574682627608513
-2.530868010868953,-2.530868010868953
-2.2492946650573704,-2.2492946650573704
-1.7538028963408783,-1.7538028963408783
-1.2093418500919373,-1.2093418500919373
-0.7943916562643417,-0.7943916562643417
-0.5888495571478776,-0.5888495571478776
-0.4741583545060888,-0.4741583545060888
-0.37428680164385697,-0.37428680164385697
-0.2918122289576268,-0.2918122289576268
-0.2595955990020682,-0.2595955990020682
-0.20031699988384025,-0.20031699988384025
-0.11397643160294306,-0.11397643160294306
-0.0630741562731604,-0.0630741562731604
-0.10431144261627547,-0.10431144261627547
-0.10882177081005368,-0.10882177081005368
-0.041166847903380516,-0.041166847903380516
0.028421072800626168,0.028421072800626168
-0.011527548344266558,-0.011527548344266558
-0.0630741562731604,-0.0630741562731604
-0.04052251530426934,-0.04052251530426934
0.028421072800626168,0.028421072800626168
0.06128203535529599,0.06128203535529599
0.11991630187441274,0.11991630187441274
0.23460750451620152,0.23460750451620152
0.348010041959768,0.348010041959768
0.385381332708216,0.385381332708216
0.4395052710335545,0.4395052710335545
0.5541964736753433,0.5541964736753433
0.668243343718021,0.668243343718021
0.6991713084753572,0.6991713084753572
0.7597385727918076,0.7597385727918076
0.9233990529660455,0.9233990529660455
1.1250751564878427,1.1250751564878427
1.2101270595705174,1.2101270595705174
1.2165703855616292,1.2165703855616292
1.25007568071541,1.25007568071541
1.353813229172309,1.353813229172309
1.4150248260878704,1.4150248260878704
1.3989165111100912,1.3989165111100912
1.3473699031811974,1.3473699031811974
1.353813229172309,1.353813229172309
1.3905401873216459,1.3905401873216459
1.3989165111100912,1.3989165111100912
1.3215965992167504,1.3215965992167504
1.2165703855616292,1.2165703855616292
1.1276524868842874,1.1276524868842874
1.0793275419509494,1.0793275419509494
1.0181159450353878,1.0181159450353878
0.9420846983402695,0.9420846983402695
0.8467234736718159,0.8467234736718159
0.7597385727918076,0.7597385727918076
0.6637330155242428,0.6637330155242428
0.5767481146442344,0.5767481146442344
0.4691445705926685,0.4691445705926685
0.348010041959768,0.348010041959768
0.22300951773220043,0.22300951773220043
0.165663916411306,0.165663916411306
0.14891126883441552,0.14891126883441552
0.11991630187441274,0.11991630187441274
0.02391074460684796,0.02391074460684796
-0.0630741562731604,-0.0630741562731604
-0.11784242719761011,-0.11784242719761011
-0.15456938534694697,-0.15456938534694697
-0.2202913104562866,-0.2202913104562866
-0.24606461442073355,-0.24606461442073355
-0.22415730605095366,-0.22415730605095366
-0.20031699988384025,-0.20031699988384025
-0.2467089470198447,-0.2467089470198447
-0.2918122289576268,-0.2918122289576268
-0.3014772179442944,-0.3014772179442944
-0.2918122289576268,-0.2918122289576268
-0.3117865395300732,-0.3117865395300732
-0.2918122289576268,-0.2918122289576268
-0.2228686408527313,-0.2228686408527313
-0.15456938534694697,-0.15456938534694697
-0.13330640957627826,-0.13330640957627826
-0.0630741562731604,-0.0630741562731604
0.05677170716151778,0.05677170716151778
0.11991630187441274,0.11991630187441274
0.044529387778405496,0.044529387778405496
-0.017326541736267114,-0.017326541736267114
0.05419437676507309,0.05419437676507309
0.2114115309481993,0.2114115309481993
0.30355109262109703,0.30355109262109703
0.348010041959768,0.348010041959768
0.39504632169488363,0.39504632169488363
0.4395052710335545,0.4395052710335545
0.41953096046110816,0.41953096046110816
0.3937576564966613,0.3937576564966613
0.40857730627621824,0.40857730627621824
0.4395052710335545,0.4395052710335545
0.39440198909577245,0.39440198909577245
0.3022624274228747,0.3022624274228747
0.21978785473664456,0.21978785473664456
0.165663916411306,0.165663916411306
0.046462385575739014,0.046462385575739014
-0.15456938534694697,-0.15456938534694697
-0.3678434756527452,-0.3678434756527452
-0.4741583545060888,-0.4741583545060888
-0.5102409800563145,-0.5102409800563145
-0.5656535835798754,-0.5656535835798754
-0.668746799437663,-0.668746799437663
-0.7028964271905552,-0.7028964271905552
-0.6629478060456625,-0.6629478060456625
-0.6571488126536619,-0.6571488126536619
-0.7492883743265597,-0.7492883743265597
-0.7943916562643417,-0.7943916562643417
-0.7422007157363367,-0.7422007157363367
-0.7028964271905552,-0.7028964271905552
-0.7866596650750077,-0.7866596650750077
-0.8401392708012351,-0.8401392708012351
-0.7827936694803407,-0.7827936694803407
-0.7028964271905552,-0.7028964271905552
-0.7415563831372256,-0.7415563831372256
-0.7943916562643417,-0.7943916562643417
-0.7595976959123384,-0.7595976959123384
-0.7028964271905552,-0.7028964271905552
-0.7570203655158937,-0.7570203655158937
-0.8401392708012351,-0.8401392708012351
-0.8208092928278998,-0.8208092928278998
-0.7486440417274485,-0.7486440417274485
-0.8440052663959021,-0.8440052663959021
-1.1139806254234836,-1.1139806254234836
-1.3072804051568354,-1.3072804051568354
-1.1597282399603768,-1.1597282399603768
-0.7376903875425586,-0.7376903875425586
-0.20031699988384025,-0.20031699988384025
0.5071601939402277,0.5071601939402277
1.6276545837945575,1.6276545837945575
2.9910623635138,2.9910623635138
3.8667103657058837,3.8667103657058837
3.511038770996516,3.511038770996516
1.9929911674905927,1.9929911674905927
0.11733897147796804,0.11733897147796804
-1.2969710835710566,-1.2969710835710566
-2.0817681892884656,-2.0817681892884656
-2.48512039633206,-2.48512039633206
-2.687440832452968,-2.687440832452968
-2.576615625405846,-2.576615625405846
-2.117850814838691,-2.117850814838691
-1.5257091562555232,-1.5257091562555232
-1.115913623220817,-1.115913623220817
-0.9316344998750216,-0.9316344998750216
-0.832407279611901,-0.832407279611901
-0.7028964271905552,-0.7028964271905552
-0.6049578721256569,-0.6049578721256569
-0.5656535835798754,-0.5656535835798754
-0.5469679382056514,-0.5469679382056514
-0.4741583545060888,-0.4741583545060888
-0.4032817686038597,-0.4032817686038597
-0.3826631254323022,-0.3826631254323022
-0.4277664073700843,-0.4277664073700843
-0.4284107399691955,-0.4284107399691955
-0.37428680164385697,-0.37428680164385697
-0.2918122289576268,-0.2918122289576268
-0.2492862774162894,-0.2492862774162894
-0.20031699988384025,-0.20031699988384025
-0.12815174878338886,-0.12815174878338886
-0.0630741562731604,-0.0630741562731604
-0.060496825876715704,-0.060496825876715704
-0.0630741562731604,-0.0630741562731604
-0.032790524114935264,-0.032790524114935264
0.028421072800626168,0.028421072800626168
0.07867901553129766,0.07867901553129766
0.165663916411306,0.165663916411306
0.27262312786376075,0.27262312786376075
0.348010041959768,0.348010041959768
0.3641183569375473,0.3641183569375473
0.4395052710335545,0.4395052710335545
0.601232753410459,0.601232753410459
0.7597385727918076,0.7597385727918076
0.813862511117146,0.813862511117146
0.8505894692664829,0.8505894692664829
0.9240433855651566,0.9240433855651566
0.9878323128771628,0.9878323128771628
0.9755899934940505,0.9755899934940505
0.9878323128771628,0.9878323128771628
1.067085222567837,1.067085222567837
1.1250751564878427,1.1250751564878427
1.0509769075900577,1.0509769075900577
0.9420846983402695,0.9420846983402695
0.8989144141998209,0.8989144141998209
0.8963370838033762,0.8963370838033762
0.820950169707369,0.820950169707369
0.7139909582549142,0.7139909582549142
0.6463360353482411,0.6463360353482411
0.6224957291811277,0.6224957291811277
0.5490418128824539,0.5490418128824539
0.4395052710335545,0.4395052710335545
0.333190392180211,0.333190392180211
0.25651481288598144,0.25651481288598144
0.1521329318299714,0.1521329318299714
0.028421072800626168,0.028421072800626168
-0.09142479063405201,-0.09142479063405201
-0.15456938534694697,-0.15456938534694697
-0.18614168270339446,-0.18614168270339446
-0.20031699988384025,-0.20031699988384025
-0.24026562102873297,-0.24026562102873297
-0.2918122289576268,-0.2918122289576268
-0.3652661452563005,-0.3652661452563005
-0.4284107399691955,-0.4284107399691955
-0.48897800428564575,-0.48897800428564575
-0.519905969042982,-0.519905969042982
-0.5463236056065401,-0.5463236056065401
-0.5656535835798754,-0.5656535835798754
-0.6010918765309898,-0.6010918765309898
-0.6114011981167686,-0.6114011981167686
-0.5920712201434334,-0.5920712201434334
-0.519905969042982,-0.519905969042982
-0.4193900835816391,-0.4193900835816391
-0.2918122289576268,-0.2918122289576268
-0.20740465847406314,-0.20740465847406314
-0.20031699988384025,-0.20031699988384025
-0.25315227301095644,-0.25315227301095644
-0.24606461442073355,-0.24606461442073355
-0.14941472455405758,-0.14941472455405758
-0.017326541736267114,-0.017326541736267114
0.07416868733751945,0.07416868733751945
0.165663916411306,0.165663916411306
0.25587048028687026,0.25587048028687026
0.3022624274228747,0.3022624274228747
0.2706901300664272,0.2706901300664272
0.25651481288598144,0.25651481288598144
0.28937577544065124,0.28937577544065124
0.3022624274228747,0.3022624274228747
0.22945284372331215,0.22945284372331215
0.165663916411306,0.165663916411306
0.15277726442908257,0.15277726442908257
0.11991630187441274,0.11991630187441274
-0.014749211339822422,-0.014749211339822422
-0.15456938534694697,-0.15456938534694697
-0.2544409382091788,-0.2544409382091788
-0.3826631254323022,-0.3826631254323022
-0.5972258809363228,-0.5972258809363228
-0.7486440417274485,-0.7486440417274485
-0.7525100373221155,-0.7525100373221155
-0.7028964271905552,-0.7028964271905552
-0.7409120505381144,-0.7409120505381144
-0.7943916562643417,-0.7943916562643417
-0.7821493368812295,-0.7821493368812295
-0.7486440417274485,-0.7486440417274485
-0.8066339756474541,-0.8066339756474541
-0.8858868853381283,-0.8858868853381283
-0.8949075417256848,-0.8949075417256848
-0.8401392708012351,-0.8401392708012351
-0.8575362509772367,-0.8575362509772367
-0.9316344998750216,-0.9316344998750216
-0.9690057906234697,-0.9690057906234697
-0.8858868853381283,-0.8858868853381283
-0.8034123126518982,-0.8034123126518982
-0.8401392708012351,-0.8401392708012351
-0.9470984822536898,-0.9470984822536898
-0.9316344998750216,-0.9316344998750216
-0.8130773016385657,-0.8130773016385657
-0.7943916562643417,-0.7943916562643417
-0.9348561628705775,-0.9348561628705775
-1.022485396349697,-1.022485396349697
-1.0315060527372535,-1.0315060527372535
-1.1597282399603768,-1.1597282399603768
-1.3704249998697304,-1.3704249998697304
-1.2054758544972701,-1.2054758544972701
-0.5128183104527592,-0.5128183104527592
0.348010041959768,0.348010041959768
1.1540701234478454,1.1540701234478454
2.175981625638166,2.175981625638166
3.286166693906717,3.286166693906717
3.592869011083635,3.592869011083635
2.4588436366479707,2.4588436366479707
0.5310005001073411,0.5310005001073411
-1.0663000130892568,-1.0663000130892568
-1.9367933544884515,-1.9367933544884515
-2.418754138623609,-2.418754138623609
-2.668110854479633,-2.668110854479633
-2.5740382950094016,-2.5740382950094016
-2.164887094573807,-2.164887094573807
-1.704189286209318,-1.704189286209318
-1.2969710835710566,-1.2969710835710566
-0.9496758126501345,-0.9496758126501345
-0.7028964271905552,-0.7028964271905552
-0.6268651804954368,-0.6268651804954368
-0.6114011981167686,-0.6114011981167686
-0.5566329271923189,-0.5566329271923189
-0.4741583545060888,-0.4741583545060888
-0.4503180483389754,-0.4503180483389754
-0.4284107399691955,-0.4284107399691955
-0.37170947124741227,-0.37170947124741227
-0.2918122289576268,-0.2918122289576268
-0.26732759019140223,-0.26732759019140223
-0.24606461442073355,-0.24606461442073355
-0.2086933236722855,-0.2086933236722855
-0.15456938534694697,-0.15456938534694697
-0.13395074217538944,-0.13395074217538944
-0.10882177081005368,-0.10882177081005368
-0.06565148666960509,-0.06565148666960509
-0.017326541736267114,-0.017326541736267114
-0.004439889754043655,-0.004439889754043655
0.028421072800626168,0.028421072800626168
0.11927196927530156,0.11927196927530156
0.25651481288598144,0.25651481288598144
0.3364120551757669,0.3364120551757669
0.348010041959768,0.348010041959768
0.3499430397571015,0.3499430397571015
0.4395052710335545,0.4395052710335545
0.5703047886531226,0.5703047886531226
0.668243343718021,0.668243343718021
0.7114136278584695,0.7114136278584695
0.8054861873287008,0.8054861873287008
0.9433733635384919,0.9433733635384919
1.033579927414056,1.033579927414056
1.0078066234496093,1.0078066234496093
0.9878323128771628,0.9878323128771628
1.0464665793962795,1.0464665793962795
1.1250751564878427,1.1250751564878427
1.114765834902064,1.114765834902064
1.0793275419509494,1.0793275419509494
1.0767502115545047,1.0767502115545047
1.0793275419509494,1.0793275419509494
1.0116726190442762,1.0116726190442762
0.9420846983402695,0.9420846983402695
0.9040690749927103,0.9040690749927103
0.8505894692664829,0.8505894692664829
0.7223672820433595,0.7223672820433595
0.6224957291811277,0.6224957291811277
0.5947894274193473,0.5947894274193473
0.5767481146442344,0.5767481146442344
0.49234054416067075,0.49234054416067075
0.4395052710335545,0.4395052710335545
0.4401496036326657,0.4401496036326657
0.3937576564966613,0.3937576564966613
0.20754553535353226,0.20754553535353226
0.028421072800626168,0.028421072800626168
-0.041166847903380516,-0.041166847903380516
-0.0630741562731604,-0.0630741562731604
-0.173255030721171,-0.173255030721171
-0.2918122289576268,-0.2918122289576268
-0.32402885891318545,-0.32402885891318545
-0.2918122289576268,-0.2918122289576268
-0.3246731915122966,-0.3246731915122966
-0.3826631254323022,-0.3826631254323022
-0.3807301276349687,-0.3807301276349687
-0.2918122289576268,-0.2918122289576268
-0.23446662763673243,-0.23446662763673243
-0.24606461442073355,-0.24606461442073355
-0.2969668897505162,-0.2969668897505162
-0.2918122289576268,-0.2918122289576268
-0.22609030384828718,-0.22609030384828718
-0.10882177081005368,-0.10882177081005368
0.010379760025513324,0.010379760025513324
0.11991630187441274,0.11991630187441274
0.15728759262286077,0.15728759262286077
0.11991630187441274,0.11991630187441274
0.06192636795440717,0.06192636795440717
0.11991630187441274,0.11991630187441274
0.28164378425131714,0.28164378425131714
0.4395052710335545,0.4395052710335545
0.5097375243366724,0.5097375243366724
0.5767481146442344,0.5767481146442344
0.6553566917357975,0.6553566917357975
0.668243343718021,0.668243343718021
0.5735264516486785,0.5735264516486785
0.5310005001073411,0.5310005001073411
0.6057430816042372,0.6057430816042372
0.668243343718021,0.668243343718021
0.5632171300628998,0.5632171300628998
0.3937576564966613,0.3937576564966613
0.284865447246873,0.284865447246873
0.2114115309481993,0.2114115309481993
0.059349037557962475,0.059349037557962475
-0.10882177081005368,-0.10882177081005368
-0.2202913104562866,-0.2202913104562866
-0.2918122289576268,-0.2918122289576268
-0.39877144041008156,-0.39877144041008156
-0.4741583545060888,-0.4741583545060888
-0.48189034569542283,-0.48189034569542283
-0.4741583545060888,-0.4741583545060888
-0.5308596232278721,-0.5308596232278721
-0.5656535835798754,-0.5656535835798754
-0.5282822928314274,-0.5282822928314274
-0.4741583545060888,-0.4741583545060888
-0.5108853126554257,-0.5108853126554257
-0.5656535835798754,-0.5656535835798754
-0.5824062311567658,-0.5824062311567658
-0.5656535835798754,-0.5656535835798754
-0.597870213535434,-0.597870213535434
-0.6114011981167686,-0.6114011981167686
-0.5849835615532105,-0.5849835615532105
-0.5656535835798754,-0.5656535835798754
-0.6049578721256569,-0.6049578721256569
-0.6114011981167686,-0.6114011981167686
-0.5669422487780977,-0.5669422487780977
-0.5656535835798754,-0.5656535835798754
-0.6507054866625502,-0.6507054866625502
-0.7028964271905552,-0.7028964271905552
-0.7499327069256708,-0.7499327069256708
-0.9316344998750216,-0.9316344998750216
-1.1700375615461556,-1.1700375615461556
-1.0682330108865903,-1.0682330108865903
-0.5063749844616474,-0.5063749844616474
0.25651481288598144,0.25651481288598144
1.0767502115545047,1.0767502115545047
2.175981625638166,2.175981625638166
3.373151594786725,3.373151594786725
3.8209627511689903,3.8209627511689903
2.8596185132951204,2.8596185132951204
0.9878323128771628,0.9878323128771628
-0.7054737575869999,-0.7054737575869999
-1.6623076672670918,-1.6623076672670918
-2.1751964161595856,-2.1751964161595856
-2.576615625405846,-2.576615625405846
-2.7969773743018673,-2.7969773743018673
-2.576615625405846,-2.576615625405846
-1.9851182994217895,-1.9851182994217895
-1.34271869810795,-1.34271869810795
-0.9155261848972422,-0.9155261848972422
-0.6571488126536619,-0.6571488126536619
-0.4574057069291983,-0.4574057069291983
-0.2918122289576268,-0.2918122289576268
-0.22480163865006483,-0.22480163865006483
-0.20031699988384025,-0.20031699988384025
-0.173255030721171,-0.173255030721171
-0.15456938534694697,-0.15456938534694697
-0.1848530175051721,-0.1848530175051721
-0.15456938534694697,-0.15456938534694697
-0.041166847903380516,-0.041166847903380516
0.07416868733751945,0.07416868733751945
0.06450369835085186,0.06450369835085186
0.028421072800626168,0.028421072800626168
0.05419437676507309,0.05419437676507309
0.11991630187441274,0.11991630187441274
0.12378229746907977,0.12378229746907977
0.11991630187441274,0.11991630187441274
0.18177223138908535,0.18177223138908535
0.3022624274228747,0.3022624274228747
0.3712060155277702,0.3712060155277702
0.3937576564966613,0.3937576564966613
0.44401559922733275,0.44401559922733275
0.5767481146442344,0.5767481146442344
0.6779083327046885,0.6779083327046885
0.668243343718021,0.668243343718021
0.5877017688291244,0.5877017688291244
0.6224957291811277,0.6224957291811277
0.820950169707369,0.820950169707369
1.0793275419509494,1.0793275419509494
1.223658044151852,1.223658044151852
1.2623180000985226,1.2623180000985226
1.2700499912878565,1.2700499912878565
1.3080656146354157,1.3080656146354157
1.3190192688203057,1.3190192688203057
1.3080656146354157,1.3080656146354157
1.3035552864416375,1.3035552864416375
1.353813229172309,1.353813229172309
1.4008495089074247,1.4008495089074247
1.3989165111100912,1.3989165111100912
1.316441938423861,1.316441938423861
1.2165703855616292,1.2165703855616292
1.1437608018620666,1.1437608018620666
1.1250751564878427,1.1250751564878427
1.0844822027438388,1.0844822027438388
0.9878323128771628,0.9878323128771628
0.8499451366673717,0.8499451366673717
0.7597385727918076,0.7597385727918076
0.6888619868895786,0.6888619868895786
0.5767481146442344,0.5767481146442344
0.40599997587977354,0.40599997587977354
0.3022624274228747,0.3022624274228747
0.2822881168504283,0.2822881168504283
0.25651481288598144,0.25651481288598144
0.13666894945130323,0.13666894945130323
0.028421072800626168,0.028421072800626168
-0.00766155274959952,-0.00766155274959952
-0.017326541736267114,-0.017326541736267114
-0.0940021210304967,-0.0940021210304967
-0.15456938534694697,-0.15456938534694697
-0.15779104834250282,-0.15779104834250282
-0.15456938534694697,-0.15456938534694697
-0.2299562994429542,-0.2299562994429542
-0.2918122289576268,-0.2918122289576268
-0.2943895593540715,-0.2943895593540715
-0.2918122289576268,-0.2918122289576268
-0.35882281926518883,-0.35882281926518883
-0.3826631254323022,-0.3826631254323022
-0.30469888093985026,-0.30469888093985026
-0.20031699988384025,-0.20031699988384025
-0.1945180064918397,-0.1945180064918397
-0.20031699988384025,-0.20031699988384025
-0.11977542499494362,-0.11977542499494362
0.028421072800626168,0.028421072800626168
0.10702964989218927,0.10702964989218927
0.11991630187441274,0.11991630187441274
0.12378229746907977,0.12378229746907977
0.165663916411306,0.165663916411306
0.20303520715975407,0.20303520715975407
0.25651481288598144,0.25651481288598144
0.3364120551757669,0.3364120551757669
0.4395052710335545,0.4395052710335545
0.5052271961428942,0.5052271961428942
0.5310005001073411,0.5310005001073411
0.5148921851295618,0.5148921851295618
0.4852528855704478,0.4852528855704478
0.43563927543888753,0.43563927543888753
0.3937576564966613,0.3937576564966613
0.34929870715799033,0.34929870715799033
0.3022624274228747,0.3022624274228747
0.22172085253397808,0.22172085253397808
0.11991630187441274,0.11991630187441274
-0.012171880943377731,-0.012171880943377731
-0.15456938534694697,-0.15456938534694697
-0.3220958611158519,-0.3220958611158519
-0.4741583545060888,-0.4741583545060888
-0.5714525769718759,-0.5714525769718759
-0.5656535835798754,-0.5656535835798754
-0.5360142840207613,-0.5360142840207613
-0.5656535835798754,-0.5656535835798754
-0.6635921386447736,-0.6635921386447736
-0.7028964271905552,-0.7028964271905552
-0.6577931452527731,-0.6577931452527731
-0.6114011981167686,-0.6114011981167686
-0.6565044800545508,-0.6565044800545508
-0.7028964271905552,-0.7028964271905552
-0.6958087686003323,-0.6958087686003323
-0.6571488126536619,-0.6571488126536619
-0.6809891188207753,-0.6809891188207753
-0.7028964271905552,-0.7028964271905552
-0.6977417663976658,-0.6977417663976658
-0.7028964271905552,-0.7028964271905552
-0.7557317003176713,-0.7557317003176713
-0.7486440417274485,-0.7486440417274485
-0.6616591408474402,-0.6616591408474402
-0.6114011981167686,-0.6114011981167686
-0.6758344580278859,-0.6758344580278859
-0.7486440417274485,-0.7486440417274485
-0.8298299492154563,-0.8298299492154563
-1.022485396349697,-1.022485396349697
-1.2525121342323857,-1.2525121342323857
-1.1597282399603768,-1.1597282399603768
-0.6287981782927703,-0.6287981782927703
0.11991630187441274,0.11991630187441274
0.9646363393091606,0.9646363393091606
2.1302340111012725,2.1302340111012725
3.487842797428514,3.487842797428514
4.23269128200103,4.23269128200103
3.5890030154889683,3.5890030154889683
1.8106450419421307,1.8106450419421307
-0.10173411221983078,-0.10173411221983078
-1.3884663126448433,-1.3884663126448433
-2.0933661760724664,-2.0933661760724664
-2.530868010868953,-2.530868010868953
-2.7615390813507528,-2.7615390813507528
-2.576615625405846,-2.576615625405846
-1.9960719536066793,-1.9960719536066793
-1.34271869810795,-1.34271869810795
-0.9503201452492457,-0.9503201452492457
-0.7943916562643417,-0.7943916562643417
-0.7086954205825557,-0.7086954205825557
-0.6114011981167686,-0.6114011981167686
-0.5476122708047625,-0.5476122708047625
-0.4741583545060888,-0.4741583545060888
-0.3845961232296357,-0.3845961232296357
-0.3375598434945201,-0.3375598434945201
-0.38395179063052454,-0.38395179063052454
-0.3826631254323022,-0.3826631254323022
-0.2892348985611821,-0.2892348985611821
-0.20031699988384025,-0.20031699988384025
-0.24606461442073355,-0.24606461442073355
-0.2918122289576268,-0.2918122289576268
-0.2396212884296218,-0.2396212884296218
-0.15456938534694697,-0.15456938534694697
-0.15521371794605815,-0.15521371794605815
-0.15456938534694697,-0.15456938534694697
-0.07531647565627268,-0.07531647565627268
0.028421072800626168,0.028421072800626168
0.06514803094996303,0.06514803094996303
0.11991630187441274,0.11991630187441274
0.2281641785250898,0.2281641785250898
0.3022624274228747,0.3022624274228747
0.26038080848064843,0.26038080848064843
0.25651481288598144,0.25651481288598144
0.4047113106815512,0.4047113106815512
0.6224957291811277,0.6224957291811277
0.7294549406335824,0.7294549406335824
0.7597385727918076,0.7597385727918076
0.8080635177251455,0.8080635177251455
0.8963370838033762,0.8963370838033762
0.9472393591331589,0.9472393591331589
0.9878323128771628,0.9878323128771628
1.0380902556078342,1.0380902556078342
1.0793275419509494,1.0793275419509494
1.0554872357838359,1.0554872357838359
1.033579927414056,1.033579927414056
1.0541985705856136,1.0541985705856136
1.0793275419509494,1.0793275419509494
0.9994302996611639,0.9994302996611639
0.8505894692664829,0.8505894692664829
0.7410529274175836,0.7410529274175836
0.7597385727918076,0.7597385727918076
0.8183728393109243,0.8183728393109243
0.8054861873287008,0.8054861873287008
0.6605113525286869,0.6605113525286869
0.4852528855704478,0.4852528855704478
0.35960802874376907,0.35960802874376907
0.3022624274228747,0.3022624274228747
0.2281641785250898,0.2281641785250898
0.11991630187441274,0.11991630187441274
-0.014104878740711249,-0.014104878740711249
-0.10882177081005368,-0.10882177081005368
-0.15714671574339165,-0.15714671574339165
-0.15456938534694697,-0.15456938534694697
-0.18807468050072795,-0.18807468050072795
-0.2918122289576268,-0.2918122289576268
-0.4187457509825279,-0.4187457509825279
-0.4284107399691955,-0.4284107399691955
-0.36913214085096757,-0.36913214085096757
-0.3826631254323022,-0.3826631254323022
-0.5141069756509815,-0.5141069756509815
-0.5656535835798754,-0.5656535835798754
-0.48640067388920105,-0.48640067388920105
-0.4284107399691955,-0.4284107399691955
-0.5179729712456486,-0.5179729712456486
-0.5656535835798754,-0.5656535835798754
-0.43678706375764076,-0.43678706375764076
-0.24606461442073355,-0.24606461442073355
-0.19322934129361735,-0.19322934129361735
-0.20031699988384025,-0.20031699988384025
-0.14619306155850173,-0.14619306155850173
-0.0630741562731604,-0.0630741562731604
-0.05405349988560398,-0.05405349988560398
-0.017326541736267114,-0.017326541736267114
0.12958129086108033,0.12958129086108033
0.3022624274228747,0.3022624274228747
0.3525203701535462,0.3525203701535462
0.348010041959768,0.348010041959768
0.3718503481268814,0.3718503481268814
0.3937576564966613,0.3937576564966613
0.3396337181713227,0.3396337181713227
0.3022624274228747,0.3022624274228747
0.33190172698198867,0.33190172698198867
0.348010041959768,0.348010041959768
0.2468498238993138,0.2468498238993138
0.11991630187441274,0.11991630187441274
0.04775105077396136,0.04775105077396136
-0.017326541736267114,-0.017326541736267114
-0.18420868490606093,-0.18420868490606093
-0.3826631254323022,-0.3826631254323022
-0.5147513082500926,-0.5147513082500926
-0.5656535835798754,-0.5656535835798754
-0.631375508689215,-0.631375508689215
-0.7028964271905552,-0.7028964271905552
-0.7325357267496692,-0.7325357267496692
-0.7028964271905552,-0.7028964271905552
-0.7144944139745563,-0.7144944139745563
-0.7943916562643417,-0.7943916562643417
-0.8755775637523495,-0.8755775637523495
-0.8401392708012351,-0.8401392708012351
-0.7563760329167826,-0.7563760329167826
-0.7486440417274485,-0.7486440417274485
-0.8517372575852361,-0.8517372575852361
-0.8858868853381283,-0.8858868853381283
-0.8124329690394546,-0.8124329690394546
-0.7486440417274485,-0.7486440417274485
-0.8130773016385657,-0.8130773016385657
-0.8858868853381283,-0.8858868853381283
-0.8614022465719038,-0.8614022465719038
-0.7943916562643417,-0.7943916562643417
-0.7924586584670082,-0.7924586584670082
-0.7943916562643417,-0.7943916562643417
-0.750577039524782,-0.750577039524782
-0.7486440417274485,-0.7486440417274485
-0.9142375196990199,-0.9142375196990199
-1.1139806254234836,-1.1139806254234836
-1.108181632031483,-1.108181632031483
-0.7943916562643417,-0.7943916562643417
-0.311142206930962,-0.311142206930962
0.3022624274228747,0.3022624274228747
1.1869310860025153,1.1869310860025153
2.404719698322632,2.404719698322632
3.5000851168116265,3.5000851168116265
3.7301118546943153,3.7301118546943153
2.6953137005217713,2.6953137005217713
0.8505894692664829,0.8505894692664829
-0.9116601893025752,-0.9116601893025752
-1.9825409690253448,-1.9825409690253448
-2.4316407906058326,-2.4316407906058326
-2.576615625405846,-2.576615625405846
-2.542465997652954,-2.542465997652954
-2.2106347091107,-2.2106347091107
-1.6449106870910901,-1.6449106870910901
-1.1139806254234836,-1.1139806254234836
-0.8356289426074568,-0.8356289426074568
-0.7028964271905552,-0.7028964271905552
-0.5798289007603211,-0.5798289007603211
-0.4741583545060888,-0.4741583545060888
-0.47286968930786644,-0.47286968930786644
-0.4741583545060888,-0.4741583545060888
-0.3826631254323022,-0.3826631254323022
-0.24606461442073355,-0.24606461442073355
-0.23124496464117655,-0.23124496464117655
-0.2918122289576268,-0.2918122289576268
-0.29116789635851564,-0.29116789635851564
-0.15456938534694697,-0.15456938534694697
-0.0463215086962699,-0.0463215086962699
-0.0630741562731604,-0.0630741562731604
-0.15521371794605815,-0.15521371794605815
-0.15456938534694697,-0.15456938534694697
-0.05534216508382632,-0.05534216508382632
0.028421072800626168,0.028421072800626168
0.018756083813958574,0.018756083813958574
0.028421072800626168,0.028421072800626168
0.12571529526641329,0.12571529526641329
0.25651481288598144,0.25651481288598144
0.3099944186122088,0.3099944186122088
0.348010041959768,0.348010041959768
0.4388609384344434,0.4388609384344434
0.5767481146442344,0.5767481146442344
0.6837073260966892,0.6837073260966892
0.8054861873287008,0.8054861873287008
0.9536826851242706,0.9536826851242706
1.0793275419509494,1.0793275419509494
1.1096111741091745,1.1096111741091745
1.1250751564878427,1.1250751564878427
1.1721114362229583,1.1721114362229583
1.2165703855616292,1.2165703855616292
1.190152748998071,1.190152748998071
1.1708227710247359,1.1708227710247359
1.193374411993627,1.193374411993627
1.2165703855616292,1.2165703855616292
1.181776425209626,1.181776425209626
1.1708227710247359,1.1708227710247359
1.1927300793945157,1.1927300793945157
1.1708227710247359,1.1708227710247359
1.0541985705856136,1.0541985705856136
0.9878323128771628,0.9878323128771628
1.0206932754318325,1.0206932754318325
1.033579927414056,1.033579927414056
0.8911824230104868,0.8911824230104868
0.7139909582549142,0.7139909582549142
0.6192740661855718,0.6192740661855718
0.5767481146442344,0.5767481146442344
0.46592290759711263,0.46592290759711263
0.348010041959768,0.348010041959768
0.2880871102424289,0.2880871102424289
0.25651481288598144,0.25651481288598144
0.14891126883441552,0.14891126883441552
0.028421072800626168,0.028421072800626168
-0.028280195921157054,-0.028280195921157054
-0.017326541736267114,-0.017326541736267114
-0.04761017389449224,-0.04761017389449224
-0.10882177081005368,-0.10882177081005368
-0.158435380941614,-0.158435380941614
-0.15456938534694697,-0.15456938534694697
-0.16681170473005924,-0.16681170473005924
-0.20031699988384025,-0.20031699988384025
-0.2325336298393989,-0.2325336298393989
-0.20031699988384025,-0.20031699988384025
-0.158435380941614,-0.158435380941614
-0.15456938534694697,-0.15456938534694697
-0.19258500869450618,-0.19258500869450618
-0.15456938534694697,-0.15456938534694697
-0.02505853292560119,-0.02505853292560119
0.11991630187441274,0.11991630187441274
0.1663082490104172,0.1663082490104172
0.165663916411306,0.165663916411306
0.1849938943846412,0.1849938943846412
0.25651481288598144,0.25651481288598144
0.3364120551757669,0.3364120551757669
0.4395052710335545,0.4395052710335545
0.5335778305037858,0.5335778305037858
0.5767481146442344,0.5767481146442344
0.5561294714726769,0.5561294714726769
0.5767481146442344,0.5767481146442344
0.6444030375509076,0.6444030375509076
0.668243343718021,0.668243343718021
0.5761037820451232,0.5761037820451232
0.4852528855704478,0.4852528855704478
0.46076824680422324,0.46076824680422324
0.4395052710335545,0.4395052710335545
0.3286800639864328,0.3286800639864328
0.2114115309481993,0.2114115309481993
0.13215862125752503,0.13215862125752503
0.028421072800626168,0.028421072800626168
-0.16938903512650394,-0.16938903512650394
-0.3375598434945201,-0.3375598434945201
-0.4019931034056374,-0.4019931034056374
-0.4284107399691955,-0.4284107399691955
-0.5153956408492039,-0.5153956408492039
-0.5656535835798754,-0.5656535835798754
-0.5237719646376491,-0.5237719646376491
-0.4741583545060888,-0.4741583545060888
-0.5353699514216502,-0.5353699514216502
-0.6114011981167686,-0.6114011981167686
-0.6101125329185463,-0.6101125329185463
-0.5656535835798754,-0.5656535835798754
-0.6030248743283234,-0.6030248743283234
-0.6571488126536619,-0.6571488126536619
-0.6494168214643279,-0.6494168214643279
-0.5656535835798754,-0.5656535835798754
-0.5321482884260943,-0.5321482884260943
-0.5656535835798754,-0.5656535835798754
-0.616555858909658,-0.616555858909658
-0.6114011981167686,-0.6114011981167686
-0.5843392289540994,-0.5843392289540994
-0.5656535835798754,-0.5656535835798754
-0.5637205857825418,-0.5637205857825418
-0.5656535835798754,-0.5656535835798754
-0.6719684624332188,-0.6719684624332188
-0.9316344998750216,-0.9316344998750216
-1.2054758544972701,-1.2054758544972701
-1.2054758544972701,-1.2054758544972701
-0.8878198831354619,-0.8878198831354619
-0.3826631254323022,-0.3826631254323022
0.3280357313873216,0.3280357313873216
1.4904117401838777,1.4904117401838777
2.928562101400016,2.928562101400016
3.8667103657058837,3.8667103657058837
3.580626691700523,3.580626691700523
2.2217292401750592,2.2217292401750592
0.5406654890940087,0.5406654890940087
-0.8401392708012351,-0.8401392708012351
-1.7911741870893265,-1.7911741870893265
-2.3478775527213798,-2.3478775527213798
-2.5675949690182898,-2.5675949690182898
-2.48512039633206,-2.48512039633206
-2.17197475316403,-2.17197475316403
-1.6623076672670918,-1.6623076672670918
-1.1094702972297055,-1.1094702972297055
-0.7028964271905552,-0.7028964271905552
-0.526993627633205,-0.526993627633205
-0.4284107399691955,-0.4284107399691955
-0.3188741981202961,-0.3188741981202961
-0.24606461442073355,-0.24606461442073355
-0.27699257917806985,-0.27699257917806985
-0.2918122289576268,-0.2918122289576268
-0.22931196684384303,-0.22931196684384303
-0.15456938534694697,-0.15456938534694697
-0.16745603732917042,-0.16745603732917042
-0.15456938534694697,-0.15456938534694697
-0.06565148666960509,-0.06565148666960509
0.028421072800626168,0.028421072800626168
0.009735427426402151,0.009735427426402151
-0.017326541736267114,-0.017326541736267114
0.046462385575739014,0.046462385575739014
0.165663916411306,0.165663916411306
0.22172085253397808,0.22172085253397808
0.25651481288598144,0.25651481288598144
0.3203037401979875,0.3203037401979875
0.3937576564966613,0.3937576564966613
0.42017529306021933,0.42017529306021933
0.4852528855704478,0.4852528855704478
0.6334493833660176,0.6334493833660176
0.8054861873287008,0.8054861873287008
0.877007105830041,0.877007105830041
0.8963370838033762,0.8963370838033762
0.9530383525251594,0.9530383525251594
1.0793275419509494,1.0793275419509494
1.174688766619403,1.174688766619403
1.2165703855616292,1.2165703855616292
1.2378333613322978,1.2378333613322978
1.3080656146354157,1.3080656146354157
1.3776535353394224,1.3776535353394224
1.3989165111100912,1.3989165111100912
1.360900887762532,1.360900887762532
1.353813229172309,1.353813229172309
1.3840968613305342,1.3840968613305342
1.3989165111100912,1.3989165111100912
1.323529597014084,1.323529597014084
1.2165703855616292,1.2165703855616292
1.130229817280732,1.130229817280732
1.0793275419509494,1.0793275419509494
1.0097396212469427,1.0097396212469427
0.9420846983402695,0.9420846983402695
0.8628317886495952,0.8628317886495952
0.7597385727918076,0.7597385727918076
0.6192740661855718,0.6192740661855718
0.5310005001073411,0.5310005001073411
0.49234054416067075,0.49234054416067075
0.4395052710335545,0.4395052710335545
0.3125717490086535,0.3125717490086535
0.2114115309481993,0.2114115309481993
0.16501958381219484,0.16501958381219484
0.11991630187441274,0.11991630187441274
0.008446762228179805,0.008446762228179805
-0.0630741562731604,-0.0630741562731604
-0.0630741562731604,-0.0630741562731604
-0.0630741562731604,-0.0630741562731604
-0.14748172675672405,-0.14748172675672405
-0.20031699988384025,-0.20031699988384025
-0.1758323611176157,-0.1758323611176157
-0.15456938534694697,-0.15456938534694697
-0.23382229503762125,-0.23382229503762125
-0.2918122289576268,-0.2918122289576268
-0.2679719227905134,-0.2679719227905134
-0.24606461442073355,-0.24606461442073355
-0.32918351970607485,-0.32918351970607485
-0.3826631254323022,-0.3826631254323022
-0.31500820252562906,-0.31500820252562906
-0.20031699988384025,-0.20031699988384025
-0.17389936332028216,-0.17389936332028216
-0.15456938534694697,-0.15456938534694697
-0.06758448446693861,-0.06758448446693861
0.028421072800626168,0.028421072800626168
0.014890088219291536,0.014890088219291536
-0.017326541736267114,-0.017326541736267114
0.03873039438640494,0.03873039438640494
0.165663916411306,0.165663916411306
0.23138584152064567,0.23138584152064567
0.25651481288598144,0.25651481288598144
0.3170820772024317,0.3170820772024317
0.4395052710335545,0.4395052710335545
0.523268508918007,0.523268508918007
0.5310005001073411,0.5310005001073411
0.4807425573766696,0.4807425573766696
0.4395052710335545,0.4395052710335545
0.3989123172895506,0.3989123172895506
0.348010041959768,0.348010041959768
0.2610251410797596,0.2610251410797596
0.165663916411306,0.165663916411306
0.05419437676507309,0.05419437676507309
-0.0630741562731604,-0.0630741562731604
-0.19258500869450618,-0.19258500869450618
-0.2918122289576268,-0.2918122289576268
-0.37944146243674637,-0.37944146243674637
-0.4741583545060888,-0.4741583545060888
-0.5778959029629877,-0.5778959029629877
-0.6114011981167686,-0.6114011981167686
-0.5965815483372117,-0.5965815483372117
-0.6114011981167686,-0.6114011981167686
-0.687432444811887,-0.687432444811887
-0.7028964271905552,-0.7028964271905552
-0.6410404976758826,-0.6410404976758826
-0.6114011981167686,-0.6114011981167686
-0.7099840857807781,-0.7099840857807781
-0.7943916562643417,-0.7943916562643417
-0.7763503434892289,-0.7763503434892289
-0.7028964271905552,-0.7028964271905552
-0.7009634293932216,-0.7009634293932216
-0.7028964271905552,-0.7028964271905552
-0.6655251364421072,-0.6655251364421072
-0.6571488126536619,-0.6571488126536619
-0.7441337135336703,-0.7441337135336703
-0.7943916562643417,-0.7943916562643417
-0.7383347201416697,-0.7383347201416697
-0.7028964271905552,-0.7028964271905552
-0.8227422906252334,-0.8227422906252334
-0.9767377818128037,-0.9767377818128037
-1.0547020263052556,-1.0547020263052556
-1.0682330108865903,-1.0682330108865903
-0.9806037774074707,-0.9806037774074707
-0.5656535835798754,-0.5656535835798754
0.18563822698375237,0.18563822698375237
1.0793275419509494,1.0793275419509494
2.098661713744825,2.098661713744825
3.364130938399169,3.364130938399169
4.32032051548015,4.32032051548015
3.912457980242777,3.912457980242777
1.9014959384168062,1.9014959384168062
-0.4741583545060888,-0.4741583545060888
-1.8987777311408922,-1.8987777311408922
-2.3021299381844864,-2.3021299381844864
-2.434218121002277,-2.434218121002277
-2.530868010868953,-2.530868010868953
-2.3169495879640434,-2.3169495879640434
-1.7538028963408783,-1.7538028963408783
-1.241558480047496,-1.241558480047496
-0.9767377818128037,-0.9767377818128037
-0.8201649602287887,-0.8201649602287887
-0.6114011981167686,-0.6114011981167686
-0.46384903292031,-0.46384903292031
-0.4741583545060888,-0.4741583545060888
-0.560498922786986,-0.560498922786986
-0.519905969042982,-0.519905969042982
-0.3755754668420793,-0.3755754668420793
-0.2918122289576268,-0.2918122289576268
-0.35817848666607766,-0.35817848666607766
-0.3826631254323022,-0.3826631254323022
-0.27763691177718103,-0.27763691177718103
-0.15456938534694697,-0.15456938534694697
-0.18614168270339446,-0.18614168270339446
-0.24606461442073355,-0.24606461442073355
-0.18807468050072795,-0.18807468050072795
-0.0630741562731604,-0.0630741562731604
-0.023769867727378845,-0.023769867727378845
-0.017326541736267114,-0.017326541736267114
0.040663392183738455,0.040663392183738455
0.11991630187441274,0.11991630187441274
0.11991630187441274,0.11991630187441274
0.11991630187441274,0.11991630187441274
0.1901485551775306,0.1901485551775306
0.3022624274228747,0.3022624274228747
0.3641183569375473,0.3641183569375473
0.4395052710335545,0.4395052710335545
0.571593453851345,0.571593453851345
0.7139909582549142,0.7139909582549142
0.7694035617784751,0.7694035617784751
0.8054861873287008,0.8054861873287008
0.8969814164024874,0.8969814164024874
1.033579927414056,1.033579927414056
1.0954358569287286,1.0954358569287286
1.0793275419509494,1.0793275419509494
1.0490439097927242,1.0490439097927242
1.0793275419509494,1.0793275419509494
1.1205648282940643,1.1205648282940643
1.1250751564878427,1.1250751564878427
1.06321922697317,1.06321922697317
0.9878323128771628,0.9878323128771628
0.9130897313802667,0.9130897313802667
0.8505894692664829,0.8505894692664829
0.7752025551704756,0.7752025551704756
0.7139909582549142,0.7139909582549142
0.6508463635420193,0.6508463635420193
0.5767481146442344,0.5767481146442344
0.46012391420511206,0.46012391420511206
0.348010041959768,0.348010041959768
0.2494271542957585,0.2494271542957585
0.165663916411306,0.165663916411306
0.06257070055351834,0.06257070055351834
-0.017326541736267114,-0.017326541736267114
-0.08562579724205145,-0.08562579724205145
-0.15456938534694697,-0.15456938534694697
-0.24413161662340002,-0.24413161662340002
-0.2918122289576268,-0.2918122289576268
-0.32145152851674075,-0.32145152851674075
-0.3826631254323022,-0.3826631254323022
-0.4921996672812016,-0.4921996672812016
-0.519905969042982,-0.519905969042982
-0.46191603512297646,-0.46191603512297646
-0.4284107399691955,-0.4284107399691955
-0.523127632038538,-0.523127632038538
-0.6114011981167686,-0.6114011981167686
-0.5836948963549882,-0.5836948963549882
-0.4741583545060888,-0.4741583545060888
-0.41745708578430557,-0.41745708578430557
-0.3826631254323022,-0.3826631254323022
-0.32402885891318545,-0.32402885891318545
-0.24606461442073355,-0.24606461442073355
-0.2086933236722855,-0.2086933236722855
-0.15456938534694697,-0.15456938534694697
-0.07402781045805033,-0.07402781045805033
-0.017326541736267114,-0.017326541736267114
-0.0224812025291565,-0.0224812025291565
0.028421072800626168,0.028421072800626168
0.16888557940686189,0.16888557940686189
0.3022624274228747,0.3022624274228747
0.32996872918465514,0.32996872918465514
0.348010041959768,0.348010041959768
0.4098659714744406,0.4098659714744406
0.4395052710335545,0.4395052710335545
0.3499430397571015,0.3499430397571015
0.25651481288598144,0.25651481288598144
0.2468498238993138,0.2468498238993138
0.25651481288598144,0.25651481288598144
0.16373091861397251,0.16373091861397251
0.028421072800626168,0.028421072800626168
-0.0701618148633833,-0.0701618148633833
-0.15456938534694697,-0.15456938534694697
-0.32402885891318545,-0.32402885891318545
-0.519905969042982,-0.519905969042982
-0.6391074998785491,-0.6391074998785491
-0.6571488126536619,-0.6571488126536619
-0.6970974337985546,-0.6970974337985546
-0.7943916562643417,-0.7943916562643417
-0.8768662289505719,-0.8768662289505719
-0.8401392708012351,-0.8401392708012351
-0.7557317003176713,-0.7557317003176713
-0.7486440417274485,-0.7486440417274485
-0.8440052663959021,-0.8440052663959021
-0.8858868853381283,-0.8858868853381283
-0.8375619404047904,-0.8375619404047904
-0.7943916562643417,-0.7943916562643417
-0.8543145879816808,-0.8543145879816808
-0.8858868853381283,-0.8858868853381283
-0.8382062730039015,-0.8382062730039015
-0.7943916562643417,-0.7943916562643417
-0.8478712619905692,-0.8478712619905692
-0.8858868853381283,-0.8858868853381283
-0.8382062730039015,-0.8382062730039015
-0.7943916562643417,-0.7943916562643417
-0.8472269293914579,-0.8472269293914579
-0.8858868853381283,-0.8858868853381283
-0.8317629470127897,-0.8317629470127897
-0.7943916562643417,-0.7943916562643417
-0.9361448280687998,-0.9361448280687998
-1.1139806254234836,-1.1139806254234836
-1.0205523985523635,-1.0205523985523635
-0.519905969042982,-0.519905969042982
0.1663082490104172,0.1663082490104172
0.8963370838033762,0.8963370838033762
1.8331966829110218,1.8331966829110218
3.0902895837769204,3.0902895837769204
4.058077147641902,4.058077147641902
3.7752151366320974,3.7752151366320974
2.020053136653262,2.020053136653262
-0.20031699988384025,-0.20031699988384025
-1.7351172509666544,-1.7351172509666544
-2.3478775527213798,-2.3478775527213798
-2.5663063038200677,-2.5663063038200677
-2.668110854479633,-2.668110854479633
-2.5070277047018394,-2.5070277047018394
-1.9825409690253448,-1.9825409690253448
-1.3659146716759523,-1.3659146716759523
-0.9316344998750216,-0.9316344998750216
-0.728025398555891,-0.728025398555891
-0.6114011981167686,-0.6114011981167686
-0.5141069756509815,-0.5141069756509815
-0.4284107399691955,-0.4284107399691955
-0.4000601056083039,-0.4000601056083039
-0.3826631254323022,-0.3826631254323022
-0.32596185671051897,-0.32596185671051897
-0.20031699988384025,-0.20031699988384025
-0.1255744183869442,-0.1255744183869442
-0.15456938534694697,-0.15456938534694697
-0.23446662763673243,-0.23446662763673243
-0.20031699988384025,-0.20031699988384025
-0.09851244922427492,-0.09851244922427492
-0.0630741562731604,-0.0630741562731604
-0.1391054029682788,-0.1391054029682788
-0.15456938534694697,-0.15456938534694697
-0.041166847903380516,-0.041166847903380516
0.07416868733751945,0.07416868733751945
0.05612737456240661,0.05612737456240661
0.028421072800626168,0.028421072800626168
0.12378229746907977,0.12378229746907977
0.3022624274228747,0.3022624274228747
0.3995566498886618,0.3995566498886618
0.4395052710335545,0.4395052710335545
0.5052271961428942,0.5052271961428942
0.6224957291811277,0.6224957291811277
0.7255889450389154,0.7255889450389154
0.8505894692664829,0.8505894692664829
1.0007189648593862,1.0007189648593862
1.1250751564878427,1.1250751564878427
1.156003121245179,1.156003121245179
1.1708227710247359,1.1708227710247359
1.2017507357820723,1.2017507357820723
1.2165703855616292,1.2165703855616292
1.1727557688220693,1.1727557688220693
1.1708227710247359,1.1708227710247359
1.2281683723456303,1.2281683723456303
1.2623180000985226,1.2623180000985226
1.2036837335794057,1.2036837335794057
1.1708227710247359,1.1708227710247359
1.2069053965749617,1.2069053965749617
1.2165703855616292,1.2165703855616292
1.1012348503207292,1.1012348503207292
0.9878323128771628,0.9878323128771628
0.9601260111153823,0.9601260111153823
0.9420846983402695,0.9420846983402695
0.8119295133198126,0.8119295133198126
0.668243343718021,0.668243343718021
0.6044544164060148,0.6044544164060148
0.5767481146442344,0.5767481146442344
0.4549692534122227,0.4549692534122227
0.3022624274228747,0.3022624274228747
0.20367953975886524,0.20367953975886524
0.165663916411306,0.165663916411306
0.09478733050907699,0.09478733050907699
0.028421072800626168,0.028421072800626168
-0.0037955571549324815,-0.0037955571549324815
-0.017326541736267114,-0.017326541736267114
-0.09980111442249726,-0.09980111442249726
-0.20031699988384025,-0.20031699988384025
-0.24735327961895587,-0.24735327961895587
-0.20031699988384025,-0.20031699988384025
-0.1539250527478358,-0.1539250527478358
-0.15456938534694697,-0.15456938534694697
-0.21191498666784137,-0.21191498666784137
-0.24606461442073355,-0.24606461442073355
-0.2325336298393989,-0.2325336298393989
-0.15456938534694697,-0.15456938534694697
-0.06436282147138274,-0.06436282147138274
0.028421072800626168,0.028421072800626168
0.08576667412152057,0.08576667412152057
0.11991630187441274,0.11991630187441274
0.1302256234601915,0.1302256234601915
0.165663916411306,0.165663916411306
0.21076719834908814,0.21076719834908814
0.25651481288598144,0.25651481288598144
0.2983964318282077,0.2983964318282077
0.3937576564966613,0.3937576564966613
0.5090931917375612,0.5090931917375612
0.5767481146442344,0.5767481146442344
0.5657944604593445,0.5657944604593445
0.5767481146442344,0.5767481146442344
0.6231400617802388,0.6231400617802388
0.6224957291811277,0.6224957291811277
0.5065158613411166,0.5065158613411166
0.3937576564966613,0.3937576564966613
0.3589636961446579,0.3589636961446579
0.348010041959768,0.348010041959768
0.2526488172913144,0.2526488172913144
0.11991630187441274,0.11991630187441274
-0.009594550546933039,-0.009594550546933039
-0.15456938534694697,-0.15456938534694697
-0.34786916508029886,-0.34786916508029886
-0.4741583545060888,-0.4741583545060888
-0.4896223368847569,-0.4896223368847569
-0.4741583545060888,-0.4741583545060888
-0.5405246122145396,-0.5405246122145396
-0.6114011981167686,-0.6114011981167686
-0.6107568655176575,-0.6107568655176575
-0.5656535835798754,-0.5656535835798754
-0.5804732333594324,-0.5804732333594324
-0.6114011981167686,-0.6114011981167686
-0.6043135395265458,-0.6043135395265458
-0.5656535835798754,-0.5656535835798754
-0.6081795351212128,-0.6081795351212128
-0.7028964271905552,-0.7028964271905552
-0.765396689304339,-0.765396689304339
-0.7028964271905552,-0.7028964271905552
-0.6152671937114357,-0.6152671937114357
-0.6114011981167686,-0.6114011981167686
-0.6912984404065541,-0.6912984404065541
-0.7028964271905552,-0.7028964271905552
-0.6210661871034362,-0.6210661871034362
-0.5656535835798754,-0.5656535835798754
-0.6217105197025474,-0.6217105197025474
-0.7028964271905552,-0.7028964271905552
-0.8098556386430099,-0.8098556386430099
-1.022485396349697,-1.022485396349697
-1.2628214558181645,-1.2628214558181645
-1.2054758544972701,-1.2054758544972701
-0.7699070174981172,-0.7699070174981172
-0.15456938534694697,-0.15456938534694697
0.5986554230140143,0.5986554230140143
1.7648974274052374,1.7648974274052374
3.1605218370800383,3.1605218370800383
3.912457980242777,3.912457980242777
3.3067853370782743,3.3067853370782743
1.7191498128683442,1.7191498128683442
0.0754573525357418,0.0754573525357418
-1.1139806254234836,-1.1139806254234836
-1.9541903346644531,-1.9541903346644531
-2.530868010868953,-2.530868010868953
-2.7699154051391983,-2.7699154051391983
-2.6223632399427395,-2.6223632399427395
-2.203547050520477,-2.203547050520477
-1.6165600527301984,-1.6165600527301984
-1.0282843897416976,-1.0282843897416976
-0.6114011981167686,-0.6114011981167686
-0.4354983985594184,-0.4354983985594184
-0.3375598434945201,-0.3375598434945201
-0.22480163865006483,-0.22480163865006483
-0.15456938534694697,-0.15456938534694697
-0.19129634349628383,-0.19129634349628383
-0.20031699988384025,-0.20031699988384025
-0.11526509680116541,-0.11526509680116541
-0.017326541736267114,-0.017326541736267114
-0.035367854511379956,-0.035367854511379956
-0.0630741562731604,-0.0630741562731604
-0.017326541736267114,-0.017326541736267114
0.07416868733751945,0.07416868733751945
0.08769967191885408,0.08769967191885408
0.07416868733751945,0.07416868733751945
0.10316365429752224,0.10316365429752224
0.165663916411306,0.165663916411306
0.17210724240241776,0.17210724240241776
0.165663916411306,0.165663916411306
0.21721052434019986,0.21721052434019986
0.348010041959768,0.348010041959768
0.4614125794033344,0.4614125794033344
0.5310005001073411,0.5310005001073411
0.5773924472433456,0.5773924472433456
0.668243343718021,0.668243343718021
0.7797128833642539,0.7797128833642539
0.8963370838033762,0.8963370838033762
0.9987859670620527,0.9987859670620527
1.1250751564878427,1.1250751564878427
1.238477693931409,1.238477693931409
1.3080656146354157,1.3080656146354157
1.3319059208025292,1.3319059208025292
1.3989165111100912,1.3989165111100912
1.4813910837963213,1.4813910837963213
1.4904117401838777,1.4904117401838777
1.3963391807136465,1.3963391807136465
1.353813229172309,1.353813229172309
1.4079371674976475,1.4079371674976475
1.4446641256469845,1.4446641256469845
1.3409265771900856,1.3409265771900856
1.2165703855616292,1.2165703855616292
1.1766217644167365,1.1766217644167365
1.1708227710247359,1.1708227710247359
1.0722398833607265,1.0722398833607265
0.9420846983402695,0.9420846983402695
0.8454348084735935,0.8454348084735935
0.7597385727918076,0.7597385727918076
0.6231400617802388,0.6231400617802388
0.5310005001073411,0.5310005001073411
0.5000725353500048,0.5000725353500048
0.4395052710335545,0.4395052710335545
0.277133456057539,0.277133456057539
0.165663916411306,0.165663916411306
0.16501958381219484,0.16501958381219484
0.165663916411306,0.165663916411306
0.041952057381960804,0.041952057381960804
-0.0630741562731604,-0.0630741562731604
-0.0534091672864928,-0.0534091672864928
-0.017326541736267114,-0.017326541736267114
-0.10173411221983078,-0.10173411221983078
-0.20031699988384025,-0.20031699988384025
-0.2041829954785073,-0.2041829954785073
-0.15456938534694697,-0.15456938534694697
-0.19065201089717265,-0.19065201089717265
-0.24606461442073355,-0.24606461442073355
-0.22931196684384303,-0.22931196684384303
-0.15456938534694697,-0.15456938534694697
-0.15263638754961345,-0.15263638754961345
-0.20031699988384025,-0.20031699988384025
-0.21706964746073074,-0.21706964746073074
-0.15456938534694697,-0.15456938534694697
-0.0965794514269414,-0.0965794514269414
-0.0630741562731604,-0.0630741562731604
-0.023769867727378845,-0.023769867727378845
0.07416868733751945,0.07416868733751945
0.14633393843797082,0.14633393843797082
0.11991630187441274,0.11991630187441274
0.023266412007736784,0.023266412007736784
0.028421072800626168,0.028421072800626168
0.1733959076006401,0.1733959076006401
0.348010041959768,0.348010041959768
0.41824229526288587,0.41824229526288587
0.4395052710335545,0.4395052710335545
0.4691445705926685,0.4691445705926685
0.4852528855704478,0.4852528855704478
0.43048461464599813,0.43048461464599813
0.3937576564966613,0.3937576564966613
0.4214639582584417,0.4214639582584417
0.4395052710335545,0.4395052710335545
0.3338347247793222,0.3338347247793222
0.165663916411306,0.165663916411306
0.0020034362370680756,0.0020034362370680756
-0.15456938534694697,-0.15456938534694697
-0.32918351970607485,-0.32918351970607485
-0.4284107399691955,-0.4284107399691955
-0.45869437212742065,-0.45869437212742065
-0.519905969042982,-0.519905969042982
-0.6558601474554395,-0.6558601474554395
-0.7028964271905552,-0.7028964271905552
-0.6333085064865485,-0.6333085064865485
-0.6114011981167686,-0.6114011981167686
-0.7331800593487803,-0.7331800593487803
-0.7943916562643417,-0.7943916562643417
-0.6970974337985546,-0.6970974337985546
-0.6114011981167686,-0.6114011981167686
-0.7080510879834446,-0.7080510879834446
-0.7943916562643417,-0.7943916562643417
-0.7222264051638904,-0.7222264051638904
-0.6114011981167686,-0.6114011981167686
-0.6784117884243306,-0.6784117884243306
-0.7943916562643417,-0.7943916562643417
-0.7827936694803407,-0.7827936694803407
-0.7028964271905552,-0.7028964271905552
-0.7299583963532245,-0.7299583963532245
-0.7943916562643417,-0.7943916562643417
-0.7782833412865624,-0.7782833412865624
-0.7486440417274485,-0.7486440417274485
-0.8523815901843473,-0.8523815901843473
-1.022485396349697,-1.022485396349697
-1.1545735791674874,-1.1545735791674874
-1.2054758544972701,-1.2054758544972701
-1.1030269712385936,-1.1030269712385936
-0.6571488126536619,-0.6571488126536619
0.08898833711707643,0.08898833711707643
0.9420846983402695,0.9420846983402695
1.9240475793856973,1.9240475793856973
3.181140480251596,3.181140480251596
4.17792301107658,4.17792301107658
3.8667103657058837,3.8667103657058837
1.9620632027332563,1.9620632027332563
-0.3826631254323022,-0.3826631254323022
-1.8697827641808895,-1.8697827641808895
-2.3478775527213798,-2.3478775527213798
-2.5070277047018394,-2.5070277047018394
-2.6223632399427395,-2.6223632399427395
-2.459991424966724,-2.459991424966724
-1.9367933544884515,-1.9367933544884515
-1.394909638635955,-1.394909638635955
-1.0682330108865903,-1.0682330108865903
-0.8897528809327954,-0.8897528809327954
-0.7028964271905552,-0.7028964271905552
-0.5669422487780977,-0.5669422487780977
-0.5656535835798754,-0.5656535835798754
-0.6442621606714385,-0.6442621606714385
-0.6114011981167686,-0.6114011981167686
-0.4715810241096441,-0.4715810241096441
-0.3826631254323022,-0.3826631254323022
-0.4464520527443083,-0.4464520527443083
-0.4741583545060888,-0.4741583545060888
-0.37235380384652345,-0.37235380384652345
-0.24606461442073355,-0.24606461442073355
-0.26088426420029054,-0.26088426420029054
-0.2918122289576268,-0.2918122289576268
-0.21449231706428606,-0.21449231706428606
-0.10882177081005368,-0.10882177081005368
-0.12106409019316597,-0.12106409019316597
-0.15456938534694697,-0.15456938534694697
-0.08949179283671849,-0.08949179283671849
0.028421072800626168,0.028421072800626168
0.06192636795440717,0.06192636795440717
0.07416868733751945,0.07416868733751945
0.14762260363619317,0.14762260363619317
0.25651481288598144,0.25651481288598144
0.30097376222465233,0.30097376222465233
0.348010041959768,0.348010041959768
0.46527857499800146,0.46527857499800146
0.6224957291811277,0.6224957291811277
0.7101249626602472,0.7101249626602472
0.7597385727918076,0.7597385727918076
0.8183728393109243,0.8183728393109243
0.8963370838033762,0.8963370838033762
0.9407960331420472,0.9407960331420472
0.9878323128771628,0.9878323128771628
1.0432449164007236,1.0432449164007236
1.0793275419509494,1.0793275419509494
1.0419562512025013,1.0419562512025013
0.9878323128771628,0.9878323128771628
0.9556156829216041,0.9556156829216041
0.9420846983402695,0.9420846983402695
0.8840947644202639,0.8840947644202639
0.8054861873287008,0.8054861873287008
0.7268776102371377,0.7268776102371377
0.668243343718021,0.668243343718021
0.5819027754371238,0.5819027754371238
0.4852528855704478,0.4852528855704478
0.39697931949221715,0.39697931949221715
0.348010041959768,0.348010041959768
0.27777778865665015,0.27777778865665015
0.165663916411306,0.165663916411306
0.03422006619262673,0.03422006619262673
-0.017326541736267114,-0.017326541736267114
-0.021836869930045327,-0.021836869930045327
-0.0630741562731604,-0.0630741562731604
-0.19065201089717265,-0.19065201089717265
-0.2918122289576268,-0.2918122289576268
-0.33627117829629777,-0.33627117829629777
-0.3826631254323022,-0.3826631254323022
-0.4844676760918675,-0.4844676760918675
-0.519905969042982,-0.519905969042982
-0.4664263633167547,-0.4664263633167547
-0.4284107399691955,-0.4284107399691955
-0.5063749844616474,-0.5063749844616474
-0.5656535835798754,-0.5656535835798754
-0.5302152906287608,-0.5302152906287608
-0.4741583545060888,-0.4741583545060888
-0.497354328074091,-0.497354328074091
-0.4741583545060888,-0.4741583545060888
-0.3375598434945201,-0.3375598434945201
-0.20031699988384025,-0.20031699988384025
-0.20804899107317432,-0.20804899107317432
-0.24606461442073355,-0.24606461442073355
-0.1848530175051721,-0.1848530175051721
-0.0630741562731604,-0.0630741562731604
-0.011527548344266558,-0.011527548344266558
0.028421072800626168,0.028421072800626168
0.12829262566285798,0.12829262566285798
0.25651481288598144,0.25651481288598144
0.314504746805987,0.314504746805987
0.348010041959768,0.348010041959768
0.3879586631046607,0.3879586631046607
0.3937576564966613,0.3937576564966613
0.314504746805987,0.314504746805987
0.25651481288598144,0.25651481288598144
0.277133456057539,0.277133456057539
0.3022624274228747,0.3022624274228747
0.2023908745606429,0.2023908745606429
0.028421072800626168,0.028421072800626168
-0.11462076420205423,-0.11462076420205423
-0.20031699988384025,-0.20031699988384025
-0.3330495153007419,-0.3330495153007419
-0.519905969042982,-0.519905969042982
-0.6642364712438849,-0.6642364712438849
-0.6571488126536619,-0.6571488126536619
-0.5927155527425446,-0.5927155527425446
-0.6114011981167686,-0.6114011981167686
-0.7338243919478915,-0.7338243919478915
-0.7943916562643417,-0.7943916562643417
-0.7595976959123384,-0.7595976959123384
-0.7486440417274485,-0.7486440417274485
-0.8420722685985685,-0.8420722685985685
-0.8858868853381283,-0.8858868853381283
-0.8130773016385657,-0.8130773016385657
-0.7486440417274485,-0.7486440417274485
-0.8375619404047904,-0.8375619404047904
-0.9316344998750216,-0.9316344998750216
-0.9135931870999088,-0.9135931870999088
-0.8401392708012351,-0.8401392708012351
-0.8414279359994574,-0.8414279359994574
-0.8401392708012351,-0.8401392708012351
-0.7679740197007837,-0.7679740197007837
-0.7028964271905552,-0.7028964271905552
-0.7441337135336703,-0.7441337135336703
-0.7943916562643417,-0.7943916562643417
-0.7782833412865624,-0.7782833412865624
-0.7943916562643417,-0.7943916562643417
-0.9870471033985825,-0.9870471033985825
-1.2054758544972701,-1.2054758544972701
-1.1532849139692651,-1.1532849139692651
-0.7028964271905552,-0.7028964271905552
-0.06500715407049391,-0.06500715407049391
0.6224957291811277,0.6224957291811277
1.4942777357785448,1.4942777357785448
2.6785610529448807,2.6785610529448807
3.692740563945867,3.692740563945867
3.684364240157422,3.684364240157422
2.3029151476630667,2.3029151476630667
0.25651481288598144,0.25651481288598144
-1.4148839492084013,-1.4148839492084013
-2.2563823236475935,-2.2563823236475935
-2.5540639844369553,-2.5540639844369553
-2.6223632399427395,-2.6223632399427395
-2.4909193897240605,-2.4909193897240605
-2.0740361980991313,-2.0740361980991313
-1.5083121760795215,-1.5083121760795215
-1.022485396349697,-1.022485396349697
-0.765396689304339,-0.765396689304339
-0.6571488126536619,-0.6571488126536619
-0.5695195791745424,-0.5695195791745424
-0.4284107399691955,-0.4284107399691955
-0.329827852305186,-0.329827852305186
-0.3375598434945201,-0.3375598434945201
-0.4045704338020821,-0.4045704338020821
-0.3826631254323022,-0.3826631254323022
-0.29567822455229387,-0.29567822455229387
-0.24606461442073355,-0.24606461442073355
-0.2943895593540715,-0.2943895593540715
-0.2918122289576268,-0.2918122289576268
-0.18871901309983913,-0.18871901309983913
-0.0630741562731604,-0.0630741562731604
-0.03150185891671292,-0.03150185891671292
-0.017326541736267114,-0.017326541736267114
0.05741603976062896,0.05741603976062896
0.165663916411306,0.165663916411306
0.21527752654286633,0.21527752654286633
0.25651481288598144,0.25651481288598144
0.32739139878821044,0.32739139878821044
0.3937576564966613,0.3937576564966613
0.3879586631046607,0.3879586631046607
0.3937576564966613,0.3937576564966613
0.45368058821400037,0.45368058821400037
0.5310005001073411,0.5310005001073411
0.5703047886531226,0.5703047886531226
0.668243343718021,0.668243343718021
0.8402801476807041,0.8402801476807041
0.9878323128771628,0.9878323128771628
1.0136056168416097,1.0136056168416097
1.033579927414056,1.033579927414056
1.1218534934922868,1.1218534934922868
1.2165703855616292,1.2165703855616292
1.2178590507598515,1.2178590507598515
1.2165703855616292,1.2165703855616292
1.268116993490523,1.268116993490523
1.3080656146354157,1.3080656146354157
1.2404106917287425,1.2404106917287425
1.1708227710247359,1.1708227710247359
1.1676011080291802,1.1676011080291802
1.1708227710247359,1.1708227710247359
1.0793275419509494,1.0793275419509494
0.9878323128771628,0.9878323128771628
0.9614146763136047,0.9614146763136047
0.9420846983402695,0.9420846983402695
0.8293264934958142,0.8293264934958142
0.7139909582549142,0.7139909582549142
0.6611556851277981,0.6611556851277981
0.6224957291811277,0.6224957291811277
0.4910518789624484,0.4910518789624484
0.348010041959768,0.348010041959768
0.27520045826020545,0.27520045826020545
0.25651481288598144,0.25651481288598144
0.17919490099264065,0.17919490099264065
0.07416868733751945,0.07416868733751945
0.0007147710388457297,0.0007147710388457297
-0.017326541736267114,-0.017326541736267114
-0.07080614746249447,-0.07080614746249447
-0.15456938534694697,-0.15456938534694697
-0.2202913104562866,-0.2202913104562866
-0.20031699988384025,-0.20031699988384025
-0.16036837873894752,-0.16036837873894752
-0.15456938534694697,-0.15456938534694697
-0.1990283346856179,-0.1990283346856179
-0.20031699988384025,-0.20031699988384025
-0.15650238314428047,-0.15650238314428047
-0.10882177081005368,-0.10882177081005368
-0.10560010781449782,-0.10560010781449782
-0.0630741562731604,-0.0630741562731604
0.03099840319707086,0.03099840319707086
0.11991630187441274,0.11991630187441274
0.1250709626673021,0.1250709626673021
0.11991630187441274,0.11991630187441274
0.1398906124468591,0.1398906124468591
0.165663916411306,0.165663916411306
0.1708185772041954,0.1708185772041954
0.25651481288598144,0.25651481288598144
0.4175979626637747,0.4175979626637747
0.5310005001073411,0.5310005001073411
0.5071601939402277,0.5071601939402277
0.4852528855704478,0.4852528855704478
0.5516191432788986,0.5516191432788986
0.6224957291811277,0.6224957291811277
0.5696604560540115,0.5696604560540115
0.4852528855704478,0.4852528855704478
0.4575465838086674,0.4575465838086674
0.4395052710335545,0.4395052710335545
0.31965940759887634,0.31965940759887634
0.165663916411306,0.165663916411306
0.04581805297662784,0.04581805297662784
-0.0630741562731604,-0.0630741562731604
-0.23382229503762125,-0.23382229503762125
-0.3826631254323022,-0.3826631254323022
-0.4503180483389754,-0.4503180483389754
-0.4741583545060888,-0.4741583545060888
-0.5501896012012072,-0.5501896012012072
-0.6114011981167686,-0.6114011981167686
-0.5907825549452111,-0.5907825549452111
-0.519905969042982,-0.519905969042982
-0.5276379602323161,-0.5276379602323161
-0.6114011981167686,-0.6114011981167686
-0.6970974337985546,-0.6970974337985546
-0.7028964271905552,-0.7028964271905552
-0.6668138016403296,-0.6668138016403296
-0.6114011981167686,-0.6114011981167686
-0.5869165593505441,-0.5869165593505441
-0.5656535835798754,-0.5656535835798754
-0.5675865813772089,-0.5675865813772089
-0.5656535835798754,-0.5656535835798754
-0.5695195791745424,-0.5695195791745424
-0.5656535835798754,-0.5656535835798754
-0.5714525769718759,-0.5714525769718759
-0.5656535835798754,-0.5656535835798754
-0.5559885945932077,-0.5559885945932077
-0.5656535835798754,-0.5656535835798754
-0.6732571276314412,-0.6732571276314412
-0.8858868853381283,-0.8858868853381283
-1.1384652641897082,-1.1384652641897082
-1.2512234690341635,-1.2512234690341635
-1.0778979998732579,-1.0778979998732579
-0.5656535835798754,-0.5656535835798754
0.17919490099264065,0.17919490099264065
1.1250751564878427,1.1250751564878427
2.333198779821292,2.333198779821292
3.684364240157422,3.684364240157422
4.476893337064165,4.476893337064165
3.912457980242777,3.912457980242777
1.9975014956843709,1.9975014956843709
-0.20031699988384025,-0.20031699988384025
-1.6320240351088666,-1.6320240351088666
-2.164887094573807,-2.164887094573807
-2.3575425417080473,-2.3575425417080473
-2.48512039633206,-2.48512039633206
-2.392980834659162,-2.392980834659162
-1.9367933544884515,-1.9367933544884515
-1.34271869810795,-1.34271869810795
-0.8858868853381283,-0.8858868853381283
-0.653927149658106,-0.653927149658106
-0.519905969042982,-0.519905969042982
-0.4032817686038597,-0.4032817686038597
-0.2918122289576268,-0.2918122289576268
-0.24735327961895587,-0.24735327961895587
-0.24606461442073355,-0.24606461442073355
-0.23446662763673243,-0.23446662763673243
-0.15456938534694697,-0.15456938534694697
-0.09593511882783022,-0.09593511882783022
-0.10882177081005368,-0.10882177081005368
-0.17776535891494918,-0.17776535891494918
-0.15456938534694697,-0.15456938534694697
-0.04374417829982521,-0.04374417829982521
0.07416868733751945,0.07416868733751945
0.10960698028863397,0.10960698028863397
0.11991630187441274,0.11991630187441274
0.13086995605930268,0.13086995605930268
0.11991630187441274,0.11991630187441274
0.06128203535529599,0.06128203535529599
0.07416868733751945,0.07416868733751945
0.2210765199348669,0.2210765199348669
0.4395052710335545,0.4395052710335545
0.5844801058335685,0.5844801058335685
0.668243343718021,0.668243343718021
0.7455632556113617,0.7455632556113617
0.8505894692664829,0.8505894692664829
0.9375743701464913,0.9375743701464913
1.033579927414056,1.033579927414056
1.1321628150780656,1.1321628150780656
1.2165703855616292,1.2165703855616292
1.2539416763100772,1.2539416763100772
1.3080656146354157,1.3080656146354157
1.3712102093483107,1.3712102093483107
1.3989165111100912,1.3989165111100912
1.3596122225643097,1.3596122225643097
1.353813229172309,1.353813229172309
1.3931175177180906,1.3931175177180906
1.3989165111100912,1.3989165111100912
1.3029109538425263,1.3029109538425263
1.2165703855616292,1.2165703855616292
1.1946630771918494,1.1946630771918494
1.1708227710247359,1.1708227710247359
1.0548429031847248,1.0548429031847248
0.9420846983402695,0.9420846983402695
0.8924710882087091,0.8924710882087091
0.8505894692664829,0.8505894692664829
0.7300992732326935,0.7300992732326935
0.6224957291811277,0.6224957291811277
0.5773924472433456,0.5773924472433456
0.5310005001073411,0.5310005001073411
0.3886029957037719,0.3886029957037719
0.25651481288598144,0.25651481288598144
0.21398886134464398,0.21398886134464398
0.2114115309481993,0.2114115309481993
0.1276482930637468,0.1276482930637468
0.028421072800626168,0.028421072800626168
-0.016037876538044768,-0.016037876538044768
-0.017326541736267114,-0.017326541736267114
-0.07789380605271738,-0.07789380605271738
-0.15456938534694697,-0.15456938534694697
-0.18549735010428328,-0.18549735010428328
-0.15456938534694697,-0.15456938534694697
-0.15714671574339165,-0.15714671574339165
-0.20031699988384025,-0.20031699988384025
-0.2634615945967352,-0.2634615945967352
-0.2918122289576268,-0.2918122289576268
-0.3059875461380726,-0.3059875461380726
-0.2918122289576268,-0.2918122289576268
-0.26217292939851283,-0.26217292939851283
-0.20031699988384025,-0.20031699988384025
-0.14748172675672405,-0.14748172675672405
-0.10882177081005368,-0.10882177081005368
-0.09593511882783022,-0.09593511882783022
-0.0630741562731604,-0.0630741562731604
-0.021192537330934152,-0.021192537330934152
0.028421072800626168,0.028421072800626168
0.07416868733751945,0.07416868733751945
0.165663916411306,0.165663916411306
0.2732674604628719,0.2732674604628719
0.348010041959768,0.348010041959768
0.36025236134288025,0.36025236134288025
0.3937576564966613,0.3937576564966613
0.4549692534122227,0.4549692534122227
0.4852528855704478,0.4852528855704478
0.44594859702466627,0.44594859702466627
0.4395052710335545,0.4395052710335545
0.4833198877731143,0.4833198877731143
0.4852528855704478,0.4852528855704478
0.3712060155277702,0.3712060155277702
0.25651481288598144,0.25651481288598144
0.18821555738019707,0.18821555738019707
0.07416868733751945,0.07416868733751945
-0.16745603732917042,-0.16745603732917042
-0.3826631254323022,-0.3826631254323022
-0.46191603512297646,-0.46191603512297646
-0.4741583545060888,-0.4741583545060888
-0.5489009360029848,-0.5489009360029848
-0.6114011981167686,-0.6114011981167686
-0.6068908699229905,-0.6068908699229905
-0.6114011981167686,-0.6114011981167686
-0.7151387465736675,-0.7151387465736675
-0.7943916562643417,-0.7943916562643417
-0.7647523567052278,-0.7647523567052278
-0.7028964271905552,-0.7028964271905552
-0.7306027289523357,-0.7306027289523357
-0.7486440417274485,-0.7486440417274485
-0.7009634293932216,-0.7009634293932216
-0.6571488126536619,-0.6571488126536619
-0.7306027289523357,-0.7306027289523357
-0.7943916562643417,-0.7943916562643417
-0.7589533633132273,-0.7589533633132273
-0.7028964271905552,-0.7028964271905552
-0.7473553765292261,-0.7473553765292261
-0.7943916562643417,-0.7943916562643417
-0.7531543699212266,-0.7531543699212266
-0.7028964271905552,-0.7028964271905552
-0.7686183522998948,-0.7686183522998948
-0.8858868853381283,-0.8858868853381283
-0.9986450901825836,-0.9986450901825836
-1.1139806254234836,-1.1139806254234836
-1.1577952421630433,-1.1577952421630433
-0.8858868853381283,-0.8858868853381283
-0.27505958138073633,-0.27505958138073633
0.4852528855704478,0.4852528855704478
1.3505915661767531,1.3505915661767531
2.496214927396419,2.496214927396419
3.6199309802463047,3.6199309802463047
3.8667103657058837,3.8667103657058837
2.7004683613146607,2.7004683613146607
0.7139909582549142,0.7139909582549142
-1.021841063750586,-1.021841063750586
-1.9825409690253448,-1.9825409690253448
-2.407800484438719,-2.407800484438719
-2.576615625405846,-2.576615625405846
-2.500584378710728,-2.500584378710728
-2.1197838126360247,-2.1197838126360247
-1.6139827223337537,-1.6139827223337537
-1.2054758544972701,-1.2054758544972701
-0.9709387884208032,-0.9709387884208032
-0.7943916562643417,-0.7943916562643417
-0.6429734954732161,-0.6429734954732161
-0.5656535835798754,-0.5656535835798754
-0.5836948963549882,-0.5836948963549882
-0.5656535835798754,-0.5656535835798754
-0.4812460130963117,-0.4812460130963117
-0.4284107399691955,-0.4284107399691955
-0.48189034569542283,-0.48189034569542283
-0.4741583545060888,-0.4741583545060888
-0.33884850869274247,-0.33884850869274247
-0.20031699988384025,-0.20031699988384025
-0.22802330164562068,-0.22802330164562068
-0.2918122289576268,-0.2918122289576268
-0.2512192752136229,-0.2512192752136229
-0.15456938534694697,-0.15456938534694697
-0.14361573116205703,-0.14361573116205703
-0.15456938534694697,-0.15456938534694697
-0.08755879503938498,-0.08755879503938498
0.028421072800626168,0.028421072800626168
0.06965835914374124,0.06965835914374124
0.07416868733751945,0.07416868733751945
0.11669463887885687,0.11669463887885687
0.2114115309481993,0.2114115309481993
0.2784221212557613,0.2784221212557613
0.348010041959768,0.348010041959768
0.44917026002022215,0.44917026002022215
0.5767481146442344,0.5767481146442344
0.6579340221322422,0.6579340221322422
0.7139909582549142,0.7139909582549142
0.7719808921749198,0.7719808921749198
0.8505894692664829,0.8505894692664829
0.9034247423935992,0.9034247423935992
0.9420846983402695,0.9420846983402695
0.9762343260931616,0.9762343260931616
1.033579927414056,1.033579927414056
1.0735285485589487,1.0735285485589487
1.0793275419509494,1.0793275419509494
1.0232706058282772,1.0232706058282772
0.9420846983402695,0.9420846983402695
0.8563884626584835,0.8563884626584835
0.8054861873287008,0.8054861873287008
0.7739138899722533,0.7739138899722533
0.7597385727918076,0.7597385727918076
0.709480630061136,0.709480630061136
0.6224957291811277,0.6224957291811277
0.5116705221340059,0.5116705221340059
0.4395052710335545,0.4395052710335545
0.37056168292865904,0.37056168292865904
0.25651481288598144,0.25651481288598144
0.08898833711707643,0.08898833711707643
-0.017326541736267114,-0.017326541736267114
-0.045677176097158725,-0.045677176097158725
-0.0630741562731604,-0.0630741562731604
-0.14232706596383468,-0.14232706596383468
-0.20031699988384025,-0.20031699988384025
-0.21513664966339724,-0.21513664966339724
-0.24606461442073355,-0.24606461442073355
-0.35624548886874413,-0.35624548886874413
-0.4284107399691955,-0.4284107399691955
-0.4142354227887497,-0.4142354227887497
-0.3826631254323022,-0.3826631254323022
-0.43420973336119606,-0.43420973336119606
-0.4741583545060888,-0.4741583545060888
-0.45353971133453125,-0.45353971133453125
-0.4284107399691955,-0.4284107399691955
-0.4767356849025335,-0.4767356849025335
-0.4741583545060888,-0.4741583545060888
-0.35366815847229943,-0.35366815847229943
-0.20031699988384025,-0.20031699988384025
-0.15650238314428047,-0.15650238314428047
-0.15456938534694697,-0.15456938534694697
-0.10302277741805313,-0.10302277741805313
-0.017326541736267114,-0.017326541736267114
0.006513764430846287,0.006513764430846287
0.028421072800626168,0.028421072800626168
0.1302256234601915,0.1302256234601915
0.3022624274228747,0.3022624274228747
0.40277831288421767,0.40277831288421767
0.3937576564966613,0.3937576564966613
0.3402780507704339,0.3402780507704339
0.348010041959768,0.348010041959768
0.40084531508688415,0.40084531508688415
0.4395052710335545,0.4395052710335545
0.4098659714744406,0.4098659714744406
0.348010041959768,0.348010041959768
0.26489113667442665,0.26489113667442665
0.165663916411306,0.165663916411306
0.040663392183738455,0.040663392183738455
-0.0630741562731604,-0.0630741562731604
-0.1751880285185045,-0.1751880285185045
-0.3375598434945201,-0.3375598434945201
-0.5302152906287608,-0.5302152906287608
-0.6114011981167686,-0.6114011981167686
-0.5785402355620988,-0.5785402355620988
-0.5656535835798754,-0.5656535835798754
-0.6681024668385519,-0.6681024668385519
-0.7486440417274485,-0.7486440417274485
-0.7299583963532245,-0.7299583963532245
-0.7028964271905552,-0.7028964271905552
-0.7782833412865624,-0.7782833412865624
-0.8401392708012351,-0.8401392708012351
-0.8079226408456764,-0.8079226408456764
-0.7486440417274485,-0.7486440417274485
-0.7789276738856736,-0.7789276738856736
-0.7943916562643417,-0.7943916562643417
-0.7454223787318927,-0.7454223787318927
-0.7028964271905552,-0.7028964271905552
-0.773128680493673,-0.773128680493673
-0.8401392708012351,-0.8401392708012351
-0.7963246540616753,-0.7963246540616753
-0.7028964271905552,-0.7028964271905552
-0.7144944139745563,-0.7144944139745563
-0.7943916562643417,-0.7943916562643417
-0.8085669734447876,-0.8085669734447876
-0.7486440417274485,-0.7486440417274485
-0.8278969514181228,-0.8278969514181228
-1.1139806254234836,-1.1139806254234836
-1.3498063566981728,-1.3498063566981728
-1.1597282399603768,-1.1597282399603768
-0.5630762531834307,-0.5630762531834307
0.165663916411306,0.165663916411306
0.9543270177233818,0.9543270177233818
2.038738782027486,2.038738782027486
3.2520170661538246,3.2520170661538246
3.8209627511689903,3.8209627511689903
3.0838462577858086,3.0838462577858086
1.353813229172309,1.353813229172309
-0.4464520527443083,-0.4464520527443083
-1.6623076672670918,-1.6623076672670918
-2.3053516011800426,-2.3053516011800426
-2.576615625405846,-2.576615625405846
-2.576615625405846,-2.576615625405846
-2.3021299381844864,-2.3021299381844864
-1.848519788410221,-1.848519788410221
-1.34271869810795,-1.34271869810795
-0.9432324866590227,-0.9432324866590227
-0.7028964271905552,-0.7028964271905552
-0.5849835615532105,-0.5849835615532105
-0.4741583545060888,-0.4741583545060888
-0.3878177862251916,-0.3878177862251916
-0.3826631254323022,-0.3826631254323022
-0.4477407179425307,-0.4477407179425307
-0.4284107399691955,-0.4284107399691955
-0.3220958611158519,-0.3220958611158519
-0.24606461442073355,-0.24606461442073355
-0.2873019007638486,-0.2873019007638486
-0.2918122289576268,-0.2918122289576268
-0.19065201089717265,-0.19065201089717265
-0.0630741562731604,-0.0630741562731604
-0.023769867727378845,-0.023769867727378845
0.028421072800626168,0.028421072800626168
0.1540659296273049,0.1540659296273049
0.25651481288598144,0.25651481288598144
0.2210765199348669,0.2210765199348669
0.165663916411306,0.165663916411306
0.19530321597041997,0.19530321597041997
0.25651481288598144,0.25651481288598144
0.24362816090375797,0.24362816090375797
0.25651481288598144,0.25651481288598144
0.36282969173932494,0.36282969173932494
0.4852528855704478,0.4852528855704478
0.5181138481251176,0.5181138481251176
0.5767481146442344,0.5767481146442344
0.7320322710300271,0.7320322710300271
0.8963370838033762,0.8963370838033762
0.9465950265340477,0.9465950265340477
0.9878323128771628,0.9878323128771628
1.100590517721618,1.100590517721618
1.2165703855616292,1.2165703855616292
1.2223693789536298,1.2223693789536298
1.2165703855616292,1.2165703855616292
1.268116993490523,1.268116993490523
1.3080656146354157,1.3080656146354157
1.2371890287331868,1.2371890287331868
1.1708227710247359,1.1708227710247359
1.1882197512007375,1.1882197512007375
1.2165703855616292,1.2165703855616292
1.134095812875399,1.134095812875399
1.033579927414056,1.033579927414056
1.0000746322602752,1.0000746322602752
0.9878323128771628,0.9878323128771628
0.8834504318211528,0.8834504318211528
0.7597385727918076,0.7597385727918076
0.6946609802815791,0.6946609802815791
0.668243343718021,0.668243343718021
0.5690161234549003,0.5690161234549003
0.4395052710335545,0.4395052710335545
0.3454327115633233,0.3454327115633233
0.3022624274228747,0.3022624274228747
0.2236538503313116,0.2236538503313116
0.11991630187441274,0.11991630187441274
0.02455507720595913,0.02455507720595913
-0.017326541736267114,-0.017326541736267114
-0.059852493277604536,-0.059852493277604536
-0.10882177081005368,-0.10882177081005368
-0.158435380941614,-0.158435380941614
-0.15456938534694697,-0.15456938534694697
-0.14232706596383468,-0.14232706596383468
-0.15456938534694697,-0.15456938534694697
-0.20224999768117377,-0.20224999768117377
-0.20031699988384025,-0.20031699988384025
-0.1661673721309481,-0.1661673721309481
-0.15456938534694697,-0.15456938534694697
-0.19000767829806148,-0.19000767829806148
-0.15456938534694697,-0.15456938534694697
-0.0463215086962699,-0.0463215086962699
0.028421072800626168,0.028421072800626168
-0.008305885348710693,-0.008305885348710693
-0.017326541736267114,-0.017326541736267114
0.0683696939455189,0.0683696939455189
0.165663916411306,0.165663916411306
0.1733959076006401,0.1733959076006401
0.2114115309481993,0.2114115309481993
0.348010041959768,0.348010041959768
0.4852528855704478,0.4852528855704478
0.49685087235444897,0.49685087235444897
0.4852528855704478,0.4852528855704478
0.5348664957020082,0.5348664957020082
0.5767481146442344,0.5767481146442344
0.5078045265393389,0.5078045265393389
0.4395052710335545,0.4395052710335545
0.4575465838086674,0.4575465838086674
0.4852528855704478,0.4852528855704478
0.3905359935011054,0.3905359935011054
0.25651481288598144,0.25651481288598144
0.17919490099264065,0.17919490099264065
0.11991630187441274,0.11991630187441274
-0.04309984570071403,-0.04309984570071403
-0.24606461442073355,-0.24606461442073355
-0.36977647345007875,-0.36977647345007875
-0.3826631254323022,-0.3826631254323022
-0.40521476640119325,-0.40521476640119325
-0.4741583545060888,-0.4741583545060888
-0.5508339338003184,-0.5508339338003184
-0.5656535835798754,-0.5656535835798754
-0.5714525769718759,-0.5714525769718759
-0.6114011981167686,-0.6114011981167686
-0.6719684624332188,-0.6719684624332188
-0.6571488126536619,-0.6571488126536619
-0.5946485505398781,-0.5946485505398781
-0.5656535835798754,-0.5656535835798754
-0.6281538456936592,-0.6281538456936592
-0.6571488126536619,-0.6571488126536619
-0.6172001915087691,-0.6172001915087691
-0.5656535835798754,-0.5656535835798754
-0.6036692069274345,-0.6036692069274345
-0.6571488126536619,-0.6571488126536619
-0.6410404976758826,-0.6410404976758826
-0.5656535835798754,-0.5656535835798754
-0.5501896012012072,-0.5501896012012072
-0.6114011981167686,-0.6114011981167686
-0.6893654426092206,-0.6893654426092206
-0.7486440417274485,-0.7486440417274485
-0.9090828589061306,-0.9090828589061306
-1.2054758544972701,-1.2054758544972701
-1.44710057916396,-1.44710057916396
-1.2969710835710566,-1.2969710835710566
-0.6797004536225529,-0.6797004536225529
0.25651481288598144,0.25651481288598144
1.3879628569252012,1.3879628569252012
2.6785610529448807,2.6785610529448807
3.7359108480863155,3.7359108480863155
3.8667103657058837,3.8667103657058837
2.730751993472886,2.730751993472886
0.8963370838033762,0.8963370838033762
-0.7306027289523357,-0.7306027289523357
-1.7080552818039851,-1.7080552818039851
-2.248005999859148,-2.248005999859148
-2.576615625405846,-2.576615625405846
-2.642337550515186,-2.642337550515186
-2.3021299381844864,-2.3021299381844864
-1.7209419337862086,-1.7209419337862086
-1.2054758544972701,-1.2054758544972701
-0.9129488545007975,-0.9129488545007975
-0.7028964271905552,-0.7028964271905552
-0.4857563412900899,-0.4857563412900899
-0.3375598434945201,-0.3375598434945201
-0.3736424690447458,-0.3736424690447458
-0.4741583545060888,-0.4741583545060888
-0.48382334349275635,-0.48382334349275635
-0.3826631254323022,-0.3826631254323022
-0.30727621133629496,-0.30727621133629496
-0.24606461442073355,-0.24606461442073355
-0.14232706596383468,-0.14232706596383468
0.028421072800626168,0.028421072800626168
0.12635962786552446,0.12635962786552446
0.11991630187441274,0.11991630187441274
0.07867901553129766,0.07867901553129766
0.11991630187441274,0.11991630187441274
0.1946588833713088,0.1946588833713088
0.2114115309481993,0.2114115309481993
0.1540659296273049,0.1540659296273049
0.165663916411306,0.165663916411306
0.29130877323798476,0.29130877323798476
0.4395052710335545,0.4395052710335545
0.4813868899757808,0.4813868899757808
0.4852528855704478,0.4852528855704478
0.5432428194904534,0.5432428194904534
0.668243343718021,0.668243343718021
0.7661818987829193,0.7661818987829193
0.8505894692664829,0.8505894692664829
0.9388630353447136,0.9388630353447136
1.033579927414056,1.033579927414056
1.0947915243296176,1.0947915243296176
1.1708227710247359,1.1708227710247359
1.2552303415082995,1.2552303415082995
1.3080656146354157,1.3080656146354157
1.2958232952523034,1.2958232952523034
1.3080656146354157,1.3080656146354157
1.3377049141945296,1.3377049141945296
1.3080656146354157,1.3080656146354157
1.1869310860025153,1.1869310860025153
1.1250751564878427,1.1250751564878427
1.1611577820380683,1.1611577820380683
1.1708227710247359,1.1708227710247359
1.036801590409612,1.036801590409612
0.8963370838033762,0.8963370838033762
0.8563884626584835,0.8563884626584835
0.8505894692664829,0.8505894692664829
0.7455632556113617,0.7455632556113617
0.6224957291811277,0.6224957291811277
0.5632171300628998,0.5632171300628998
0.5310005001073411,0.5310005001073411
0.41888662786199704,0.41888662786199704
0.3022624274228747,0.3022624274228747
0.2449168261019803,0.2449168261019803
0.2114115309481993,0.2114115309481993
0.0992976587028552,0.0992976587028552
-0.017326541736267114,-0.017326541736267114
-0.06887314966516095,-0.06887314966516095
-0.0630741562731604,-0.0630741562731604
-0.10237844481894195,-0.10237844481894195
-0.15456938534694697,-0.15456938534694697
-0.17454369591939334,-0.17454369591939334
-0.15456938534694697,-0.15456938534694697
-0.19516233909095088,-0.19516233909095088
-0.2918122289576268,-0.2918122289576268
-0.3704208060491899,-0.3704208060491899
-0.3375598434945201,-0.3375598434945201
-0.27763691177718103,-0.27763691177718103
-0.2918122289576268,-0.2918122289576268
-0.3807301276349687,-0.3807301276349687
-0.3826631254323022,-0.3826631254323022
-0.28279157257007037,-0.28279157257007037
-0.20031699988384025,-0.20031699988384025
-0.21900264525806426,-0.21900264525806426
-0.20031699988384025,-0.20031699988384025
-0.09464645362960787,-0.09464645362960787
-0.017326541736267114,-0.017326541736267114
-0.0630741562731604,-0.0630741562731604
-0.0630741562731604,-0.0630741562731604
0.0851223415224094,0.0851223415224094
0.25651481288598144,0.25651481288598144
0.29130877323798476,0.29130877323798476
0.3022624274228747,0.3022624274228747
0.3956906542939948,0.3956906542939948
0.4852528855704478,0.4852528855704478
0.4446599318264439,0.4446599318264439
0.3937576564966613,0.3937576564966613
0.42532995385310873,0.42532995385310873
0.4395052710335545,0.4395052710335545
0.3099944186122088,0.3099944186122088
0.165663916411306,0.165663916411306
0.10445231949574459,0.10445231949574459
0.028421072800626168,0.028421072800626168
-0.18292001970783858,-0.18292001970783858
-0.3826631254323022,-0.3826631254323022
-0.4516067135371977,-0.4516067135371977
-0.4741583545060888,-0.4741583545060888
-0.5927155527425446,-0.5927155527425446
-0.7028964271905552,-0.7028964271905552
-0.7138500813754451,-0.7138500813754451
-0.7028964271905552,-0.7028964271905552
-0.7834380020794518,-0.7834380020794518
-0.8401392708012351,-0.8401392708012351
-0.7827936694803407,-0.7827936694803407
-0.7028964271905552,-0.7028964271905552
-0.7531543699212266,-0.7531543699212266
-0.8401392708012351,-0.8401392708012351
-0.8491599271887915,-0.8491599271887915
-0.7943916562643417,-0.7943916562643417
-0.8227422906252334,-0.8227422906252334
-0.8858868853381283,-0.8858868853381283
-0.8936188765274624,-0.8936188765274624
-0.8401392708012351,-0.8401392708012351
-0.8369176078056791,-0.8369176078056791
-0.8858868853381283,-0.8858868853381283
-0.9206808456901316,-0.9206808456901316
-0.8858868853381283,-0.8858868853381283
-0.8201649602287887,-0.8201649602287887
-0.7943916562643417,-0.7943916562643417
-0.9277685042803546,-0.9277685042803546
-1.2054758544972701,-1.2054758544972701
-1.4116622862128456,-1.4116622862128456
-1.2512234690341635,-1.2512234690341635
-0.735757389745225,-0.735757389745225
-0.0630741562731604,-0.0630741562731604
0.7333209362282495,0.7333209362282495
1.856392656479024,1.856392656479024
3.1328155353182576,3.1328155353182576
3.8209627511689903,3.8209627511689903
3.197248795229375,3.197248795229375
1.4446641256469845,1.4446641256469845
-0.48640067388920105,-0.48640067388920105
-1.7538028963408783,-1.7538028963408783
-2.3427228919284904,-2.3427228919284904
-2.668110854479633,-2.668110854479633
-2.8826736099836534,-2.8826736099836534
-2.713214136417415,-2.713214136417415
-2.1043198302573565,-2.1043198302573565
-1.4342139271817365,-1.4342139271817365
-1.0946506474501483,-1.0946506474501483
-0.9767377818128037,-0.9767377818128037
-0.8188762950305664,-0.8188762950305664
-0.6114011981167686,-0.6114011981167686
-0.541813277412762,-0.541813277412762
-0.5656535835798754,-0.5656535835798754
-0.545679273007429,-0.545679273007429
-0.4741583545060888,-0.4741583545060888
-0.47029235891142174,-0.47029235891142174
-0.4741583545060888,-0.4741583545060888
-0.42196741397808374,-0.42196741397808374
-0.3375598434945201,-0.3375598434945201
-0.33369384789985307,-0.33369384789985307
-0.3375598434945201,-0.3375598434945201
-0.2847245703674039,-0.2847245703674039
-0.20031699988384025,-0.20031699988384025
-0.17196636552294864,-0.17196636552294864
-0.15456938534694697,-0.15456938534694697
-0.09722378402605257,-0.09722378402605257
-0.017326541736267114,-0.017326541736267114
0.01166842522373567,0.01166842522373567
0.028421072800626168,0.028421072800626168
0.0754573525357418,0.0754573525357418
0.165663916411306,0.165663916411306
0.23589616971442387,0.23589616971442387
0.3022624274228747,0.3022624274228747
0.37829367411799314,0.37829367411799314
0.4852528855704478,0.4852528855704478
0.5799697776397903,0.5799697776397903
0.668243343718021,0.668243343718021
0.7513622490033622,0.7513622490033622
0.8505894692664829,0.8505894692664829
0.9169557269749338,0.9169557269749338
0.9420846983402695,0.9420846983402695
0.9562600155207153,0.9562600155207153
1.033579927414056,1.033579927414056
1.1057451785145074,1.1057451785145074
1.0793275419509494,1.0793275419509494
0.9678580023047164,0.9678580023047164
0.9420846983402695,0.9420846983402695
1.003940627854942,1.003940627854942
0.9878323128771628,0.9878323128771628
0.8087078503242567,0.8087078503242567
0.668243343718021,0.668243343718021
0.6817743282993556,0.6817743282993556
0.7139909582549142,0.7139909582549142
0.5773924472433456,0.5773924472433456
0.3937576564966613,0.3937576564966613
0.3280357313873216,0.3280357313873216
0.348010041959768,0.348010041959768
0.2719787952646496,0.2719787952646496
0.11991630187441274,0.11991630187441274
-0.005728554952266001,-0.005728554952266001
-0.0630741562731604,-0.0630741562731604
-0.13395074217538944,-0.13395074217538944
-0.20031699988384025,-0.20031699988384025
-0.24993061001540057,-0.24993061001540057
-0.2918122289576268,-0.2918122289576268
-0.3736424690447458,-0.3736424690447458
-0.4284107399691955,-0.4284107399691955
-0.4380757289558631,-0.4380757289558631
-0.4284107399691955,-0.4284107399691955
-0.46062736992475417,-0.46062736992475417
-0.4741583545060888,-0.4741583545060888
-0.46771502851497704,-0.46771502851497704
-0.4741583545060888,-0.4741583545060888
-0.526993627633205,-0.526993627633205
-0.519905969042982,-0.519905969042982
-0.42067874877986144,-0.42067874877986144
-0.2918122289576268,-0.2918122289576268
-0.23639962543406592,-0.23639962543406592
-0.20031699988384025,-0.20031699988384025
-0.13588373997272296,-0.13588373997272296
-0.0630741562731604,-0.0630741562731604
-0.05856382807938219,-0.05856382807938219
-0.0630741562731604,-0.0630741562731604
0.0052250992326239405,0.0052250992326239405
0.165663916411306,0.165663916411306
0.2977520992290965,0.2977520992290965
0.348010041959768,0.348010041959768
0.34865437455887915,0.34865437455887915
0.3937576564966613,0.3937576564966613
0.4498145926193333,0.4498145926193333
0.4395052710335545,0.4395052710335545
0.33770072037398924,0.33770072037398924
0.25651481288598144,0.25651481288598144
0.2333188393179792,0.2333188393179792
0.2114115309481993,0.2114115309481993
0.12184929967174625,0.12184929967174625
0.028421072800626168,0.028421072800626168
-0.07209481266071682,-0.07209481266071682
-0.24606461442073355,-0.24606461442073355
-0.4883336716865346,-0.4883336716865346
-0.6114011981167686,-0.6114011981167686
-0.57918456816121,-0.57918456816121
-0.5656535835798754,-0.5656535835798754
-0.6964531011994435,-0.6964531011994435
-0.7943916562643417,-0.7943916562643417
-0.7512213721238932,-0.7512213721238932
-0.7028964271905552,-0.7028964271905552
-0.8001906496563423,-0.8001906496563423
-0.8858868853381283,-0.8858868853381283
-0.8317629470127897,-0.8317629470127897
-0.7486440417274485,-0.7486440417274485
-0.8117886364403434,-0.8117886364403434
-0.8858868853381283,-0.8858868853381283
-0.8433609337967909,-0.8433609337967909
-0.7486440417274485,-0.7486440417274485
-0.7744173456918954,-0.7744173456918954
-0.8401392708012351,-0.8401392708012351
-0.8201649602287887,-0.8201649602287887
-0.7486440417274485,-0.7486440417274485
-0.7686183522998948,-0.7686183522998948
-0.8401392708012351,-0.8401392708012351
-0.8472269293914579,-0.8472269293914579
-0.7943916562643417,-0.7943916562643417
-0.8446495989950132,-0.8446495989950132
-1.022485396349697,-1.022485396349697
-1.178413885334601,-1.178413885334601
-1.1139806254234836,-1.1139806254234836
-0.8188762950305664,-0.8188762950305664
-0.3375598434945201,-0.3375598434945201
0.35960802874376907,0.35960802874376907
1.3989165111100912,1.3989165111100912
2.649566085984878,2.649566085984878
3.592869011083635,3.592869011083635
3.554209055136965,3.554209055136965
2.358972083785739,2.358972083785739
0.5226241763188959,0.5226241763188959
-1.1139806254234836,-1.1139806254234836
-2.118495147437802,-2.118495147437802
-2.576615625405846,-2.576615625405846
-2.753807090161419,-2.753807090161419
-2.668110854479633,-2.668110854479633
-2.2679803104315943,-2.2679803104315943
-1.6623076672670918,-1.6623076672670918
-1.1558622443657098,-1.1558622443657098
-0.8858868853381283,-0.8858868853381283
-0.7628193589078943,-0.7628193589078943
-0.6114011981167686,-0.6114011981167686
-0.45353971133453125,-0.45353971133453125
-0.3826631254323022,-0.3826631254323022
-0.4213230813789726,-0.4213230813789726
-0.4284107399691955,-0.4284107399691955
-0.3639774800580782,-0.3639774800580782
-0.2918122289576268,-0.2918122289576268
-0.2995442201469609,-0.2995442201469609
-0.2918122289576268,-0.2918122289576268
-0.2299562994429542,-0.2299562994429542
-0.15456938534694697,-0.15456938534694697
-0.15650238314428047,-0.15650238314428047
-0.15456938534694697,-0.15456938534694697
-0.09335778843138554,-0.09335778843138554
-0.017326541736267114,-0.017326541736267114
-0.0031512245558213085,-0.0031512245558213085
0.028421072800626168,0.028421072800626168
0.13151428865841386,0.13151428865841386
0.25651481288598144,0.25651481288598144
0.3074170882157641,0.3074170882157641
0.348010041959768,0.348010041959768
0.4317732798442205,0.4317732798442205
0.5310005001073411,0.5310005001073411
0.5587068018691216,0.5587068018691216
0.5767481146442344,0.5767481146442344
0.6444030375509076,0.6444030375509076
0.7597385727918076,0.7597385727918076
0.835769819486926,0.835769819486926
0.8963370838033762,0.8963370838033762
0.9749456608949393,0.9749456608949393
1.0793275419509494,1.0793275419509494
1.141183471465622,1.141183471465622
1.1708227710247359,1.1708227710247359
1.197884740187405,1.197884740187405
1.2623180000985226,1.2623180000985226
1.3093542798336382,1.3093542798336382
1.3080656146354157,1.3080656146354157
1.2410550243278538,1.2410550243278538
1.1708227710247359,1.1708227710247359
1.1128328371047302,1.1128328371047302
1.0793275419509494,1.0793275419509494
1.0329355948149448,1.0329355948149448
0.9878323128771628,0.9878323128771628
0.925332050763379,0.925332050763379
0.8505894692664829,0.8505894692664829
0.7494292512060288,0.7494292512060288
0.668243343718021,0.668243343718021
0.5992997556131254,0.5992997556131254
0.5310005001073411,0.5310005001073411
0.43048461464599813,0.43048461464599813
0.348010041959768,0.348010041959768
0.2803551190530948,0.2803551190530948
0.2114115309481993,0.2114115309481993
0.10509665209485576,0.10509665209485576
0.028421072800626168,0.028421072800626168
-0.019259539533600635,-0.019259539533600635
-0.0630741562731604,-0.0630741562731604
-0.13588373997272296,-0.13588373997272296
-0.15456938534694697,-0.15456938534694697
-0.12364142058961067,-0.12364142058961067
-0.10882177081005368,-0.10882177081005368
-0.16938903512650394,-0.16938903512650394
-0.20031699988384025,-0.20031699988384025
-0.17389936332028216,-0.17389936332028216
-0.15456938534694697,-0.15456938534694697
-0.20611599327584082,-0.20611599327584082
-0.20031699988384025,-0.20031699988384025
-0.09013612543582966,-0.09013612543582966
0.028421072800626168,0.028421072800626168
0.03422006619262673,0.03422006619262673
0.028421072800626168,0.028421072800626168
0.08898833711707643,0.08898833711707643
0.165663916411306,0.165663916411306
0.17146290980330658,0.17146290980330658
0.2114115309481993,0.2114115309481993
0.3447883789642121,0.3447883789642121
0.4852528855704478,0.4852528855704478
0.5032941983455607,0.5032941983455607
0.4852528855704478,0.4852528855704478
0.5213355111206736,0.5213355111206736
0.5767481146442344,0.5767481146442344
0.545175817287787,0.545175817287787
0.4852528855704478,0.4852528855704478
0.45883524900688977,0.45883524900688977
0.4395052710335545,0.4395052710335545
0.3396337181713227,0.3396337181713227
0.2114115309481993,0.2114115309481993
0.11153997808596748,0.11153997808596748
0.028421072800626168,0.028421072800626168
-0.11977542499494362,-0.11977542499494362
-0.2918122289576268,-0.2918122289576268
-0.42067874877986144,-0.42067874877986144
-0.4741583545060888,-0.4741583545060888
-0.5192616364438709,-0.5192616364438709
-0.5656535835798754,-0.5656535835798754
-0.6068908699229905,-0.6068908699229905
-0.6114011981167686,-0.6114011981167686
-0.6229991849007698,-0.6229991849007698
-0.6571488126536619,-0.6571488126536619
-0.7067624227852223,-0.7067624227852223
-0.7028964271905552,-0.7028964271905552
