ECG,PPG
0.3697390912470343,0.3697390912470343
0.6768017633225096,0.6768017633225096
0.3349633187469202,0.3349633187469202
0.15368535571441064,0.15368535571441064
0.3001875462468061,0.3001875462468061
0.3704790013002282,0.3704790013002282
0.26541177374669206,0.26541177374669206
0.22471672082102662,0.22471672082102662
0.3001875462468061,0.3001875462468061
0.30684673672555135,0.30684673672555135
0.23063600124657796,0.23063600124657796
0.21065842981034222,0.21065842981034222
0.26541177374669206,0.26541177374669206
0.2861292552361217,0.2861292552361217
0.26541177374669206,0.26541177374669206
0.25727276316155895,0.25727276316155895
0.26541177374669206,0.26541177374669206
0.24765393247003803,0.24765393247003803
0.23063600124657796,0.23063600124657796
0.24247456209768062,0.24247456209768062
0.26541177374669206,0.26541177374669206
0.2639319536403042,0.2639319536403042
0.26541177374669206,0.26541177374669206
0.28094988486376427,0.28094988486376427
0.3001875462468061,0.3001875462468061
0.2861292552361217,0.2861292552361217
0.26541177374669206,0.26541177374669206
0.25653285310836504,0.25653285310836504
0.26541177374669206,0.26541177374669206
0.2631920435871103,0.2631920435871103
0.26541177374669206,0.26541177374669206
0.26763150390627377,0.26763150390627377
0.26541177374669206,0.26541177374669206
0.24247456209768062,0.24247456209768062
0.23063600124657796,0.23063600124657796
0.23063600124657796,0.23063600124657796
0.23063600124657796,0.23063600124657796
0.20695887954437264,0.20695887954437264
0.1958602287464639,0.1958602287464639
0.20843869965076045,0.20843869965076045
0.23063600124657796,0.23063600124657796
0.2187974403954753,0.2187974403954753
0.1958602287464639,0.1958602287464639
0.19364049858688212,0.19364049858688212
0.23063600124657796,0.23063600124657796
0.2609723134275285,0.2609723134275285
0.26541177374669206,0.26541177374669206
0.25209339278920156,0.25209339278920156
0.26541177374669206,0.26541177374669206
0.2905687155552852,0.2905687155552852
0.3001875462468061,0.3001875462468061
0.275030604438213,0.275030604438213
0.26541177374669206,0.26541177374669206
0.28094988486376427,0.28094988486376427
0.3001875462468061,0.3001875462468061
0.28390952507653994,0.28390952507653994
0.26541177374669206,0.26541177374669206
0.2624521335339164,0.2624521335339164
0.26541177374669206,0.26541177374669206
0.24321447215087455,0.24321447215087455
0.23063600124657796,0.23063600124657796
0.24173465204448671,0.24173465204448671
0.26541177374669206,0.26541177374669206
0.2646718636934981,0.2646718636934981
0.26541177374669206,0.26541177374669206
0.27059114411904944,0.27059114411904944
0.26541177374669206,0.26541177374669206
0.22471672082102662,0.22471672082102662
0.1958602287464639,0.1958602287464639
0.20325932927840304,0.20325932927840304
0.23063600124657796,0.23063600124657796
0.23137591129977186,0.23137591129977186
0.23063600124657796,0.23063600124657796
0.25209339278920156,0.25209339278920156
0.3001875462468061,0.3001875462468061
0.336443138853308,0.336443138853308
0.3697390912470343,0.3697390912470343
0.39193639284285176,0.39193639284285176
0.40451486374714835,0.40451486374714835
0.40525477380034225,0.40525477380034225
0.43855072619406854,0.43855072619406854
0.48960451986444875,0.48960451986444875
0.5081022711942966,0.5081022711942966
0.46740721826863124,0.46740721826863124
0.43855072619406854,0.43855072619406854
0.46296775794946776,0.46296775794946776
0.5081022711942966,0.5081022711942966
0.5147614616730419,0.5147614616730419
0.5081022711942966,0.5081022711942966
0.5103220013538784,0.5103220013538784
0.5081022711942966,0.5081022711942966
0.4711067685346009,0.4711067685346009
0.43855072619406854,0.43855072619406854
0.42819198544935366,0.42819198544935366
0.40451486374714835,0.40451486374714835
0.3120261070979088,0.3120261070979088
0.1958602287464639,0.1958602287464639
0.11373021284193914,0.11373021284193914
0.09153291124612165,0.09153291124612165
0.06193650911836498,0.06193650911836498
0.021981366245893485,0.021981366245893485
-0.016493956520190176,-0.016493956520190176
-0.012794406254220595,-0.012794406254220595
0.009402895341596903,0.009402895341596903
0.021981366245893485,0.021981366245893485
-0.0053953057222814295,-0.0053953057222814295
-0.047570178754334676,-0.047570178754334676
-0.08678541157361225,-0.08678541157361225
-0.11712172375456284,-0.11712172375456284
-0.16373605710577957,-0.16373605710577957
-0.22070913120171115,-0.22070913120171115
-0.2769422952444488,-0.2769422952444488
-0.2902606762019393,-0.2902606762019393
-0.19851182960589367,-0.19851182960589367
0.12630868374623572,0.12630868374623572
0.7929676416739546,0.7929676416739546
1.862877578592358,1.862877578592358
3.2428098277990123,3.2428098277990123
4.571688283335287,4.571688283335287
5.179154437007492,5.179154437007492
4.571688283335287,4.571688283335287
3.004558790670571,3.004558790670571
1.4115324461440688,1.4115324461440688
0.49922335055596967,0.49922335055596967
0.1958602287464639,0.1958602287464639
0.01680199587353607,0.01680199587353607
-0.22070913120171115,-0.22070913120171115
-0.4005072741278329,-0.4005072741278329
-0.46413953870250974,-0.46413953870250974
-0.5225924329048292,-0.5225924329048292
-0.6032426287029661,-0.6032426287029661
-0.647637231894601,-0.647637231894601
-0.6380184012030801,-0.6380184012030801
-0.6335789408839166,-0.6335789408839166
-0.6380184012030801,-0.6380184012030801
-0.6269197504051713,-0.6269197504051713
-0.6032426287029661,-0.6032426287029661
-0.612861459394487,-0.612861459394487
-0.6380184012030801,-0.6380184012030801
-0.6454175017350193,-0.6454175017350193
-0.6032426287029661,-0.6032426287029661
-0.5603278456177189,-0.5603278456177189
-0.5336910837027379,-0.5336910837027379
-0.5359108138623196,-0.5359108138623196
-0.5336910837027379,-0.5336910837027379
-0.5292516233835743,-0.5292516233835743
-0.5336910837027379,-0.5336910837027379
-0.5484892847666162,-0.5484892847666162
-0.5336910837027379,-0.5336910837027379
-0.49225612072387853,-0.49225612072387853
-0.46413953870250974,-0.46413953870250974
-0.4811574699259698,-0.4811574699259698
-0.4989153112026238,-0.4989153112026238
-0.48781666040471505,-0.48781666040471505
-0.46413953870250974,-0.46413953870250974
-0.46487944875570364,-0.46487944875570364
-0.46413953870250974,-0.46413953870250974
-0.4456417873726618,-0.4456417873726618
-0.42936376620239564,-0.42936376620239564
-0.4471216074790496,-0.4471216074790496
-0.46413953870250974,-0.46413953870250974
-0.45378079795779486,-0.45378079795779486
-0.42936376620239564,-0.42936376620239564
-0.42714403604281387,-0.42714403604281387
-0.42936376620239564,-0.42936376620239564
-0.42640412598961996,-0.42640412598961996
-0.42936376620239564,-0.42936376620239564
-0.4552606180641827,-0.4552606180641827
-0.46413953870250974,-0.46413953870250974
-0.4449018773194679,-0.4449018773194679
-0.42936376620239564,-0.42936376620239564
-0.4508211577450192,-0.4508211577450192
-0.46413953870250974,-0.46413953870250974
-0.44786151753224357,-0.44786151753224357
-0.42936376620239564,-0.42936376620239564
-0.4486014275854375,-0.4486014275854375
-0.46413953870250974,-0.46413953870250974
-0.45156106779821314,-0.45156106779821314
-0.42936376620239564,-0.42936376620239564
-0.4345431365747531,-0.4345431365747531
-0.42936376620239564,-0.42936376620239564
-0.3960678138086694,-0.3960678138086694
-0.3598122212021675,-0.3598122212021675
-0.3524131206702283,-0.3524131206702283
-0.3250364487020534,-0.3250364487020534
-0.25770463386140696,-0.25770463386140696
-0.18593335870159708,-0.18593335870159708
-0.1555970465206465,-0.1555970465206465
-0.11712172375456284,-0.11712172375456284
-0.03499170785003809,-0.03499170785003809
0.05675713874600757,0.05675713874600757
0.09967192183125473,0.09967192183125473
0.12630868374623572,0.12630868374623572
0.1825418477889734,0.1825418477889734
0.26541177374669206,0.26541177374669206
0.31646556741707227,0.31646556741707227
0.3349633187469202,0.3349633187469202
0.3357032288001141,0.3357032288001141
0.3349633187469202,0.3349633187469202
0.31720547747026623,0.31720547747026623
0.3001875462468061,0.3001875462468061
0.2846494351297339,0.2846494351297339
0.26541177374669206,0.26541177374669206
0.22545663087422055,0.22545663087422055
0.1958602287464639,0.1958602287464639
0.1884611282145247,0.1884611282145247
0.1958602287464639,0.1958602287464639
0.18402166789536123,0.18402166789536123
0.1610844562463498,0.1610844562463498
0.13740733454414447,0.13740733454414447
0.12630868374623572,0.12630868374623572
0.10855084246958173,0.10855084246958173
0.09153291124612165,0.09153291124612165
0.08043426044821289,0.08043426044821289
0.09153291124612165,0.09153291124612165
0.09967192183125473,0.09967192183125473
0.09153291124612165,0.09153291124612165
0.06341632922475281,0.06341632922475281
0.05675713874600757,0.05675713874600757
0.07229524986307981,0.07229524986307981
0.09153291124612165,0.09153291124612165
0.08043426044821289,0.08043426044821289
0.05675713874600757,0.05675713874600757
0.03381992709699615,0.03381992709699615
0.021981366245893485,0.021981366245893485
0.011622625501178652,0.011622625501178652
0.021981366245893485,0.021981366245893485
0.043438757788517066,0.043438757788517066
0.05675713874600757,0.05675713874600757
0.03825938741615965,0.03825938741615965
0.021981366245893485,0.021981366245893485
0.019761636086311735,0.019761636086311735
0.021981366245893485,0.021981366245893485
0.002743704862851653,0.002743704862851653
-0.012794406254220595,-0.012794406254220595
-0.015014136413802346,-0.015014136413802346
-0.012794406254220595,-0.012794406254220595
-0.03129215758406851,-0.03129215758406851
-0.047570178754334676,-0.047570178754334676
-0.05052981896711034,-0.05052981896711034
-0.047570178754334676,-0.047570178754334676
-0.06532802003098867,-0.06532802003098867
-0.08234595125444875,-0.08234595125444875
-0.08678541157361225,-0.08678541157361225
-0.08234595125444875,-0.08234595125444875
-0.09640424226513317,-0.09640424226513317
-0.11712172375456284,-0.11712172375456284
-0.12748046449927766,-0.12748046449927766
-0.11712172375456284,-0.11712172375456284
-0.11268226343539933,-0.11268226343539933
-0.11712172375456284,-0.11712172375456284
-0.12526073433969592,-0.12526073433969592
-0.11712172375456284,-0.11712172375456284
-0.10972262322262366,-0.10972262322262366
-0.11712172375456284,-0.11712172375456284
-0.14301857561634992,-0.14301857561634992
-0.151157586201483,-0.151157586201483
-0.13783920524399249,-0.13783920524399249
-0.11712172375456284,-0.11712172375456284
-0.115641903648175,-0.115641903648175
-0.11712172375456284,-0.11712172375456284
-0.115641903648175,-0.115641903648175
-0.11712172375456284,-0.11712172375456284
-0.13709929519079858,-0.13709929519079858
-0.151157586201483,-0.151157586201483
-0.15411722641425865,-0.15411722641425865
-0.151157586201483,-0.151157586201483
-0.15855668673342216,-0.15855668673342216
-0.151157586201483,-0.151157586201483
-0.14005893540357425,-0.14005893540357425
-0.151157586201483,-0.151157586201483
-0.19777191955269974,-0.19777191955269974
-0.22070913120171115,-0.22070913120171115
-0.20369119997825108,-0.20369119997825108
-0.18593335870159708,-0.18593335870159708
-0.2184894010421294,-0.2184894010421294
-0.25548490370182525,-0.25548490370182525
-0.2547449936486313,-0.2547449936486313
-0.22070913120171115,-0.22070913120171115
-0.21035039045699633,-0.21035039045699633
-0.22070913120171115,-0.22070913120171115
-0.239946792584753,-0.239946792584753
-0.25548490370182525,-0.25548490370182525
-0.2725028349252853,-0.2725028349252853
-0.25548490370182525,-0.25548490370182525
-0.20517102008463892,-0.20517102008463892
-0.151157586201483,-0.151157586201483
-0.13265983487163507,-0.13265983487163507
-0.11712172375456284,-0.11712172375456284
-0.08530559146722443,-0.08530559146722443
-0.047570178754334676,-0.047570178754334676
-0.03129215758406851,-0.03129215758406851
-0.012794406254220595,-0.012794406254220595
0.011622625501178652,0.011622625501178652
0.021981366245893485,0.021981366245893485
-0.00021593534992401313,-0.00021593534992401313
-0.012794406254220595,-0.012794406254220595
0.002743704862851653,0.002743704862851653
0.021981366245893485,0.021981366245893485
0.00570334507562732,0.00570334507562732
-0.012794406254220595,-0.012794406254220595
-0.0031755755626996793,-0.0031755755626996793
0.021981366245893485,0.021981366245893485
0.007183165182015153,0.007183165182015153
-0.047570178754334676,-0.047570178754334676
-0.10898271316942976,-0.10898271316942976
-0.151157586201483,-0.151157586201483
-0.2088705703506085,-0.2088705703506085
-0.2902606762019393,-0.2902606762019393
-0.3849691630107606,-0.3849691630107606
-0.42936376620239564,-0.42936376620239564
-0.4367628667343348,-0.4367628667343348
-0.42936376620239564,-0.42936376620239564
-0.4463816974258557,-0.4463816974258557
-0.46413953870250974,-0.46413953870250974
-0.470058819128061,-0.470058819128061
-0.46413953870250974,-0.46413953870250974
-0.4855969302451333,-0.4855969302451333
-0.5336910837027379,-0.5336910837027379
-0.5706865863624337,-0.5706865863624337
-0.568466856202852,-0.568466856202852
-0.594363708064639,-0.594363708064639
-0.7068300361501143,-0.7068300361501143
-0.8229959145015593,-0.8229959145015593
-0.7416058086502284,-0.7416058086502284
-0.37609024237243366,-0.37609024237243366
0.26541177374669206,0.26541177374669206
1.2383934936966923,1.2383934936966923
2.5924288910415596,2.5924288910415596
3.952383568811978,3.952383568811978
4.571688283335287,4.571688283335287
4.010836463014297,4.010836463014297
2.661980436041788,2.661980436041788
1.3197835995480232,1.3197835995480232
0.43855072619406854,0.43855072619406854
-0.06532802003098867,-0.06532802003098867
-0.39458799370228154,-0.39458799370228154
-0.6291394805647531,-0.6291394805647531
-0.7763815811503425,-0.7763815811503425
-0.886628179076236,-0.886628179076236
-0.985036216151027,-0.985036216151027
-1.0605070415768065,-1.0605070415768065
-1.0893635336513692,-1.0893635336513692
-1.0901034437045631,-1.0901034437045631
-1.0893635336513692,-1.0893635336513692
-1.1063814648748294,-1.1063814648748294
-1.1241393061514833,-1.1241393061514833
-1.1219195759919016,-1.1219195759919016
-1.0893635336513692,-1.0893635336513692
-1.0627267717363882,-1.0627267717363882
-1.054587761151255,-1.054587761151255
-1.0656864119491638,-1.0656864119491638
-1.054587761151255,-1.054587761151255
-1.0375698299277951,-1.0375698299277951
-1.019811988651141,-1.019811988651141
-1.0109330680128141,-1.0109330680128141
-0.985036216151027,-0.985036216151027
-0.9554398140232703,-0.9554398140232703
-0.9502604436509129,-0.9502604436509129
-0.9768972055658939,-0.9768972055658939
-0.985036216151027,-0.985036216151027
-0.9628389145552095,-0.9628389145552095
-0.9502604436509129,-0.9502604436509129
-0.9746774754063121,-0.9746774754063121
-0.985036216151027,-0.985036216151027
-0.9524801738104947,-0.9524801738104947
-0.9154846711507988,-0.9154846711507988
-0.9154846711507988,-0.9154846711507988
-0.9154846711507988,-0.9154846711507988
-0.8925474595017874,-0.8925474595017874
-0.8807088986506848,-0.8807088986506848
-0.9088254806720536,-0.9088254806720536
-0.9154846711507988,-0.9154846711507988
-0.8755295282783273,-0.8755295282783273
-0.8459331261505707,-0.8459331261505707
-0.8814488087038787,-0.8814488087038787
-0.9154846711507988,-0.9154846711507988
-0.8910676393953996,-0.8910676393953996
-0.8459331261505707,-0.8459331261505707
-0.851852406576122,-0.851852406576122
-0.8807088986506848,-0.8807088986506848
-0.88736808912943,-0.88736808912943
-0.8807088986506848,-0.8807088986506848
-0.9014263801401144,-0.9014263801401144
-0.9154846711507988,-0.9154846711507988
-0.8999465600337265,-0.8999465600337265
-0.8807088986506848,-0.8807088986506848
-0.8999465600337265,-0.8999465600337265
-0.9154846711507988,-0.9154846711507988
-0.8918075494485935,-0.8918075494485935
-0.8459331261505707,-0.8459331261505707
-0.8274353748207227,-0.8274353748207227
-0.8111573536504566,-0.8111573536504566
-0.7689824806184034,-0.7689824806184034
-0.7068300361501143,-0.7068300361501143
-0.6668748932776428,-0.6668748932776428
-0.6380184012030801,-0.6380184012030801
-0.5958435281710268,-0.5958435281710268
-0.5336910837027379,-0.5336910837027379
-0.47967764981958194,-0.47967764981958194
-0.42936376620239564,-0.42936376620239564
-0.3709108720000762,-0.3709108720000762
-0.2902606762019393,-0.2902606762019393
-0.213310030669772,-0.213310030669772
-0.151157586201483,-0.151157586201483
-0.10454325285026625,-0.10454325285026625
-0.047570178754334676,-0.047570178754334676
0.010882715447984736,0.010882715447984736
0.05675713874600757,0.05675713874600757
0.0759948001290494,0.0759948001290494
0.09153291124612165,0.09153291124612165
0.10115174193764256,0.10115174193764256
0.09153291124612165,0.09153291124612165
0.052317678426844066,0.052317678426844066
0.021981366245893485,0.021981366245893485
0.016062085820342152,0.016062085820342152
0.021981366245893485,0.021981366245893485
0.006443255128821236,0.006443255128821236
-0.012794406254220595,-0.012794406254220595
-0.019453596732965844,-0.019453596732965844
-0.012794406254220595,-0.012794406254220595
-0.015014136413802346,-0.015014136413802346
-0.012794406254220595,-0.012794406254220595
-0.009094855988251013,-0.009094855988251013
-0.012794406254220595,-0.012794406254220595
-0.03721143800961984,-0.03721143800961984
-0.047570178754334676,-0.047570178754334676
-0.034251797796844174,-0.034251797796844174
-0.012794406254220595,-0.012794406254220595
-0.013534316307414512,-0.013534316307414512
-0.012794406254220595,-0.012794406254220595
0.0005239747032699034,0.0005239747032699034
0.021981366245893485,0.021981366245893485
0.0227212762990874,0.0227212762990874
0.021981366245893485,0.021981366245893485
0.03234010699060832,0.03234010699060832
0.05675713874600757,0.05675713874600757
0.0626764191715589,0.0626764191715589
0.05675713874600757,0.05675713874600757
0.05749704879920148,0.05749704879920148
0.09153291124612165,0.09153291124612165
0.12334904353346006,0.12334904353346006
0.12630868374623572,0.12630868374623572
0.10855084246958173,0.10855084246958173
0.12630868374623572,0.12630868374623572
0.17144319699106464,0.17144319699106464
0.1958602287464639,0.1958602287464639
0.17218310704425854,0.17218310704425854
0.1610844562463498,0.1610844562463498
0.1825418477889734,0.1825418477889734
0.1958602287464639,0.1958602287464639
0.1573849059803802,0.1573849059803802
0.12630868374623572,0.12630868374623572
0.13814724459733838,0.13814724459733838
0.1610844562463498,0.1610844562463498
0.14110688481011405,0.14110688481011405
0.12630868374623572,0.12630868374623572
0.15442526576760454,0.15442526576760454
0.1958602287464639,0.1958602287464639
0.18624139805494297,0.18624139805494297
0.1610844562463498,0.1610844562463498
0.1647840065123194,0.1647840065123194
0.1958602287464639,0.1958602287464639
0.20251941922520914,0.20251941922520914
0.1958602287464639,0.1958602287464639
0.1921606784804943,0.1921606784804943
0.1958602287464639,0.1958602287464639
0.18698130810813687,0.18698130810813687
0.1958602287464639,0.1958602287464639
0.22841627108699622,0.22841627108699622
0.26541177374669206,0.26541177374669206
0.26837141395946773,0.26837141395946773
0.26541177374669206,0.26541177374669206
0.2765104245446008,0.2765104245446008
0.3001875462468061,0.3001875462468061
0.3031471864595818,0.3031471864595818
0.3001875462468061,0.3001875462468061
0.29722790603403043,0.29722790603403043
0.3001875462468061,0.3001875462468061
0.29278844571486695,0.29278844571486695
0.3001875462468061,0.3001875462468061
0.31868529757665404,0.31868529757665404
0.3349633187469202,0.3349633187469202
0.31942520762984794,0.31942520762984794
0.3001875462468061,0.3001875462468061
0.29278844571486695,0.29278844571486695
0.3001875462468061,0.3001875462468061
0.2868691652893156,0.2868691652893156
0.26541177374669206,0.26541177374669206
0.2506135726828137,0.2506135726828137
0.26541177374669206,0.26541177374669206
0.2853893451829278,0.2853893451829278
0.3001875462468061,0.3001875462468061
0.2861292552361217,0.2861292552361217
0.26541177374669206,0.26541177374669206
0.25801267321475285,0.25801267321475285
0.3001875462468061,0.3001875462468061
0.3608601706087073,0.3608601706087073
0.40451486374714835,0.40451486374714835
0.40303504364076054,0.40303504364076054
0.40451486374714835,0.40451486374714835
0.43929063624726244,0.43929063624726244
0.5081022711942966,0.5081022711942966
0.5576762447582891,0.5576762447582891
0.5776538161945248,0.5776538161945248
0.5835730966200762,0.5835730966200762
0.6124295886946389,0.6124295886946389
0.6412860807692017,0.6412860807692017
0.647205361194753,0.647205361194753
0.6220484193861598,0.6220484193861598
0.6124295886946389,0.6124295886946389
0.6264878797053234,0.6264878797053234
0.647205361194753,0.647205361194753
0.6457255410883652,0.6457255410883652
0.647205361194753,0.647205361194753
0.6546044617266922,0.6546044617266922
0.647205361194753,0.647205361194753
0.5887524669924336,0.5887524669924336
0.5081022711942966,0.5081022711942966
0.43041171560893543,0.43041171560893543
0.3697390912470343,0.3697390912470343
0.3031471864595818,0.3031471864595818
0.26541177374669206,0.26541177374669206
0.24321447215087455,0.24321447215087455
0.23063600124657796,0.23063600124657796
0.19142076842730038,0.19142076842730038
0.1610844562463498,0.1610844562463498
0.1522055356080228,0.1522055356080228
0.1610844562463498,0.1610844562463498
0.1477660752888593,0.1477660752888593
0.12630868374623572,0.12630868374623572
0.10781093241638781,0.10781093241638781
0.09153291124612165,0.09153291124612165
0.03751947736296573,0.03751947736296573
-0.047570178754334676,-0.047570178754334676
-0.12526073433969592,-0.12526073433969592
-0.11712172375456284,-0.11712172375456284
0.05527731863961973,0.05527731863961973
0.5081022711942966,0.5081022711942966
1.3271827000799623,1.3271827000799623
2.4881015735412175,2.4881015735412175
3.7207917221622826,3.7207917221622826
4.571688283335287,4.571688283335287
4.608683785994982,4.608683785994982
3.7733253359390506,3.7733253359390506
2.4681240021049815,2.4681240021049815
1.3072051286437265,1.3072051286437265
0.6250080595989355,0.6250080595989355
0.3349633187469202,0.3349633187469202
0.1514656255548289,0.1514656255548289
-0.047570178754334676,-0.047570178754334676
-0.22514859152087466,-0.22514859152087466
-0.3250364487020534,-0.3250364487020534
-0.3834893429043728,-0.3834893429043728
-0.42936376620239564,-0.42936376620239564
-0.46487944875570364,-0.46487944875570364
-0.46413953870250974,-0.46413953870250974
-0.4471216074790496,-0.4471216074790496
-0.42936376620239564,-0.42936376620239564
-0.42862385614920173,-0.42862385614920173
-0.42936376620239564,-0.42936376620239564
-0.4338032265215591,-0.4338032265215591
-0.42936376620239564,-0.42936376620239564
-0.4241843958300382,-0.4241843958300382
-0.39458799370228154,-0.39458799370228154
-0.3709108720000762,-0.3709108720000762
-0.3598122212021675,-0.3598122212021675
-0.3709108720000762,-0.3709108720000762
-0.3598122212021675,-0.3598122212021675
-0.3339153693403804,-0.3339153693403804
-0.3250364487020534,-0.3250364487020534
-0.35315303072342225,-0.35315303072342225
-0.3598122212021675,-0.3598122212021675
-0.3250364487020534,-0.3250364487020534
-0.2902606762019393,-0.2902606762019393
-0.30431896721262375,-0.30431896721262375
-0.3250364487020534,-0.3250364487020534
-0.3161575280637264,-0.3161575280637264
-0.2902606762019393,-0.2902606762019393
-0.2902606762019393,-0.2902606762019393
-0.2902606762019393,-0.2902606762019393
-0.2725028349252853,-0.2725028349252853
-0.25548490370182525,-0.25548490370182525
-0.2732427449784792,-0.2732427449784792
-0.2902606762019393,-0.2902606762019393
-0.27990193545722447,-0.27990193545722447
-0.25548490370182525,-0.25548490370182525
-0.25548490370182525,-0.25548490370182525
-0.25548490370182525,-0.25548490370182525
-0.23846697247836515,-0.23846697247836515
-0.22070913120171115,-0.22070913120171115
-0.24660598306349824,-0.24660598306349824
-0.2902606762019393,-0.2902606762019393
-0.3124579777977568,-0.3124579777977568
-0.2902606762019393,-0.2902606762019393
-0.2643638243401522,-0.2643638243401522
-0.25548490370182525,-0.25548490370182525
-0.2732427449784792,-0.2732427449784792
-0.2902606762019393,-0.2902606762019393
-0.30061941694665417,-0.30061941694665417
-0.2902606762019393,-0.2902606762019393
-0.275462475138061,-0.275462475138061
-0.25548490370182525,-0.25548490370182525
-0.24290643279752866,-0.24290643279752866
-0.22070913120171115,-0.22070913120171115
-0.1918526391271484,-0.1918526391271484
-0.151157586201483,-0.151157586201483
-0.12674055444608376,-0.12674055444608376
-0.11712172375456284,-0.11712172375456284
-0.10380334279707233,-0.10380334279707233
-0.047570178754334676,-0.047570178754334676
0.030860286884220482,0.030860286884220482
0.09153291124612165,0.09153291124612165
0.1255687736930418,0.1255687736930418
0.1958602287464639,0.1958602287464639
0.3075866467787453,0.3075866467787453
0.40451486374714835,0.40451486374714835
0.43115162566212933,0.43115162566212933
0.43855072619406854,0.43855072619406854
0.4688870383750191,0.4688870383750191
0.5081022711942966,0.5081022711942966
0.5118018214602663,0.5118018214602663
0.5081022711942966,0.5081022711942966
0.5147614616730419,0.5147614616730419
0.5081022711942966,0.5081022711942966
0.45408883731114075,0.45408883731114075
0.40451486374714835,0.40451486374714835
0.3941561230024335,0.3941561230024335
0.40451486374714835,0.40451486374714835
0.37639828172577955,0.37639828172577955
0.3349633187469202,0.3349633187469202
0.3075866467787453,0.3075866467787453
0.3001875462468061,0.3001875462468061
0.27873015470418255,0.27873015470418255
0.26541177374669206,0.26541177374669206
0.2646718636934981,0.2646718636934981
0.26541177374669206,0.26541177374669206
0.2321158213529658,0.2321158213529658
0.1958602287464639,0.1958602287464639
0.18180193773577946,0.18180193773577946
0.1958602287464639,0.1958602287464639
0.19955977901243346,0.19955977901243346
0.1958602287464639,0.1958602287464639
0.18920103826771864,0.18920103826771864
0.1958602287464639,0.1958602287464639
0.1958602287464639,0.1958602287464639
0.1958602287464639,0.1958602287464639
0.1921606784804943,0.1921606784804943
0.1958602287464639,0.1958602287464639
0.19438040864007605,0.19438040864007605
0.1958602287464639,0.1958602287464639
0.19290058853368822,0.19290058853368822
0.1958602287464639,0.1958602287464639
0.19364049858688212,0.19364049858688212
0.1958602287464639,0.1958602287464639
0.19364049858688212,0.19364049858688212
0.1958602287464639,0.1958602287464639
0.19364049858688212,0.19364049858688212
0.1958602287464639,0.1958602287464639
0.19364049858688212,0.19364049858688212
0.1958602287464639,0.1958602287464639
0.19364049858688212,0.19364049858688212
0.1958602287464639,0.1958602287464639
0.19438040864007605,0.19438040864007605
0.1958602287464639,0.1958602287464639
0.1832817578421673,0.1832817578421673
0.1610844562463498,0.1610844562463498
0.13296787422498096,0.13296787422498096
0.12630868374623572,0.12630868374623572
0.12778850385262355,0.12778850385262355
0.12630868374623572,0.12630868374623572
0.11373021284193914,0.11373021284193914
0.12630868374623572,0.12630868374623572
0.1514656255548289,0.1514656255548289
0.1610844562463498,0.1610844562463498
0.1344476943313688,0.1344476943313688
0.12630868374623572,0.12630868374623572
0.15516517582079847,0.15516517582079847
0.1958602287464639,0.1958602287464639
0.19955977901243346,0.19955977901243346
0.1958602287464639,0.1958602287464639
0.20843869965076045,0.20843869965076045
0.23063600124657796,0.23063600124657796
0.2195373504486692,0.2195373504486692
0.1958602287464639,0.1958602287464639
0.1832817578421673,0.1832817578421673
0.1958602287464639,0.1958602287464639
0.19881986895923956,0.19881986895923956
0.1958602287464639,0.1958602287464639
0.18994094832091254,0.18994094832091254
0.1958602287464639,0.1958602287464639
0.1958602287464639,0.1958602287464639
0.1958602287464639,0.1958602287464639
0.19142076842730038,0.19142076842730038
0.1958602287464639,0.1958602287464639
0.19512031869326996,0.19512031869326996
0.1958602287464639,0.1958602287464639
0.1921606784804943,0.1921606784804943
0.1958602287464639,0.1958602287464639
0.18550148800174904,0.18550148800174904
0.1610844562463498,0.1610844562463498
0.12852841390581748,0.12852841390581748
0.12630868374623572,0.12630868374623572
0.14628625518247146,0.14628625518247146
0.1610844562463498,0.1610844562463498
0.14110688481011405,0.14110688481011405
0.12630868374623572,0.12630868374623572
0.14332661496969581,0.14332661496969581
0.1958602287464639,0.1958602287464639
0.23877501183171104,0.23877501183171104
0.26541177374669206,0.26541177374669206
0.27799024465098865,0.27799024465098865
0.3001875462468061,0.3001875462468061
0.3268243081617871,0.3268243081617871
0.3697390912470343,0.3697390912470343
0.4096942341195058,0.4096942341195058
0.43855072619406854,0.43855072619406854
0.4415103664068442,0.4415103664068442
0.43855072619406854,0.43855072619406854
0.4363309960344868,0.4363309960344868
0.43855072619406854,0.43855072619406854
0.434111265874905,0.434111265874905
0.43855072619406854,0.43855072619406854
0.45260901720475294,0.45260901720475294
0.4733264986941826,0.4733264986941826
0.47850586906654,0.47850586906654
0.4733264986941826,0.4733264986941826
0.44890946693878336,0.44890946693878336
0.40451486374714835,0.40451486374714835
0.3342234086937263,0.3342234086937263
0.26541177374669206,0.26541177374669206
0.19364049858688212,0.19364049858688212
0.12630868374623572,0.12630868374623572
0.053797498533231895,0.053797498533231895
0.021981366245893485,0.021981366245893485
0.017541905926729984,0.017541905926729984
0.021981366245893485,0.021981366245893485
-0.008354945935057095,-0.008354945935057095
-0.047570178754334676,-0.047570178754334676
-0.06532802003098867,-0.06532802003098867
-0.047570178754334676,-0.047570178754334676
-0.04535044859475292,-0.04535044859475292
-0.08234595125444875,-0.08234595125444875
-0.1341396549780229,-0.1341396549780229
-0.151157586201483,-0.151157586201483
-0.1822338084356275,-0.1822338084356275
-0.2902606762019393,-0.2902606762019393
-0.4145655651385173,-0.4145655651385173
-0.3250364487020534,-0.3250364487020534
0.13148805411859313,0.13148805411859313
0.9601873136957797,0.9601873136957797
2.0811510442845633,2.0811510442845633
3.3560160659376814,3.3560160659376814
4.370432748866541,4.370432748866541
4.571688283335287,4.571688283335287
3.7718455158326627,3.7718455158326627
2.453325801041103,2.453325801041103
1.2901871974202666,1.2901871974202666
0.5776538161945248,0.5776538161945248
0.17588265731022815,0.17588265731022815
-0.08234595125444875,-0.08234595125444875
-0.2525252634890496,-0.2525252634890496
-0.3598122212021675,-0.3598122212021675
-0.46635926886209145,-0.46635926886209145
-0.568466856202852,-0.568466856202852
-0.6402381313626618,-0.6402381313626618
-0.6727941737031942,-0.6727941737031942
-0.6875923747670725,-0.6875923747670725
-0.6727941737031942,-0.6727941737031942
-0.6439376816286314,-0.6439376816286314
-0.6380184012030801,-0.6380184012030801
-0.6676148033308368,-0.6676148033308368
-0.6727941737031942,-0.6727941737031942
-0.638758311256274,-0.638758311256274
-0.6032426287029661,-0.6032426287029661
-0.6202605599264261,-0.6202605599264261
-0.6380184012030801,-0.6380184012030801
-0.6291394805647531,-0.6291394805647531
-0.6032426287029661,-0.6032426287029661
-0.6047224488093539,-0.6047224488093539
-0.6032426287029661,-0.6032426287029661
-0.5743861366284033,-0.5743861366284033
-0.5336910837027379,-0.5336910837027379
-0.5262919831707987,-0.5262919831707987
-0.5336910837027379,-0.5336910837027379
-0.5359108138623196,-0.5359108138623196
-0.5336910837027379,-0.5336910837027379
-0.5425700043410648,-0.5425700043410648
-0.5336910837027379,-0.5336910837027379
-0.4989153112026238,-0.4989153112026238
-0.46413953870250974,-0.46413953870250974
-0.46265971859612187,-0.46265971859612187
-0.46413953870250974,-0.46413953870250974
-0.44786151753224357,-0.44786151753224357
-0.42936376620239564,-0.42936376620239564
-0.44342205721308003,-0.44342205721308003
-0.46413953870250974,-0.46413953870250974
-0.4597000783833462,-0.4597000783833462
-0.42936376620239564,-0.42936376620239564
-0.41752520535129295,-0.41752520535129295
-0.42936376620239564,-0.42936376620239564
-0.4419422371066922,-0.4419422371066922
-0.42936376620239564,-0.42936376620239564
-0.4182651154044869,-0.4182651154044869
-0.42936376620239564,-0.42936376620239564
-0.4597000783833462,-0.4597000783833462
-0.46413953870250974,-0.46413953870250974
-0.44416196726627394,-0.44416196726627394
-0.42936376620239564,-0.42936376620239564
-0.4486014275854375,-0.4486014275854375
-0.46413953870250974,-0.46413953870250974
-0.45378079795779486,-0.45378079795779486
-0.42936376620239564,-0.42936376620239564
-0.4278839460960078,-0.4278839460960078
-0.42936376620239564,-0.42936376620239564
-0.4182651154044869,-0.4182651154044869
-0.39458799370228154,-0.39458799370228154
-0.3827494328511789,-0.3827494328511789
-0.3598122212021675,-0.3598122212021675
-0.3161575280637264,-0.3161575280637264
-0.25548490370182525,-0.25548490370182525
-0.20665084019102675,-0.20665084019102675
-0.151157586201483,-0.151157586201483
-0.08530559146722443,-0.08530559146722443
-0.012794406254220595,-0.012794406254220595
0.04121902762893532,0.04121902762893532
0.09153291124612165,0.09153291124612165
0.14332661496969581,0.14332661496969581
0.1958602287464639,0.1958602287464639
0.23063600124657796,0.23063600124657796
0.26541177374669206,0.26541177374669206
0.30166736635319397,0.30166736635319397
0.3349633187469202,0.3349633187469202
0.34088259917247155,0.34088259917247155
0.3349633187469202,0.3349633187469202
0.32016511768304184,0.32016511768304184
0.3001875462468061,0.3001875462468061
0.2624521335339164,0.2624521335339164
0.23063600124657796,0.23063600124657796
0.20843869965076045,0.20843869965076045
0.1958602287464639,0.1958602287464639
0.17514274725703421,0.17514274725703421
0.1610844562463498,0.1610844562463498
0.1470261652356654,0.1470261652356654
0.12630868374623572,0.12630868374623572
0.08561363082057032,0.08561363082057032
0.05675713874600757,0.05675713874600757
0.05009794826726231,0.05009794826726231
0.05675713874600757,0.05675713874600757
0.043438757788517066,0.043438757788517066
0.021981366245893485,0.021981366245893485
0.009402895341596903,0.009402895341596903
0.021981366245893485,0.021981366245893485
0.02938046677783265,0.02938046677783265
0.021981366245893485,0.021981366245893485
-0.0016957554563118463,-0.0016957554563118463
-0.012794406254220595,-0.012794406254220595
-0.015014136413802346,-0.015014136413802346
-0.012794406254220595,-0.012794406254220595
-0.017973776626578012,-0.017973776626578012
-0.012794406254220595,-0.012794406254220595
-0.006875125828669263,-0.006875125828669263
-0.012794406254220595,-0.012794406254220595
-0.038691258116007675,-0.038691258116007675
-0.047570178754334676,-0.047570178754334676
-0.04239080838197726,-0.04239080838197726
-0.047570178754334676,-0.047570178754334676
-0.07716658088209134,-0.07716658088209134
-0.08234595125444875,-0.08234595125444875
-0.057928919499049505,-0.057928919499049505
-0.047570178754334676,-0.047570178754334676
-0.08530559146722443,-0.08530559146722443
-0.11712172375456284,-0.11712172375456284
-0.115641903648175,-0.115641903648175
-0.11712172375456284,-0.11712172375456284
-0.1592965967866161,-0.1592965967866161
-0.18593335870159708,-0.18593335870159708
-0.1696553375313309,-0.1696553375313309
-0.151157586201483,-0.151157586201483
-0.18667326875479098,-0.18667326875479098
-0.22070913120171115,-0.22070913120171115
-0.21183021056338416,-0.21183021056338416
-0.18593335870159708,-0.18593335870159708
-0.2014714698186693,-0.2014714698186693
-0.22070913120171115,-0.22070913120171115
-0.2088705703506085,-0.2088705703506085
-0.18593335870159708,-0.18593335870159708
-0.2014714698186693,-0.2014714698186693
-0.22070913120171115,-0.22070913120171115
-0.21257012061657807,-0.21257012061657807
-0.18593335870159708,-0.18593335870159708
-0.18593335870159708,-0.18593335870159708
-0.18593335870159708,-0.18593335870159708
-0.16891542747813698,-0.16891542747813698
-0.151157586201483,-0.151157586201483
-0.177794348116464,-0.177794348116464
-0.22070913120171115,-0.22070913120171115
-0.239946792584753,-0.239946792584753
-0.22070913120171115,-0.22070913120171115
-0.21035039045699633,-0.21035039045699633
-0.22070913120171115,-0.22070913120171115
-0.23698715237197732,-0.23698715237197732
-0.22070913120171115,-0.22070913120171115
-0.19407236928673016,-0.19407236928673016
-0.18593335870159708,-0.18593335870159708
-0.21035039045699633,-0.21035039045699633
-0.22070913120171115,-0.22070913120171115
-0.20591093013783282,-0.20591093013783282
-0.18593335870159708,-0.18593335870159708
-0.19925173965908757,-0.19925173965908757
-0.22070913120171115,-0.22070913120171115
-0.23920688253155906,-0.23920688253155906
-0.25548490370182525,-0.25548490370182525
-0.28360148572319405,-0.28360148572319405
-0.2902606762019393,-0.2902606762019393
-0.28286157567000014,-0.28286157567000014
-0.2902606762019393,-0.2902606762019393
-0.3265162688084412,-0.3265162688084412
-0.3250364487020534,-0.3250364487020534
-0.2725028349252853,-0.2725028349252853
-0.22070913120171115,-0.22070913120171115
-0.22292886136129292,-0.22292886136129292
-0.22070913120171115,-0.22070913120171115
-0.17557461795688226,-0.17557461795688226
-0.11712172375456284,-0.11712172375456284
-0.097884062371521,-0.097884062371521
-0.08234595125444875,-0.08234595125444875
-0.04239080838197726,-0.04239080838197726
-0.012794406254220595,-0.012794406254220595
-0.032771977690456346,-0.032771977690456346
-0.047570178754334676,-0.047570178754334676
-0.017233866573384094,-0.017233866573384094
0.021981366245893485,0.021981366245893485
0.011622625501178652,0.011622625501178652
-0.012794406254220595,-0.012794406254220595
-0.013534316307414512,-0.013534316307414512
-0.012794406254220595,-0.012794406254220595
-0.047570178754334676,-0.047570178754334676
-0.08234595125444875,-0.08234595125444875
-0.10380334279707233,-0.10380334279707233
-0.151157586201483,-0.151157586201483
-0.2517853534358557,-0.2517853534358557
-0.3250364487020534,-0.3250364487020534
-0.34501402013828913,-0.34501402013828913
-0.3598122212021675,-0.3598122212021675
-0.43824268684072265,-0.43824268684072265
-0.4989153112026238,-0.4989153112026238
-0.4952157609366542,-0.4952157609366542
-0.46413953870250974,-0.46413953870250974
-0.48707675035152115,-0.48707675035152115
-0.5336910837027379,-0.5336910837027379
-0.549969104873004,-0.549969104873004
-0.5336910837027379,-0.5336910837027379
-0.5470094646602284,-0.5470094646602284
-0.6032426287029661,-0.6032426287029661
-0.6668748932776428,-0.6668748932776428
-0.7068300361501143,-0.7068300361501143
-0.762323290139658,-0.762323290139658
-0.8111573536504566,-0.8111573536504566
-0.6824130043947151,-0.6824130043947151
-0.151157586201483,-0.151157586201483
0.7752098003973006,0.7752098003973006
1.9324291235925861,1.9324291235925861
3.23097126694791,3.23097126694791
4.536912510835172,4.536912510835172
5.233167870890648,5.233167870890648
4.571688283335287,4.571688283335287
2.686397467797187,2.686397467797187
0.7863084511952093,0.7863084511952093
-0.13857911529718642,-0.13857911529718642
-0.2902606762019393,-0.2902606762019393
-0.43898259689391655,-0.43898259689391655
-0.7763815811503425,-0.7763815811503425
-0.9983545971085175,-0.9983545971085175
-1.019811988651141,-1.019811988651141
-1.0605070415768065,-1.0605070415768065
-1.1589150786515974,-1.1589150786515974
-1.1803724701942209,-1.1803724701942209
-1.1241393061514833,-1.1241393061514833
-1.1204397558855137,-1.1204397558855137
-1.1589150786515974,-1.1589150786515974
-1.1470765178004947,-1.1470765178004947
-1.0893635336513692,-1.0893635336513692
-1.0745653325874909,-1.0745653325874909
-1.0893635336513692,-1.0893635336513692
-1.0871438034917875,-1.0871438034917875
-1.054587761151255,-1.054587761151255
-1.0501483008320915,-1.0501483008320915
-1.054587761151255,-1.054587761151255
-1.0494083907788978,-1.0494083907788978
-1.019811988651141,-1.019811988651141
-0.9961348669489357,-0.9961348669489357
-0.985036216151027,-0.985036216151027
-0.985776126204221,-0.985776126204221
-0.985036216151027,-0.985036216151027
-0.9872559463106088,-0.9872559463106088
-0.985036216151027,-0.985036216151027
-0.9746774754063121,-0.9746774754063121
-0.9502604436509129,-0.9502604436509129
-0.9369420626934224,-0.9369420626934224
-0.9502604436509129,-0.9502604436509129
-0.9813366658850574,-0.9813366658850574
-0.985036216151027,-0.985036216151027
-0.9524801738104947,-0.9524801738104947
-0.9154846711507988,-0.9154846711507988
-0.9095653907252474,-0.9095653907252474
-0.9154846711507988,-0.9154846711507988
-0.9162245812039927,-0.9162245812039927
-0.9154846711507988,-0.9154846711507988
-0.9243635917891259,-0.9243635917891259
-0.9154846711507988,-0.9154846711507988
-0.8903277293422056,-0.8903277293422056
-0.8807088986506848,-0.8807088986506848
-0.905125930406084,-0.905125930406084
-0.9154846711507988,-0.9154846711507988
-0.8955070997145631,-0.8955070997145631
-0.8807088986506848,-0.8807088986506848
-0.9036461102996962,-0.9036461102996962
-0.9154846711507988,-0.9154846711507988
-0.8947671896613691,-0.8947671896613691
-0.8807088986506848,-0.8807088986506848
-0.9073456605656658,-0.9073456605656658
-0.9154846711507988,-0.9154846711507988
-0.878489168491103,-0.878489168491103
-0.8459331261505707,-0.8459331261505707
-0.8688703377995821,-0.8688703377995821
-0.8807088986506848,-0.8807088986506848
-0.8266954647675289,-0.8266954647675289
-0.7416058086502284,-0.7416058086502284
-0.7001708456713691,-0.7001708456713691
-0.6727941737031942,-0.6727941737031942
-0.6136013694476808,-0.6136013694476808
-0.5336910837027379,-0.5336910837027379
-0.4804175598727759,-0.4804175598727759
-0.42936376620239564,-0.42936376620239564
-0.3509333005638405,-0.3509333005638405
-0.25548490370182525,-0.25548490370182525
-0.18371362854201534,-0.18371362854201534
-0.11712172375456284,-0.11712172375456284
-0.04387062848836509,-0.04387062848836509
0.021981366245893485,0.021981366245893485
0.05675713874600757,0.05675713874600757
0.09153291124612165,0.09153291124612165
0.13592751443775664,0.13592751443775664
0.1610844562463498,0.1610844562463498
0.13148805411859313,0.13148805411859313
0.09153291124612165,0.09153291124612165
0.08043426044821289,0.08043426044821289
0.09153291124612165,0.09153291124612165
0.08117417050140681,0.08117417050140681
0.05675713874600757,0.05675713874600757
0.034559837150190065,0.034559837150190065
0.021981366245893485,0.021981366245893485
0.00126388475646382,0.00126388475646382
-0.012794406254220595,-0.012794406254220595
-0.015754046466996262,-0.015754046466996262
-0.012794406254220595,-0.012794406254220595
-0.02907242742448676,-0.02907242742448676
-0.047570178754334676,-0.047570178754334676
-0.05570918933946776,-0.05570918933946776
-0.047570178754334676,-0.047570178754334676
-0.04683026870114076,-0.04683026870114076
-0.047570178754334676,-0.047570178754334676
-0.04165089832878334,-0.04165089832878334
-0.012794406254220595,-0.012794406254220595
0.013102445607566486,0.013102445607566486
0.021981366245893485,0.021981366245893485
0.013102445607566486,0.013102445607566486
0.021981366245893485,0.021981366245893485
0.043438757788517066,0.043438757788517066
0.05675713874600757,0.05675713874600757
0.03825938741615965,0.03825938741615965
0.021981366245893485,0.021981366245893485
0.028640556724638732,0.028640556724638732
0.05675713874600757,0.05675713874600757
0.07525489007585548,0.07525489007585548
0.09153291124612165,0.09153291124612165
0.09745219167167297,0.09745219167167297
0.09153291124612165,0.09153291124612165
0.07451498002266156,0.07451498002266156
0.09153291124612165,0.09153291124612165
0.1344476943313688,0.1344476943313688
0.1610844562463498,0.1610844562463498
0.1396270647037262,0.1396270647037262
0.12630868374623572,0.12630868374623572
0.14332661496969581,0.14332661496969581
0.1610844562463498,0.1610844562463498
0.1396270647037262,0.1396270647037262
0.12630868374623572,0.12630868374623572
0.14258670491650188,0.14258670491650188
0.1610844562463498,0.1610844562463498
0.1388871546505323,0.1388871546505323
0.12630868374623572,0.12630868374623572
0.15516517582079847,0.15516517582079847
0.1958602287464639,0.1958602287464639
0.18698130810813687,0.18698130810813687
0.1610844562463498,0.1610844562463498
0.16256427635273762,0.16256427635273762
0.1958602287464639,0.1958602287464639
0.2062189694911787,0.2062189694911787
0.1958602287464639,0.1958602287464639
0.18550148800174904,0.18550148800174904
0.1958602287464639,0.1958602287464639
0.19807995890604563,0.19807995890604563
0.1958602287464639,0.1958602287464639
0.19881986895923956,0.19881986895923956
0.23063600124657796,0.23063600124657796
0.2602324033743346,0.2602324033743346
0.26541177374669206,0.26541177374669206
0.24025483193809888,0.24025483193809888
0.23063600124657796,0.23063600124657796
0.24395438220406845,0.24395438220406845
0.26541177374669206,0.26541177374669206
0.2646718636934981,0.2646718636934981
0.26541177374669206,0.26541177374669206
0.26911132401266163,0.26911132401266163
0.26541177374669206,0.26541177374669206
0.23803510177851714,0.23803510177851714
0.23063600124657796,0.23063600124657796
0.24765393247003803,0.24765393247003803
0.26541177374669206,0.26541177374669206
0.2454342023104563,0.2454342023104563
0.23063600124657796,0.23063600124657796
0.24247456209768062,0.24247456209768062
0.26541177374669206,0.26541177374669206
0.25209339278920156,0.25209339278920156
0.23063600124657796,0.23063600124657796
0.23137591129977186,0.23137591129977186
0.26541177374669206,0.26541177374669206
0.2979678160872244,0.2979678160872244
0.3349633187469202,0.3349633187469202
0.3704790013002282,0.3704790013002282
0.40451486374714835,0.40451486374714835
0.41783324470463884,0.41783324470463884
0.43855072619406854,0.43855072619406854
0.4718466785877948,0.4718466785877948
0.5081022711942966,0.5081022711942966
0.5155013717262359,0.5155013717262359
0.5081022711942966,0.5081022711942966
0.4999632606091636,0.4999632606091636
0.5081022711942966,0.5081022711942966
0.5199408320453993,0.5199408320453993
0.5428780436944107,0.5428780436944107
0.5650753452902283,0.5650753452902283
0.5776538161945248,0.5776538161945248
0.5635955251838404,0.5635955251838404
0.5428780436944107,0.5428780436944107
0.5236403823113689,0.5236403823113689
0.5081022711942966,0.5081022711942966
0.4681471283218252,0.4681471283218252
0.40451486374714835,0.40451486374714835
0.3253444880553993,0.3253444880553993
0.26541177374669206,0.26541177374669206
0.20769878959756655,0.20769878959756655
0.1610844562463498,0.1610844562463498
0.11964949326749047,0.11964949326749047
0.12630868374623572,0.12630868374623572
0.1522055356080228,0.1522055356080228
0.1610844562463498,0.1610844562463498
0.12408895358665398,0.12408895358665398
0.09153291124612165,0.09153291124612165
0.08561363082057032,0.08561363082057032
0.09153291124612165,0.09153291124612165
0.06489614933114064,0.06489614933114064
0.021981366245893485,0.021981366245893485
-0.02685269726490501,-0.02685269726490501
-0.08234595125444875,-0.08234595125444875
-0.15485713646745258,-0.15485713646745258
-0.151157586201483,-0.151157586201483
0.08783336098015206,0.08783336098015206
0.7167569061949811,0.7167569061949811
1.7274740388578713,1.7274740388578713
2.9394467059895066,2.9394467059895066
4.0100965529611035,4.0100965529611035
4.571688283335287,4.571688283335287
4.360813918175021,4.360813918175021
3.4255676109379096,3.4255676109379096
2.1507025892847915,2.1507025892847915
1.063774721142928,1.063774721142928
0.442990186513232,0.442990186513232
0.1958602287464639,0.1958602287464639
0.05083785832045623,0.05083785832045623
-0.11712172375456284,-0.11712172375456284
-0.27398265503167313,-0.27398265503167313
-0.3598122212021675,-0.3598122212021675
-0.4012471841810268,-0.4012471841810268
-0.42936376620239564,-0.42936376620239564
-0.4574803482237645,-0.4574803482237645
-0.46413953870250974,-0.46413953870250974
-0.45378079795779486,-0.45378079795779486
-0.42936376620239564,-0.42936376620239564
-0.4197449355108747,-0.4197449355108747
-0.42936376620239564,-0.42936376620239564
-0.4471216074790496,-0.4471216074790496
-0.42936376620239564,-0.42936376620239564
-0.40272700428741465,-0.40272700428741465
-0.39458799370228154,-0.39458799370228154
-0.42640412598961996,-0.42640412598961996
-0.42936376620239564,-0.42936376620239564
-0.3953279037554755,-0.3953279037554755
-0.3598122212021675,-0.3598122212021675
-0.372390692106464,-0.372390692106464
-0.39458799370228154,-0.39458799370228154
-0.3886687132767302,-0.3886687132767302
-0.3598122212021675,-0.3598122212021675
-0.35389294077661615,-0.35389294077661615
-0.3598122212021675,-0.3598122212021675
-0.3524131206702283,-0.3524131206702283
-0.3250364487020534,-0.3250364487020534
-0.3161575280637264,-0.3161575280637264
-0.3250364487020534,-0.3250364487020534
-0.3361350994999621,-0.3361350994999621
-0.3250364487020534,-0.3250364487020534
-0.30653869737220546,-0.30653869737220546
-0.2902606762019393,-0.2902606762019393
-0.2998795068934602,-0.2998795068934602
-0.3250364487020534,-0.3250364487020534
-0.34575393019148304,-0.34575393019148304
-0.3250364487020534,-0.3250364487020534
-0.29248040636152106,-0.29248040636152106
-0.2902606762019393,-0.2902606762019393
-0.3235566285956656,-0.3235566285956656
-0.3250364487020534,-0.3250364487020534
-0.2858212158827758,-0.2858212158827758
-0.25548490370182525,-0.25548490370182525
-0.2762023851912549,-0.2762023851912549
-0.2902606762019393,-0.2902606762019393
-0.2717629248720914,-0.2717629248720914
-0.25548490370182525,-0.25548490370182525
-0.29174049630832716,-0.29174049630832716
-0.3250364487020534,-0.3250364487020534
-0.31689743811692034,-0.31689743811692034
-0.2902606762019393,-0.2902606762019393
-0.29470013652110283,-0.29470013652110283
-0.2902606762019393,-0.2902606762019393
-0.25548490370182525,-0.25548490370182525
-0.22070913120171115,-0.22070913120171115
-0.22884814178684423,-0.22884814178684423
-0.22070913120171115,-0.22070913120171115
-0.1607764168930039,-0.1607764168930039
-0.08234595125444875,-0.08234595125444875
-0.04535044859475292,-0.04535044859475292
-0.012794406254220595,-0.012794406254220595
0.05009794826726231,0.05009794826726231
0.12630868374623572,0.12630868374623572
0.17366292715064638,0.17366292715064638
0.23063600124657796,0.23063600124657796
0.31794538752346013,0.31794538752346013
0.40451486374714835,0.40451486374714835
0.4333713558217111,0.4333713558217111
0.43855072619406854,0.43855072619406854
0.4644475780558556,0.4644475780558556
0.5081022711942966,0.5081022711942966
0.5214206521517871,0.5214206521517871
0.5081022711942966,0.5081022711942966
0.48812469975806094,0.48812469975806094
0.4733264986941826,0.4733264986941826
0.44077045635365025,0.44077045635365025
0.40451486374714835,0.40451486374714835
0.37639828172577955,0.37639828172577955
0.3697390912470343,0.3697390912470343
0.35568080023634985,0.35568080023634985
0.3349633187469202,0.3349633187469202
0.309806376938327,0.309806376938327
0.3001875462468061,0.3001875462468061
0.2876090753425095,0.2876090753425095
0.26541177374669206,0.26541177374669206
0.2239768107678327,0.2239768107678327
0.1958602287464639,0.1958602287464639
0.18624139805494297,0.18624139805494297
0.1958602287464639,0.1958602287464639
0.1966001387996578,0.1966001387996578
0.1958602287464639,0.1958602287464639
0.1921606784804943,0.1921606784804943
0.1958602287464639,0.1958602287464639
0.19364049858688212,0.19364049858688212
0.1958602287464639,0.1958602287464639
0.19438040864007605,0.19438040864007605
0.1958602287464639,0.1958602287464639
0.19068085837410648,0.19068085837410648
0.1958602287464639,0.1958602287464639
0.19881986895923956,0.19881986895923956
0.1958602287464639,0.1958602287464639
0.18402166789536123,0.18402166789536123
0.1958602287464639,0.1958602287464639
0.2195373504486692,0.2195373504486692
0.23063600124657796,0.23063600124657796
0.20695887954437264,0.20695887954437264
0.1958602287464639,0.1958602287464639
0.21065842981034222,0.21065842981034222
0.23063600124657796,0.23063600124657796
0.21583780018269963,0.21583780018269963
0.1958602287464639,0.1958602287464639
0.18920103826771864,0.18920103826771864
0.1958602287464639,0.1958602287464639
0.19068085837410648,0.19068085837410648
0.1958602287464639,0.1958602287464639
0.2054790594379848,0.2054790594379848
0.1958602287464639,0.1958602287464639
0.14924589539524713,0.14924589539524713
0.12630868374623572,0.12630868374623572
0.1522055356080228,0.1522055356080228
0.1958602287464639,0.1958602287464639
0.19142076842730038,0.19142076842730038
0.1610844562463498,0.1610844562463498
0.14332661496969581,0.14332661496969581
0.1610844562463498,0.1610844562463498
0.18032211762939163,0.18032211762939163
0.1958602287464639,0.1958602287464639
0.19955977901243346,0.19955977901243346
0.1958602287464639,0.1958602287464639
0.17366292715064638,0.17366292715064638
0.1610844562463498,0.1610844562463498
0.16848355677828897,0.16848355677828897
0.1958602287464639,0.1958602287464639
0.20473914938479087,0.20473914938479087
0.1958602287464639,0.1958602287464639
0.1832817578421673,0.1832817578421673
0.1958602287464639,0.1958602287464639
0.20695887954437264,0.20695887954437264
0.1958602287464639,0.1958602287464639
0.16330418640593156,0.16330418640593156
0.1610844562463498,0.1610844562463498
0.1832817578421673,0.1832817578421673
0.1958602287464639,0.1958602287464639
0.1707032869378707,0.1707032869378707
0.1610844562463498,0.1610844562463498
0.18106202768258556,0.18106202768258556
0.1958602287464639,0.1958602287464639
0.16182436629954372,0.16182436629954372
0.12630868374623572,0.12630868374623572
0.12038940332068439,0.12038940332068439
0.12630868374623572,0.12630868374623572
0.1033714720972243,0.1033714720972243
0.09153291124612165,0.09153291124612165
0.10855084246958173,0.10855084246958173
0.12630868374623572,0.12630868374623572
0.1033714720972243,0.1033714720972243
0.09153291124612165,0.09153291124612165
0.12852841390581748,0.12852841390581748
0.1958602287464639,0.1958602287464639
0.23581537161893537,0.23581537161893537
0.26541177374669206,0.26541177374669206
0.3001875462468061,0.3001875462468061
0.3349633187469202,0.3349633187469202
0.345322059491635,0.345322059491635
0.3697390912470343,0.3697390912470343
0.4119139642790875,0.4119139642790875
0.43855072619406854,0.43855072619406854
0.41709333465144494,0.41709333465144494
0.40451486374714835,0.40451486374714835
0.4326314457685172,0.4326314457685172
0.4733264986941826,0.4733264986941826
0.46666730821543734,0.46666730821543734
0.43855072619406854,0.43855072619406854
0.42745207539615976,0.42745207539615976
0.43855072619406854,0.43855072619406854
0.4296718055557415,0.4296718055557415
0.40451486374714835,0.40451486374714835
0.3712189113534221,0.3712189113534221
0.3349633187469202,0.3349633187469202
0.26985123406585554,0.26985123406585554
0.1958602287464639,0.1958602287464639
0.12852841390581748,0.12852841390581748
0.09153291124612165,0.09153291124612165
0.04121902762893532,0.04121902762893532
-0.012794406254220595,-0.012794406254220595
-0.057928919499049505,-0.057928919499049505
-0.047570178754334676,-0.047570178754334676
-0.015754046466996262,-0.015754046466996262
-0.012794406254220595,-0.012794406254220595
-0.05718900944585559,-0.05718900944585559
-0.08234595125444875,-0.08234595125444875
-0.06310828987140692,-0.06310828987140692
-0.047570178754334676,-0.047570178754334676
-0.10084370258429667,-0.10084370258429667
-0.18593335870159708,-0.18593335870159708
-0.25622481375501915,-0.25622481375501915
-0.2902606762019393,-0.2902606762019393
-0.2658436444465401,-0.2658436444465401
-0.047570178754334676,-0.047570178754334676
0.5081022711942966,0.5081022711942966
1.481083991144297,1.481083991144297
2.7981238858294684,2.7981238858294684
4.1551189233871115,4.1551189233871115
4.925365288761979,4.925365288761979
4.571688283335287,4.571688283335287
3.218392796043613,3.218392796043613
1.6889987160917876,1.6889987160917876
0.6960394247055515,0.6960394247055515
0.26541177374669206,0.26541177374669206
0.013842355660760402,0.013842355660760402
-0.22070913120171115,-0.22070913120171115
-0.38052970269159714,-0.38052970269159714
-0.46413953870250974,-0.46413953870250974
-0.5699466763092398,-0.5699466763092398
-0.6727941737031942,-0.6727941737031942
-0.6994309356181752,-0.6994309356181752
-0.6727941737031942,-0.6727941737031942
-0.6809331842883273,-0.6809331842883273
-0.7068300361501143,-0.7068300361501143
-0.7009107557245631,-0.7009107557245631
-0.6727941737031942,-0.6727941737031942
-0.674273993809582,-0.674273993809582
-0.6727941737031942,-0.6727941737031942
-0.6424578615222436,-0.6424578615222436
-0.6032426287029661,-0.6032426287029661
-0.6158210996072626,-0.6158210996072626
-0.6380184012030801,-0.6380184012030801
-0.6343188509371105,-0.6343188509371105
-0.6032426287029661,-0.6032426287029661
-0.594363708064639,-0.594363708064639
-0.6032426287029661,-0.6032426287029661
-0.6010228985433843,-0.6010228985433843
-0.568466856202852,-0.568466856202852
-0.5396103641282892,-0.5396103641282892
-0.5336910837027379,-0.5336910837027379
-0.5433099143942588,-0.5433099143942588
-0.5336910837027379,-0.5336910837027379
-0.5114937821069204,-0.5114937821069204
-0.4989153112026238,-0.4989153112026238
-0.5063144117345629,-0.5063144117345629
-0.4989153112026238,-0.4989153112026238
-0.47523818950041846,-0.47523818950041846
-0.46413953870250974,-0.46413953870250974
-0.48707675035152115,-0.48707675035152115
-0.4989153112026238,-0.4989153112026238
-0.4818973799791637,-0.4818973799791637
-0.46413953870250974,-0.46413953870250974
-0.4818973799791637,-0.4818973799791637
-0.4989153112026238,-0.4989153112026238
-0.48707675035152115,-0.48707675035152115
-0.46413953870250974,-0.46413953870250974
-0.46635926886209145,-0.46635926886209145
-0.46413953870250974,-0.46413953870250974
-0.44416196726627394,-0.44416196726627394
-0.42936376620239564,-0.42936376620239564
-0.4508211577450192,-0.4508211577450192
-0.46413953870250974,-0.46413953870250974
-0.4486014275854375,-0.4486014275854375
-0.42936376620239564,-0.42936376620239564
-0.44786151753224357,-0.44786151753224357
-0.46413953870250974,-0.46413953870250974
-0.45156106779821314,-0.45156106779821314
-0.42936376620239564,-0.42936376620239564
-0.4338032265215591,-0.4338032265215591
-0.42936376620239564,-0.42936376620239564
-0.3975476339150572,-0.3975476339150572
-0.3598122212021675,-0.3598122212021675
-0.3501933905106466,-0.3501933905106466
-0.3250364487020534,-0.3250364487020534
-0.2614041841273766,-0.2614041841273766
-0.18593335870159708,-0.18593335870159708
-0.14819794598870734,-0.14819794598870734
-0.11712172375456284,-0.11712172375456284
-0.057928919499049505,-0.057928919499049505
0.021981366245893485,0.021981366245893485
0.07821453028863115,0.07821453028863115
0.12630868374623572,0.12630868374623572
0.1884611282145247,0.1884611282145247
0.26541177374669206,0.26541177374669206
0.31498574731068446,0.31498574731068446
0.3349633187469202,0.3349633187469202
0.3342234086937263,0.3342234086937263
0.3349633187469202,0.3349633187469202
0.33200367853414453,0.33200367853414453
0.3349633187469202,0.3349633187469202
0.3268243081617871,0.3268243081617871
0.3001875462468061,0.3001875462468061
0.24469429225726239,0.24469429225726239
0.1958602287464639,0.1958602287464639
0.16848355677828897,0.16848355677828897
0.1610844562463498,0.1610844562463498
0.13666742449095057,0.13666742449095057
0.09153291124612165,0.09153291124612165
0.04121902762893532,0.04121902762893532
0.021981366245893485,0.021981366245893485
0.0227212762990874,0.0227212762990874
0.021981366245893485,0.021981366245893485
0.00126388475646382,0.00126388475646382
-0.012794406254220595,-0.012794406254220595
-0.015014136413802346,-0.015014136413802346
-0.012794406254220595,-0.012794406254220595
-0.020193506786159762,-0.020193506786159762
-0.012794406254220595,-0.012794406254220595
-0.0031755755626996793,-0.0031755755626996793
-0.012794406254220595,-0.012794406254220595
-0.04609035864794684,-0.04609035864794684
-0.047570178754334676,-0.047570178754334676
-0.017973776626578012,-0.017973776626578012
-0.012794406254220595,-0.012794406254220595
-0.06976748035015218,-0.06976748035015218
-0.11712172375456284,-0.11712172375456284
-0.10972262322262366,-0.10972262322262366
-0.08234595125444875,-0.08234595125444875
-0.09640424226513317,-0.09640424226513317
-0.11712172375456284,-0.11712172375456284
-0.10602307295665409,-0.10602307295665409
-0.08234595125444875,-0.08234595125444875
-0.09566433221193925,-0.09566433221193925
-0.11712172375456284,-0.11712172375456284
-0.11934145391414458,-0.11934145391414458
-0.11712172375456284,-0.11712172375456284
-0.15041767614828908,-0.15041767614828908
-0.18593335870159708,-0.18593335870159708
-0.195552189393118,-0.195552189393118
-0.18593335870159708,-0.18593335870159708
-0.2014714698186693,-0.2014714698186693
-0.22070913120171115,-0.22070913120171115
-0.2266284116272625,-0.2266284116272625
-0.22070913120171115,-0.22070913120171115
-0.2362472423187834,-0.2362472423187834
-0.25548490370182525,-0.25548490370182525
-0.2636239142869583,-0.2636239142869583
-0.25548490370182525,-0.25548490370182525
-0.25696472380821306,-0.25696472380821306
-0.25548490370182525,-0.25548490370182525
-0.24364634285072256,-0.24364634285072256
-0.22070913120171115,-0.22070913120171115
-0.22440868146768073,-0.22440868146768073
-0.25548490370182525,-0.25548490370182525
-0.29174049630832716,-0.29174049630832716
-0.2902606762019393,-0.2902606762019393
-0.26880328465931574,-0.26880328465931574
-0.25548490370182525,-0.25548490370182525
-0.26510373439334617,-0.26510373439334617
-0.25548490370182525,-0.25548490370182525
-0.22884814178684423,-0.22884814178684423
-0.22070913120171115,-0.22070913120171115
-0.25770463386140696,-0.25770463386140696
-0.2902606762019393,-0.2902606762019393
-0.29396022646790887,-0.29396022646790887
-0.2902606762019393,-0.2902606762019393
-0.31393779790414467,-0.31393779790414467
-0.3250364487020534,-0.3250364487020534
-0.3072786074253994,-0.3072786074253994
-0.2902606762019393,-0.2902606762019393
-0.3117180677445629,-0.3117180677445629
-0.3250364487020534,-0.3250364487020534
-0.30653869737220546,-0.30653869737220546
-0.2902606762019393,-0.2902606762019393
-0.3242965386488595,-0.3242965386488595
-0.3598122212021675,-0.3598122212021675
-0.35463285082981005,-0.35463285082981005
-0.3250364487020534,-0.3250364487020534
-0.33243554923399254,-0.33243554923399254
-0.3598122212021675,-0.3598122212021675
-0.372390692106464,-0.372390692106464
-0.3598122212021675,-0.3598122212021675
-0.35907231114897353,-0.35907231114897353
-0.3598122212021675,-0.3598122212021675
-0.34205437992551346,-0.34205437992551346
-0.2902606762019393,-0.2902606762019393
-0.2443862529039165,-0.2443862529039165
-0.22070913120171115,-0.22070913120171115
-0.213310030669772,-0.213310030669772
-0.18593335870159708,-0.18593335870159708
-0.1467181258823195,-0.1467181258823195
-0.11712172375456284,-0.11712172375456284
-0.11490199359498109,-0.11490199359498109
-0.11712172375456284,-0.11712172375456284
-0.115641903648175,-0.115641903648175
-0.11712172375456284,-0.11712172375456284
-0.12748046449927766,-0.12748046449927766
-0.11712172375456284,-0.11712172375456284
-0.09048496183958184,-0.09048496183958184
-0.08234595125444875,-0.08234595125444875
-0.10898271316942976,-0.10898271316942976
-0.11712172375456284,-0.11712172375456284
-0.08234595125444875,-0.08234595125444875
-0.047570178754334676,-0.047570178754334676
-0.07642667082889743,-0.07642667082889743
-0.151157586201483,-0.151157586201483
-0.22958805184003817,-0.22958805184003817
-0.2902606762019393,-0.2902606762019393
-0.36425168152133097,-0.36425168152133097
-0.42936376620239564,-0.42936376620239564
-0.4804175598727759,-0.4804175598727759
-0.4989153112026238,-0.4989153112026238
-0.5196327926920534,-0.5196327926920534
-0.5336910837027379,-0.5336910837027379
-0.5396103641282892,-0.5396103641282892
-0.5336910837027379,-0.5336910837027379
-0.5344309937559318,-0.5344309937559318
-0.5336910837027379,-0.5336910837027379
-0.5484892847666162,-0.5484892847666162
-0.6032426287029661,-0.6032426287029661
-0.6883322848202664,-0.6883322848202664
-0.7416058086502284,-0.7416058086502284
-0.7652829303524338,-0.7652829303524338
-0.7763815811503425,-0.7763815811503425
-0.6624354329584794,-0.6624354329584794
-0.18593335870159708,-0.18593335870159708
0.7041784352906846,0.7041784352906846
1.862877578592358,1.862877578592358
3.1688188224796208,3.1688188224796208
4.467360965834945,4.467360965834945
5.165096145996808,5.165096145996808
4.536912510835172,4.536912510835172
2.6989759387014836,2.6989759387014836
0.8210842236953234,0.8210842236953234
-0.11786163380775674,-0.11786163380775674
-0.2902606762019393,-0.2902606762019393
-0.44342205721308003,-0.44342205721308003
-0.7763815811503425,-0.7763815811503425
-0.9902155865233844,-0.9902155865233844
-0.985036216151027,-0.985036216151027
-0.9902155865233844,-0.9902155865233844
-1.0893635336513692,-1.0893635336513692
-1.1529957982260461,-1.1529957982260461
-1.1241393061514833,-1.1241393061514833
-1.1026819146088598,-1.1026819146088598
-1.1241393061514833,-1.1241393061514833
-1.1300585865770347,-1.1300585865770347
-1.0893635336513692,-1.0893635336513692
-1.055327671204449,-1.055327671204449
-1.054587761151255,-1.054587761151255
-1.082704343172624,-1.082704343172624
-1.0893635336513692,-1.0893635336513692
-1.0804846130130423,-1.0804846130130423
-1.054587761151255,-1.054587761151255
-1.0397895600873768,-1.0397895600873768
-1.019811988651141,-1.019811988651141
-0.9976146870553235,-0.9976146870553235
-0.985036216151027,-0.985036216151027
-0.9924353166829661,-0.9924353166829661
-0.985036216151027,-0.985036216151027
-0.9606191843956278,-0.9606191843956278
-0.9502604436509129,-0.9502604436509129
-0.9731976552999243,-0.9731976552999243
-0.985036216151027,-0.985036216151027
-0.9657985547679852,-0.9657985547679852
-0.9502604436509129,-0.9502604436509129
-0.9717178351935365,-0.9717178351935365
-0.985036216151027,-0.985036216151027
-0.957659544182852,-0.957659544182852
-0.9154846711507988,-0.9154846711507988
-0.9080855706188596,-0.9080855706188596
-0.9154846711507988,-0.9154846711507988
-0.9147447610976049,-0.9147447610976049
-0.9154846711507988,-0.9154846711507988
-0.9295429621614832,-0.9295429621614832
-0.9154846711507988,-0.9154846711507988
-0.8703501579059699,-0.8703501579059699
-0.8459331261505707,-0.8459331261505707
-0.8821887187570726,-0.8821887187570726
-0.9154846711507988,-0.9154846711507988
-0.9043860203528901,-0.9043860203528901
-0.8807088986506848,-0.8807088986506848
-0.8984667399273387,-0.8984667399273387
-0.9154846711507988,-0.9154846711507988
-0.8910676393953996,-0.8910676393953996
-0.8459331261505707,-0.8459331261505707
-0.8385340256186316,-0.8385340256186316
-0.8459331261505707,-0.8459331261505707
-0.8370542055122436,-0.8370542055122436
-0.8111573536504566,-0.8111573536504566
-0.8000587028525479,-0.8000587028525479
-0.7763815811503425,-0.7763815811503425
-0.7282874276927379,-0.7282874276927379
-0.6727941737031942,-0.6727941737031942
-0.6402381313626618,-0.6402381313626618
-0.6032426287029661,-0.6032426287029661
-0.5396103641282892,-0.5396103641282892
-0.46413953870250974,-0.46413953870250974
-0.4116059249257416,-0.4116059249257416
-0.3598122212021675,-0.3598122212021675
-0.284341395776388,-0.284341395776388
-0.18593335870159708,-0.18593335870159708
-0.10750289306304192,-0.10750289306304192
-0.047570178754334676,-0.047570178754334676
0.013102445607566486,0.013102445607566486
0.09153291124612165,0.09153291124612165
0.15886472608676805,0.15886472608676805
0.1958602287464639,0.1958602287464639
0.19734004885285172,0.19734004885285172
0.1958602287464639,0.1958602287464639
0.19734004885285172,0.19734004885285172
0.1958602287464639,0.1958602287464639
0.17736247741661595,0.17736247741661595
0.1610844562463498,0.1610844562463498
0.14554634512927755,0.14554634512927755
0.12630868374623572,0.12630868374623572
0.09745219167167297,0.09745219167167297
0.09153291124612165,0.09153291124612165
0.09893201177806081,0.09893201177806081
0.09153291124612165,0.09153291124612165
0.058976868905589314,0.058976868905589314
0.05675713874600757,0.05675713874600757
0.0848737207673764,0.0848737207673764
0.09153291124612165,0.09153291124612165
0.04565848794809881,0.04565848794809881
0.021981366245893485,0.021981366245893485
0.05527731863961973,0.05527731863961973
0.09153291124612165,0.09153291124612165
0.06193650911836498,0.06193650911836498
0.021981366245893485,0.021981366245893485
0.0360396572565779,0.0360396572565779
0.09153291124612165,0.09153291124612165
0.10855084246958173,0.10855084246958173
0.09153291124612165,0.09153291124612165
0.07821453028863115,0.07821453028863115
0.09153291124612165,0.09153291124612165
0.09523246151209122,0.09523246151209122
0.09153291124612165,0.09153291124612165
0.08635354087376423,0.08635354087376423
0.09153291124612165,0.09153291124612165
0.08931318108653989,0.08931318108653989
0.09153291124612165,0.09153291124612165
0.10041183188444865,0.10041183188444865
0.12630868374623572,0.12630868374623572
0.14628625518247146,0.14628625518247146
0.1610844562463498,0.1610844562463498
0.17144319699106464,0.17144319699106464
0.1958602287464639,0.1958602287464639
0.20843869965076045,0.20843869965076045
0.1958602287464639,0.1958602287464639
0.16330418640593156,0.16330418640593156
0.1610844562463498,0.1610844562463498
0.1832817578421673,0.1832817578421673
0.1958602287464639,0.1958602287464639
0.18106202768258556,0.18106202768258556
0.1958602287464639,0.1958602287464639
0.24173465204448671,0.24173465204448671
0.26541177374669206,0.26541177374669206
0.22545663087422055,0.22545663087422055
0.1958602287464639,0.1958602287464639
0.22101717055505704,0.22101717055505704
0.26541177374669206,0.26541177374669206
0.25653285310836504,0.25653285310836504
0.23063600124657796,0.23063600124657796
0.23433555151254754,0.23433555151254754
0.26541177374669206,0.26541177374669206
0.26985123406585554,0.26985123406585554
0.26541177374669206,0.26541177374669206
0.275030604438213,0.275030604438213
0.3001875462468061,0.3001875462468061
0.3031471864595818,0.3031471864595818
0.3001875462468061,0.3001875462468061
0.2979678160872244,0.2979678160872244
0.3001875462468061,0.3001875462468061
0.2905687155552852,0.2905687155552852
0.3001875462468061,0.3001875462468061
0.3231247578958175,0.3231247578958175
0.3349633187469202,0.3349633187469202
0.3112861970447149,0.3112861970447149
0.3001875462468061,0.3001875462468061
0.31646556741707227,0.31646556741707227
0.3349633187469202,0.3349633187469202
0.30610682667235745,0.30610682667235745
0.26541177374669206,0.26541177374669206
0.24913375257642587,0.24913375257642587
0.26541177374669206,0.26541177374669206
0.26985123406585554,0.26985123406585554
0.26541177374669206,0.26541177374669206
0.2587525832679468,0.2587525832679468
0.26541177374669206,0.26541177374669206
0.2646718636934981,0.2646718636934981
0.26541177374669206,0.26541177374669206
0.2624521335339164,0.2624521335339164
0.26541177374669206,0.26541177374669206
0.2594924933211407,0.2594924933211407
0.26541177374669206,0.26541177374669206
0.2876090753425095,0.2876090753425095
0.3349633187469202,0.3349633187469202
0.3756583716725856,0.3756583716725856
0.40451486374714835,0.40451486374714835
0.41561351454505713,0.41561351454505713
0.43855072619406854,0.43855072619406854
0.4703668584814069,0.4703668584814069
0.5081022711942966,0.5081022711942966
0.5384385833752473,0.5384385833752473
0.5776538161945248,0.5776538161945248
0.6072502183222815,0.6072502183222815
0.6124295886946389,0.6124295886946389
0.5865327368328518,0.5865327368328518
0.5776538161945248,0.5776538161945248
0.5931919273115971,0.5931919273115971
0.6124295886946389,0.6124295886946389
0.6072502183222815,0.6072502183222815
0.6124295886946389,0.6124295886946389
0.6361067103968443,0.6361067103968443
0.647205361194753,0.647205361194753
0.5961515675243727,0.5961515675243727
0.5081022711942966,0.5081022711942966
0.41487360449186317,0.41487360449186317
0.3349633187469202,0.3349633187469202
0.24913375257642587,0.24913375257642587
0.1958602287464639,0.1958602287464639
0.16774364672509506,0.16774364672509506
0.1610844562463498,0.1610844562463498
0.13740733454414447,0.13740733454414447
0.12630868374623572,0.12630868374623572
0.12704859379942965,0.12704859379942965
0.12630868374623572,0.12630868374623572
0.10115174193764256,0.10115174193764256
0.09153291124612165,0.09153291124612165
0.10115174193764256,0.10115174193764256
0.09153291124612165,0.09153291124612165
0.014582265713954318,0.014582265713954318
-0.08234595125444875,-0.08234595125444875
-0.13709929519079858,-0.13709929519079858
-0.11712172375456284,-0.11712172375456284
-0.010574676094638845,-0.010574676094638845
0.3001875462468061,0.3001875462468061
0.9794249750788215,0.9794249750788215
2.1063079860931566,2.1063079860931566
3.4647828437571873,3.4647828437571873
4.571688283335287,4.571688283335287
4.867652304612853,4.867652304612853
4.1551189233871115,4.1551189233871115
2.802563346148632,2.802563346148632
1.515859763644411,1.515859763644411
0.727115646939696,0.727115646939696
0.3697390912470343,0.3697390912470343
0.13814724459733838,0.13814724459733838
-0.08234595125444875,-0.08234595125444875
-0.2451261629571104,-0.2451261629571104
-0.3250364487020534,-0.3250364487020534
-0.39384808364908763,-0.39384808364908763
-0.46413953870250974,-0.46413953870250974
-0.4944758508834603,-0.4944758508834603
-0.46413953870250974,-0.46413953870250974
-0.4412023270534983,-0.4412023270534983
-0.46413953870250974,-0.46413953870250974
-0.5055745016813691,-0.5055745016813691
-0.4989153112026238,-0.4989153112026238
-0.4574803482237645,-0.4574803482237645
-0.42936376620239564,-0.42936376620239564
-0.45156106779821314,-0.45156106779821314
-0.46413953870250974,-0.46413953870250974
-0.45304088790460095,-0.45304088790460095
-0.42936376620239564,-0.42936376620239564
-0.435283046627947,-0.435283046627947
-0.42936376620239564,-0.42936376620239564
-0.39458799370228154,-0.39458799370228154
-0.3598122212021675,-0.3598122212021675
-0.372390692106464,-0.372390692106464
-0.39458799370228154,-0.39458799370228154
-0.3886687132767302,-0.3886687132767302
-0.3598122212021675,-0.3598122212021675
-0.35463285082981005,-0.35463285082981005
-0.3598122212021675,-0.3598122212021675
-0.3516732106170344,-0.3516732106170344
-0.3250364487020534,-0.3250364487020534
-0.3080185174785933,-0.3080185174785933
-0.2902606762019393,-0.2902606762019393
-0.27028310476570355,-0.27028310476570355
-0.25548490370182525,-0.25548490370182525
-0.27028310476570355,-0.27028310476570355
-0.2902606762019393,-0.2902606762019393
-0.2983996867870724,-0.2983996867870724
-0.2902606762019393,-0.2902606762019393
-0.2895207661487454,-0.2895207661487454
-0.2902606762019393,-0.2902606762019393
-0.29248040636152106,-0.29248040636152106
-0.2902606762019393,-0.2902606762019393
-0.29396022646790887,-0.29396022646790887
-0.2902606762019393,-0.2902606762019393
-0.2873010359891636,-0.2873010359891636
-0.2902606762019393,-0.2902606762019393
-0.3124579777977568,-0.3124579777977568
-0.3250364487020534,-0.3250364487020534
-0.31763734817011424,-0.31763734817011424
-0.2902606762019393,-0.2902606762019393
-0.27990193545722447,-0.27990193545722447
-0.2902606762019393,-0.2902606762019393
-0.3161575280637264,-0.3161575280637264
-0.3250364487020534,-0.3250364487020534
-0.31763734817011424,-0.31763734817011424
-0.2902606762019393,-0.2902606762019393
-0.25992436402098873,-0.25992436402098873
-0.22070913120171115,-0.22070913120171115
-0.18741317880798491,-0.18741317880798491
-0.151157586201483,-0.151157586201483
-0.11268226343539933,-0.11268226343539933
-0.047570178754334676,-0.047570178754334676
0.026420826565056985,0.026420826565056985
0.09153291124612165,0.09153291124612165
0.13592751443775664,0.13592751443775664
0.1958602287464639,0.1958602287464639
0.26911132401266163,0.26911132401266163
0.3349633187469202,0.3349633187469202
0.36677945103425863,0.36677945103425863
0.40451486374714835,0.40451486374714835
0.4585282976303043,0.4585282976303043
0.5081022711942966,0.5081022711942966
0.5169811918326237,0.5169811918326237
0.5081022711942966,0.5081022711942966
0.4955238002900001,0.4955238002900001
0.4733264986941826,0.4733264986941826
0.4289318955025476,0.4289318955025476
0.40451486374714835,0.40451486374714835
0.4067345939067301,0.4067345939067301
0.40451486374714835,0.40451486374714835
0.35494089018315594,0.35494089018315594
0.3001875462468061,0.3001875462468061
0.2728108742786312,0.2728108742786312
0.26541177374669206,0.26541177374669206
0.2328557314061597,0.2328557314061597
0.1958602287464639,0.1958602287464639
0.18106202768258556,0.18106202768258556
0.1958602287464639,0.1958602287464639
0.19955977901243346,0.19955977901243346
0.1958602287464639,0.1958602287464639
0.18994094832091254,0.18994094832091254
0.1958602287464639,0.1958602287464639
0.18476157794855513,0.18476157794855513
0.1610844562463498,0.1610844562463498
0.13148805411859313,0.13148805411859313
0.12630868374623572,0.12630868374623572
0.13740733454414447,0.13740733454414447
0.1610844562463498,0.1610844562463498
0.17736247741661595,0.17736247741661595
0.1958602287464639,0.1958602287464639
0.20251941922520914,0.20251941922520914
0.1958602287464639,0.1958602287464639
0.1699633768846768,0.1699633768846768
0.1610844562463498,0.1610844562463498
0.17292301709745247,0.17292301709745247
0.1958602287464639,0.1958602287464639
0.19881986895923956,0.19881986895923956
0.1958602287464639,0.1958602287464639
0.1921606784804943,0.1921606784804943
0.1958602287464639,0.1958602287464639
0.19290058853368822,0.19290058853368822
0.1958602287464639,0.1958602287464639
0.18698130810813687,0.18698130810813687
0.1610844562463498,0.1610844562463498
0.12334904353346006,0.12334904353346006
0.12630868374623572,0.12630868374623572
0.1655239165655133,0.1655239165655133
0.1958602287464639,0.1958602287464639
0.16848355677828897,0.16848355677828897
0.12630868374623572,0.12630868374623572
0.11077057262916347,0.11077057262916347
0.12630868374623572,0.12630868374623572
0.1300082340122053,0.1300082340122053
0.12630868374623572,0.12630868374623572
0.12260913348026614,0.12260913348026614
0.12630868374623572,0.12630868374623572
0.12038940332068439,0.12038940332068439
0.12630868374623572,0.12630868374623572
0.14332661496969581,0.14332661496969581
0.1610844562463498,0.1610844562463498
0.1573849059803802,0.1573849059803802
0.1610844562463498,0.1610844562463498
0.17736247741661595,0.17736247741661595
0.1958602287464639,0.1958602287464639
0.19290058853368822,0.19290058853368822
0.1958602287464639,0.1958602287464639
0.2017795091720152,0.2017795091720152
0.1958602287464639,0.1958602287464639
0.16626382661870723,0.16626382661870723
0.1610844562463498,0.1610844562463498
0.1832817578421673,0.1832817578421673
0.1958602287464639,0.1958602287464639
0.15886472608676805,0.15886472608676805
0.12630868374623572,0.12630868374623572
0.13296787422498096,0.13296787422498096
0.1610844562463498,0.1610844562463498
0.1522055356080228,0.1522055356080228
0.12630868374623572,0.12630868374623572
0.11447012289513306,0.11447012289513306
0.12630868374623572,0.12630868374623572
0.11668985305471481,0.11668985305471481
0.09153291124612165,0.09153291124612165
0.07377506996946764,0.07377506996946764
0.09153291124612165,0.09153291124612165
0.11521003294832698,0.11521003294832698
0.12630868374623572,0.12630868374623572
0.10855084246958173,0.10855084246958173
0.09153291124612165,0.09153291124612165
0.09079300119292773,0.09079300119292773
0.12630868374623572,0.12630868374623572
0.1781023874698099,0.1781023874698099
0.23063600124657796,0.23063600124657796
0.25653285310836504,0.25653285310836504
0.26541177374669206,0.26541177374669206
0.26911132401266163,0.26911132401266163
0.3001875462468061,0.3001875462468061
0.3497615198107985,0.3497615198107985
0.40451486374714835,0.40451486374714835
0.43115162566212933,0.43115162566212933
0.43855072619406854,0.43855072619406854
0.43485117592809897,0.43485117592809897
0.43855072619406854,0.43855072619406854
0.43855072619406854,0.43855072619406854
0.43855072619406854,0.43855072619406854
0.434111265874905,0.434111265874905
0.43855072619406854,0.43855072619406854
0.4415103664068442,0.4415103664068442
0.43855072619406854,0.43855072619406854
0.41265387433228146,0.41265387433228146
0.3697390912470343,0.3697390912470343
0.31424583725749056,0.31424583725749056
0.26541177374669206,0.26541177374669206
0.20251941922520914,0.20251941922520914
0.12630868374623572,0.12630868374623572
0.03677956730977182,0.03677956730977182
-0.012794406254220595,-0.012794406254220595
-0.03647152795642593,-0.03647152795642593
-0.047570178754334676,-0.047570178754334676
-0.07420694066931567,-0.07420694066931567
-0.08234595125444875,-0.08234595125444875
-0.0668078401373765,-0.0668078401373765
-0.047570178754334676,-0.047570178754334676
-0.06976748035015218,-0.06976748035015218
-0.11712172375456284,-0.11712172375456284
-0.14967776609509517,-0.14967776609509517
-0.151157586201483,-0.151157586201483
-0.18741317880798491,-0.18741317880798491
-0.2902606762019393,-0.2902606762019393
-0.399767364074639,-0.399767364074639
-0.3598122212021675,-0.3598122212021675
-0.07420694066931567,-0.07420694066931567
0.5081022711942966,0.5081022711942966
1.427070557261141,1.427070557261141
2.661980436041788,2.661980436041788
3.896150404769241,3.896150404769241
4.571688283335287,4.571688283335287
4.271284801738556,4.271284801738556
3.1481013409901912,3.1481013409901912
1.7970255838580993,1.7970255838580993
0.7863084511952093,0.7863084511952093
0.25653285310836504,0.25653285310836504
0.021981366245893485,0.021981366245893485
-0.15041767614828908,-0.15041767614828908
-0.3250364487020534,-0.3250364487020534
-0.47449827944722456,-0.47449827944722456
-0.568466856202852,-0.568466856202852
-0.6320991207775287,-0.6320991207775287
-0.6727941737031942,-0.6727941737031942
-0.6868524647138786,-0.6868524647138786
-0.6727941737031942,-0.6727941737031942
-0.6639152530648672,-0.6639152530648672
-0.6727941737031942,-0.6727941737031942
-0.6861125546606847,-0.6861125546606847
-0.6727941737031942,-0.6727941737031942
-0.6513367821605706,-0.6513367821605706
-0.6380184012030801,-0.6380184012030801
-0.647637231894601,-0.647637231894601
-0.6380184012030801,-0.6380184012030801
-0.6187807398200382,-0.6187807398200382
-0.6032426287029661,-0.6032426287029661
-0.6113816392880991,-0.6113816392880991
-0.6032426287029661,-0.6032426287029661
-0.568466856202852,-0.568466856202852
-0.5336910837027379,-0.5336910837027379
-0.5329511736495439,-0.5329511736495439
-0.5336910837027379,-0.5336910837027379
-0.5159332424260838,-0.5159332424260838
-0.4989153112026238,-0.4989153112026238
-0.51519333237289,-0.51519333237289
-0.5336910837027379,-0.5336910837027379
-0.5255520731176048,-0.5255520731176048
-0.4989153112026238,-0.4989153112026238
-0.4841171101387455,-0.4841171101387455
-0.46413953870250974,-0.46413953870250974
-0.43898259689391655,-0.43898259689391655
-0.42936376620239564,-0.42936376620239564
-0.45304088790460095,-0.45304088790460095
-0.46413953870250974,-0.46413953870250974
-0.4463816974258557,-0.4463816974258557
-0.42936376620239564,-0.42936376620239564
-0.4486014275854375,-0.4486014275854375
-0.46413953870250974,-0.46413953870250974
-0.4500812476918253,-0.4500812476918253
-0.42936376620239564,-0.42936376620239564
-0.44416196726627394,-0.44416196726627394
-0.46413953870250974,-0.46413953870250974
-0.45674043817057053,-0.45674043817057053
-0.42936376620239564,-0.42936376620239564
-0.4345431365747531,-0.4345431365747531
-0.46413953870250974,-0.46413953870250974
-0.4818973799791637,-0.4818973799791637
-0.46413953870250974,-0.46413953870250974
-0.4500812476918253,-0.4500812476918253
-0.46413953870250974,-0.46413953870250974
-0.49669558104304207,-0.49669558104304207
-0.4989153112026238,-0.4989153112026238
-0.4685789990216732,-0.4685789990216732
-0.42936376620239564,-0.42936376620239564
-0.4138256550853234,-0.4138256550853234
-0.39458799370228154,-0.39458799370228154
-0.35315303072342225,-0.35315303072342225
-0.2902606762019393,-0.2902606762019393
-0.23698715237197732,-0.23698715237197732
-0.18593335870159708,-0.18593335870159708
-0.13561947508441075,-0.13561947508441075
-0.08234595125444875,-0.08234595125444875
-0.03573161790323201,-0.03573161790323201
0.021981366245893485,0.021981366245893485
0.08191408055460073,0.08191408055460073
0.12630868374623572,0.12630868374623572
0.15072571550163497,0.15072571550163497
0.1958602287464639,0.1958602287464639
0.2498736626296198,0.2498736626296198
0.26541177374669206,0.26541177374669206
0.2232369007146388,0.2232369007146388
0.1958602287464639,0.1958602287464639
0.2143579800763118,0.2143579800763118
0.23063600124657796,0.23063600124657796
0.18550148800174904,0.18550148800174904
0.12630868374623572,0.12630868374623572
0.09967192183125473,0.09967192183125473
0.09153291124612165,0.09153291124612165
0.05675713874600757,0.05675713874600757
0.021981366245893485,0.021981366245893485
0.006443255128821236,0.006443255128821236
-0.012794406254220595,-0.012794406254220595
-0.06902757029695826,-0.06902757029695826
-0.11712172375456284,-0.11712172375456284
-0.12378091423330809,-0.12378091423330809
-0.11712172375456284,-0.11712172375456284
-0.15855668673342216,-0.15855668673342216
-0.22070913120171115,-0.22070913120171115
-0.24808580316988607,-0.24808580316988607
-0.22070913120171115,-0.22070913120171115
-0.2014714698186693,-0.2014714698186693
-0.22070913120171115,-0.22070913120171115
-0.25770463386140696,-0.25770463386140696
-0.25548490370182525,-0.25548490370182525
-0.22884814178684423,-0.22884814178684423
-0.22070913120171115,-0.22070913120171115
-0.25770463386140696,-0.25770463386140696
-0.2902606762019393,-0.2902606762019393
-0.29544004657429673,-0.29544004657429673
-0.2902606762019393,-0.2902606762019393
-0.31911716827650205,-0.31911716827650205
-0.3598122212021675,-0.3598122212021675
-0.3864489831171485,-0.3864489831171485
-0.39458799370228154,-0.39458799370228154
-0.41308574503212947,-0.41308574503212947
-0.42936376620239564,-0.42936376620239564
-0.4338032265215591,-0.4338032265215591
-0.42936376620239564,-0.42936376620239564
-0.44268214715988613,-0.44268214715988613
-0.46413953870250974,-0.46413953870250974
-0.4937359408302664,-0.4937359408302664
-0.5336910837027379,-0.5336910837027379
-0.5825251472135363,-0.5825251472135363
-0.6032426287029661,-0.6032426287029661
-0.5980632583306086,-0.5980632583306086
-0.6032426287029661,-0.6032426287029661
-0.6424578615222436,-0.6424578615222436
-0.6727941737031942,-0.6727941737031942
-0.6727941737031942,-0.6727941737031942
-0.6727941737031942,-0.6727941737031942
-0.7075699462033083,-0.7075699462033083
-0.7416058086502284,-0.7416058086502284
-0.7482649991289737,-0.7482649991289737
-0.7416058086502284,-0.7416058086502284
-0.7586237398736885,-0.7586237398736885
-0.7763815811503425,-0.7763815811503425
-0.7763815811503425,-0.7763815811503425
-0.7763815811503425,-0.7763815811503425
-0.8089376234908748,-0.8089376234908748
-0.8459331261505707,-0.8459331261505707
-0.8562918668952855,-0.8562918668952855
-0.8459331261505707,-0.8459331261505707
-0.8555519568420916,-0.8555519568420916
-0.8807088986506848,-0.8807088986506848
-0.9036461102996962,-0.9036461102996962
-0.9154846711507988,-0.9154846711507988
-0.9332425124274528,-0.9332425124274528
-0.9502604436509129,-0.9502604436509129
-0.967278374874373,-0.967278374874373
-0.985036216151027,-0.985036216151027
-1.0079734278000383,-1.0079734278000383
-1.019811988651141,-1.019811988651141
-1.028690909289468,-1.028690909289468
-1.054587761151255,-1.054587761151255
-1.109341105087605,-1.109341105087605
-1.1589150786515974,-1.1589150786515974
-1.1825922003538027,-1.1825922003538027
-1.1936908511517115,-1.1936908511517115
-1.2225473432262741,-1.2225473432262741
-1.2625024860987457,-1.2625024860987457
-1.2913589781733084,-1.2913589781733084
-1.2972782585988598,-1.2972782585988598
-1.3068970892903806,-1.3068970892903806
-1.332054031098974,-1.332054031098974
-1.3623903432799245,-1.3623903432799245
-1.366829803599088,-1.366829803599088
-1.3505517824288218,-1.3505517824288218
-1.332054031098974,-1.332054031098974
-1.3209553803010652,-1.3209553803010652
-1.2972782585988598,-1.2972782585988598
-1.268421766524297,-1.268421766524297
-1.2625024860987457,-1.2625024860987457
-1.2876594279073388,-1.2876594279073388
-1.2972782585988598,-1.2972782585988598
-1.27656077710943,-1.27656077710943
-1.2625024860987457,-1.2625024860987457
-1.2928387982796963,-1.2928387982796963
-1.332054031098974,-1.332054031098974
-1.3409329517373008,-1.3409329517373008
-1.332054031098974,-1.332054031098974
-1.3431526818968826,-1.3431526818968826
-1.366829803599088,-1.366829803599088
-1.384587644875742,-1.384587644875742
-1.401605576099202,-1.401605576099202
-1.4349015284929283,-1.4349015284929283
-1.47115712109943,-1.47115712109943
-1.50889253381232,-1.50889253381232
-1.5754844385997724,-1.5754844385997724
-1.6820314862596963,-1.6820314862596963
-1.784139073600457,-1.784139073600457
-1.8477713381751337,-1.8477713381751337
-1.8877264810476053,-1.8877264810476053
-1.9550582958882516,-1.9550582958882516
-2.0268295710480615,-2.0268295710480615
-2.0786232747716356,-2.0786232747716356
-2.0963811160482897,-2.0963811160482897
-2.1074797668461986,-2.1074797668461986
-2.1311568885484036,-2.1311568885484036
-2.165932661048518,-2.165932661048518
-2.2007084335486318,-2.2007084335486318
-2.2406635764211034,-2.2406635764211034
-2.3050357510489743,-2.3050357510489743
-2.3819863965811416,-2.3819863965811416
-2.4433989309962367,-2.4433989309962367
-2.504071555358138,-2.504071555358138
-2.5825020209966927,-2.5825020209966927
-2.561784539507263,-2.561784539507263
-2.235484206048746,-2.235484206048746
-1.525170554982586,-1.525170554982586
-0.4989153112026238,-0.4989153112026238
0.8196044035889356,0.8196044035889356
2.279446938540533,2.279446938540533
3.228011626735134,3.228011626735134
2.835119388489164,2.835119388489164
1.1311065359835744,1.1311065359835744
-0.7763815811503425,-0.7763815811503425
-1.8640493593454,-1.8640493593454
-2.2007084335486318,-2.2007084335486318
-2.4352599204111036,-2.4352599204111036
-2.7911566559973773,-2.7911566559973773
-3.0331072433917883,-3.0331072433917883
-3.10339869844521,-3.10339869844521
-3.1818291640837653,-3.1818291640837653
-3.3120533334458946,-3.3120533334458946
-3.3675465874354384,-3.3675465874354384
-3.346829105946009,-3.346829105946009
-3.346829105946009,-3.346829105946009
-3.381604878446123,-3.381604878446123
-3.386044338765286,-3.386044338765286
-3.381604878446123,-3.381604878446123
-3.4141609207866552,-3.4141609207866552
-3.451156423446351,-3.451156423446351
-3.443757322914412,-3.443757322914412
-3.4163806509462367,-3.4163806509462367
-3.4259994816377577,-3.4259994816377577
-3.451156423446351,-3.451156423446351
-3.4563357938187083,-3.4563357938187083
-3.451156423446351,-3.451156423446351
-3.460035344084678,-3.460035344084678
-3.485932195946465,-3.485932195946465
-3.503690037223119,-3.503690037223119
-3.5199680583933852,-3.5199680583933852
-3.539945629829621,-3.539945629829621
-3.554743830893499,-3.554743830893499
-3.5510442806275297,-3.5510442806275297
-3.554743830893499,-3.554743830893499
-3.5828604129148682,-3.5828604129148682
-3.6242953758937273,-3.6242953758937273
-3.637613756851218,-3.637613756851218
-3.6242953758937273,-3.6242953758937273
-3.610237084883043,-3.610237084883043
-3.6242953758937273,-3.6242953758937273
-3.6479724975959327,-3.6479724975959327
-3.6590711483938416,-3.6590711483938416
-3.6420532171703814,-3.6420532171703814
-3.6242953758937273,-3.6242953758937273
-3.627255016106503,-3.627255016106503
-3.6590711483938416,-3.6590711483938416
-3.6871877304152103,-3.6871877304152103
-3.6938469208939555,-3.6938469208939555
-3.6842280902024345,-3.6842280902024345
-3.6938469208939555,-3.6938469208939555
-3.726402963234488,-3.726402963234488
-3.7633984658941837,-3.7633984658941837
-3.7730172965857047,-3.7730172965857047
-3.7633984658941837,-3.7633984658941837
-3.7545195452558566,-3.7545195452558566
-3.7633984658941837,-3.7633984658941837
-3.770057656372929,-3.770057656372929
-3.7633984658941837,-3.7633984658941837
-3.7515599050430812,-3.7515599050430812
-3.7633984658941837,-3.7633984658941837
-3.77967648706445,-3.77967648706445
-3.7633984658941837,-3.7633984658941837
-3.707165301851446,-3.707165301851446
-3.6590711483938416,-3.6590711483938416
-3.6309545663724725,-3.6309545663724725
-3.5895196033936134,-3.5895196033936134
-3.514048777967834,-3.514048777967834
-3.451156423446351,-3.451156423446351
-3.4200802012122065,-3.4200802012122065
-3.381604878446123,-3.381604878446123
-3.2942954921692404,-3.2942954921692404
-3.2077260159455525,-3.2077260159455525
-3.164071322807111,-3.164071322807111
-3.1381744709453243,-3.1381744709453243
-3.0752821164238413,-3.0752821164238413
-2.999071380944868,-2.999071380944868
-2.9502373174340693,-2.9502373174340693
-2.9302597459978337,-2.9302597459978337
-2.9065826242956283,-2.9065826242956283
-2.89548397349772,-2.89548397349772
-2.9080624444020162,-2.9080624444020162
-2.9302597459978337,-2.9302597459978337
-2.9295198359446397,-2.9295198359446397
-2.9302597459978337,-2.9302597459978337
-2.955416687806427,-2.955416687806427
-2.999071380944868,-2.999071380944868
-3.024228322753461,-3.024228322753461
-3.033847153444982,-3.033847153444982
-3.0449458042428907,-3.0449458042428907
-3.068622925945096,-3.068622925945096
-3.0886004973813317,-3.0886004973813317
-3.10339869844521,-3.10339869844521
-3.1181968995090883,-3.1181968995090883
-3.1381744709453243,-3.1381744709453243
-3.1470533915836514,-3.1470533915836514
-3.1381744709453243,-3.1381744709453243
-3.1263359100942214,-3.1263359100942214
-3.1381744709453243,-3.1381744709453243
-3.164071322807111,-3.164071322807111
-3.172950243445438,-3.172950243445438
-3.1529726720092026,-3.1529726720092026
-3.1381744709453243,-3.1381744709453243
-3.1418740212112937,-3.1418740212112937
-3.1381744709453243,-3.1381744709453243
-3.104878518551598,-3.104878518551598
-3.068622925945096,-3.068622925945096
-3.050865084668442,-3.050865084668442
-3.033847153444982,-3.033847153444982
-2.996111740732092,-2.996111740732092
-2.964295608444754,-2.964295608444754
-2.9605960581787842,-2.9605960581787842
-2.964295608444754,-2.964295608444754
-2.947277677221294,-2.947277677221294
-2.9302597459978337,-2.9302597459978337
-2.9295198359446397,-2.9295198359446397
-2.9302597459978337,-2.9302597459978337
-2.909542264508404,-2.909542264508404
-2.89548397349772,-2.89548397349772
-2.8977037036573012,-2.8977037036573012
-2.89548397349772,-2.89548397349772
-2.8703270316891265,-2.8703270316891265
-2.8607082009976055,-2.8607082009976055
-2.882165592540229,-2.882165592540229
-2.89548397349772,-2.89548397349772
-2.8636678412103813,-2.8636678412103813
-2.8259324284974916,-2.8259324284974916
-2.82001314807194,-2.82001314807194
-2.8259324284974916,-2.8259324284974916
-2.7985557565293164,-2.7985557565293164
-2.7563808834972634,-2.7563808834972634
-2.740842772380191,-2.740842772380191
-2.7563808834972634,-2.7563808834972634
-2.765999714188784,-2.765999714188784
-2.7563808834972634,-2.7563808834972634
-2.7378831321674153,-2.7378831321674153
-2.721605110997149,-2.721605110997149
-2.7038472697204954,-2.7038472697204954
-2.686829338497035,-2.686829338497035
-2.670551317326769,-2.670551317326769
-2.652053565996921,-2.652053565996921
-2.6305961744542974,-2.6305961744542974
-2.617277793496807,-2.617277793496807
-2.606179142698898,-2.606179142698898
-2.5825020209966927,-2.5825020209966927
-2.5425468781242215,-2.5425468781242215
-2.512950475996465,-2.512950475996465
-2.508511015677301,-2.508511015677301
-2.512950475996465,-2.512950475996465
-2.501851825198556,-2.501851825198556
-2.4781747034963506,-2.4781747034963506
-2.457457222006921,-2.457457222006921
-2.4433989309962367,-2.4433989309962367
-2.4278608198791645,-2.4278608198791645
-2.4086231584961224,-2.4086231584961224
-2.3916052272726622,-2.3916052272726622
-2.3745872960492025,-2.3745872960492025
-2.3546097246129665,-2.3546097246129665
-2.339811523549088,-2.339811523549088
-2.336111973283119,-2.336111973283119
-2.339811523549088,-2.339811523549088
-2.330932602910761,-2.330932602910761
-2.3050357510489743,-2.3050357510489743
-2.277659079080799,-2.277659079080799
-2.27025997854886,-2.27025997854886
-2.2680402483892785,-2.2680402483892785
-2.235484206048746,-2.235484206048746
-2.166672571101712,-2.166672571101712
-2.0963811160482897,-2.0963811160482897
-2.0445874123247156,-2.0445874123247156
-1.9920537985479474,-1.9920537985479474
-1.9321210842392402,-1.9321210842392402
-1.8877264810476053,-1.8877264810476053
-1.862569539239012,-1.862569539239012
-1.8181749360473771,-1.8181749360473771
-1.7515830312599245,-1.7515830312599245
-1.7145875286002288,-1.7145875286002288
-1.7234664492385556,-1.7234664492385556
-1.7145875286002288,-1.7145875286002288
-1.6450359836000006,-1.6450359836000006
-1.5754844385997724,-1.5754844385997724
-1.5747445285465784,-1.5747445285465784
-1.6102602110998865,-1.6102602110998865
-1.6102602110998865,-1.6102602110998865
-1.5754844385997724,-1.5754844385997724
-1.5584665073763124,-1.5584665073763124
-1.5754844385997724,-1.5754844385997724
-1.605820750780723,-1.605820750780723
-1.6450359836000006,-1.6450359836000006
-1.7005292375895442,-1.7005292375895442
-1.7493633011003429,-1.7493633011003429
-1.7760000630153239,-1.7760000630153239
-1.784139073600457,-1.784139073600457
-1.8055964651430805,-1.8055964651430805
-1.8181749360473771,-1.8181749360473771
-1.80929601540905,-1.80929601540905
-1.784139073600457,-1.784139073600457
-1.7663812323238028,-1.7663812323238028
-1.7493633011003429,-1.7493633011003429
-1.7271659995045254,-1.7271659995045254
-1.7145875286002288,-1.7145875286002288
-1.7153274386534227,-1.7153274386534227
-1.7145875286002288,-1.7145875286002288
-1.7375247402492402,-1.7375247402492402
-1.8181749360473771,-1.8181749360473771
-1.891426031313575,-1.891426031313575
-1.8181749360473771,-1.8181749360473771
-1.554027047057149,-1.554027047057149
-1.0893635336513692,-1.0893635336513692
-0.2614041841273766,-0.2614041841273766
1.0985504936430421,1.0985504936430421
2.667159806414145,2.667159806414145
3.5994464734384803,3.5994464734384803
3.287204430990647,3.287204430990647
2.001980668592814,2.001980668592814
0.5695148056093917,0.5695148056093917
-0.42936376620239564,-0.42936376620239564
-0.9702380150871487,-0.9702380150871487
-1.2625024860987457,-1.2625024860987457
-1.447479999397225,-1.447479999397225
-1.5754844385997724,-1.5754844385997724
-1.6849911264724722,-1.6849911264724722
-1.784139073600457,-1.784139073600457
-1.8470314281219398,-1.8470314281219398
-1.8529507085474912,-1.8529507085474912
-1.8300134968984798,-1.8300134968984798
-1.8181749360473771,-1.8181749360473771
-1.827793766738898,-1.827793766738898
-1.8181749360473771,-1.8181749360473771
-1.7715606026961603,-1.7715606026961603
-1.7145875286002288,-1.7145875286002288
-1.6909104068980234,-1.6909104068980234
-1.6798117561001147,-1.6798117561001147
-1.6561346343979093,-1.6561346343979093
-1.6102602110998865,-1.6102602110998865
-1.5858431793444872,-1.5858431793444872
-1.5754844385997724,-1.5754844385997724
-1.5651256978550576,-1.5651256978550576
-1.5407086660996583,-1.5407086660996583
-1.5103723539187077,-1.5103723539187077
-1.47115712109943,-1.47115712109943
-1.4312019782269587,-1.4312019782269587
-1.401605576099202,-1.401605576099202
-1.3875472850885175,-1.3875472850885175
-1.366829803599088,-1.366829803599088
-1.332054031098974,-1.332054031098974
-1.2972782585988598,-1.2972782585988598
-1.2802603273753996,-1.2802603273753996
-1.2625024860987457,-1.2625024860987457
-1.2321661739177951,-1.2321661739177951
-1.1936908511517115,-1.1936908511517115
-1.170013729449506,-1.170013729449506
-1.1589150786515974,-1.1589150786515974
-1.1463366077473007,-1.1463366077473007
-1.1241393061514833,-1.1241393061514833
-1.1041617347152475,-1.1041617347152475
-1.0893635336513692,-1.0893635336513692
-1.0760451526938788,-1.0760451526938788
-1.054587761151255,-1.054587761151255
-1.0353500997682132,-1.0353500997682132
-1.019811988651141,-1.019811988651141
-1.0079734278000383,-1.0079734278000383
-0.985036216151027,-0.985036216151027
-0.9620990045020156,-0.9620990045020156
-0.9502604436509129,-0.9502604436509129
-0.9554398140232703,-0.9554398140232703
-0.9502604436509129,-0.9502604436509129
-0.9325026023742589,-0.9325026023742589
-0.9154846711507988,-0.9154846711507988
-0.9191842214167684,-0.9191842214167684
-0.9154846711507988,-0.9154846711507988
-0.8903277293422056,-0.8903277293422056
-0.8459331261505707,-0.8459331261505707
-0.8118972637036505,-0.8118972637036505
-0.7763815811503425,-0.7763815811503425
-0.7319869779587075,-0.7319869779587075
-0.6727941737031942,-0.6727941737031942
-0.6187807398200382,-0.6187807398200382
-0.568466856202852,-0.568466856202852
-0.5203727027452474,-0.5203727027452474
-0.46413953870250974,-0.46413953870250974
-0.40346691434060855,-0.40346691434060855
-0.3250364487020534,-0.3250364487020534
-0.23846697247836515,-0.23846697247836515
-0.151157586201483,-0.151157586201483
-0.08086613114806092,-0.08086613114806092
-0.012794406254220595,-0.012794406254220595
0.05601722869281365,0.05601722869281365
0.12630868374623572,0.12630868374623572
0.17292301709745247,0.17292301709745247
0.1958602287464639,0.1958602287464639
0.2054790594379848,0.2054790594379848
0.23063600124657796,0.23063600124657796
0.25653285310836504,0.25653285310836504
0.26541177374669206,0.26541177374669206
0.2454342023104563,0.2454342023104563
0.23063600124657796,0.23063600124657796
0.21805753034228137,0.21805753034228137
0.1958602287464639,0.1958602287464639
0.1610844562463498,0.1610844562463498
0.1610844562463498,0.1610844562463498
0.1884611282145247,0.1884611282145247
0.1958602287464639,0.1958602287464639
0.15294544566121673,0.15294544566121673
0.12630868374623572,0.12630868374623572
0.15294544566121673,0.15294544566121673
0.1958602287464639,0.1958602287464639
0.1877212181613308,0.1877212181613308
0.1610844562463498,0.1610844562463498
0.1610844562463498,0.1610844562463498
0.1958602287464639,0.1958602287464639
0.21657771023589353,0.21657771023589353
0.23063600124657796,0.23063600124657796
0.2454342023104563,0.2454342023104563
0.26541177374669206,0.26541177374669206
0.2639319536403042,0.2639319536403042
0.26541177374669206,0.26541177374669206
0.2772503345977947,0.2772503345977947
0.3001875462468061,0.3001875462468061
0.3105462869915209,0.3105462869915209
0.3349633187469202,0.3349633187469202
0.3704790013002282,0.3704790013002282
0.40451486374714835,0.40451486374714835
0.4059946838535362,0.4059946838535362
0.40451486374714835,0.40451486374714835
0.41487360449186317,0.41487360449186317
0.43855072619406854,0.43855072619406854
0.442990186513232,0.442990186513232
0.43855072619406854,0.43855072619406854
0.434111265874905,0.434111265874905
0.43855072619406854,0.43855072619406854
0.43485117592809897,0.43485117592809897
0.43855072619406854,0.43855072619406854
0.44964937699197727,0.44964937699197727
0.4733264986941826,0.4733264986941826
0.49034442991764265,0.49034442991764265
0.5081022711942966,0.5081022711942966
0.5132816415666541,0.5132816415666541
0.5081022711942966,0.5081022711942966
0.4940439801836123,0.4940439801836123
0.5081022711942966,0.5081022711942966
0.5428780436944107,0.5428780436944107
0.5776538161945248,0.5776538161945248
0.5791336363009126,0.5791336363009126
0.5776538161945248,0.5776538161945248
0.5880125569392397,0.5880125569392397
0.6124295886946389,0.6124295886946389
0.6161291389606085,0.6161291389606085
0.6124295886946389,0.6124295886946389
0.6161291389606085,0.6161291389606085
0.647205361194753,0.647205361194753
0.6723623030033462,0.6723623030033462
0.6819811336948671,0.6819811336948671
0.67310221305654,0.67310221305654
0.6819811336948671,0.6819811336948671
0.6989990649183272,0.6989990649183272
0.7167569061949811,0.7167569061949811
0.7226761866205325,0.7226761866205325
0.7515326786950952,0.7515326786950952
0.7922277316207607,0.7922277316207607
0.8210842236953234,0.8210842236953234
0.8151649432697721,0.8151649432697721
0.8210842236953234,0.8210842236953234
0.842541615237947,0.842541615237947
0.8558599961954375,0.8558599961954375
0.8292232342804565,0.8292232342804565
0.8210842236953234,0.8210842236953234
0.8499407157698862,0.8499407157698862
0.8906357686955515,0.8906357686955515
0.8906357686955515,0.8906357686955515
0.8906357686955515,0.8906357686955515
0.9083936099722055,0.9083936099722055
0.9254115411956656,0.9254115411956656
0.9024743295466542,0.9024743295466542
0.8906357686955515,0.8906357686955515
0.9061738798126238,0.9061738798126238
0.9254115411956656,0.9254115411956656
0.9106133401317873,0.9106133401317873
0.9254115411956656,0.9254115411956656
0.9897837158235364,0.9897837158235364
1.063774721142928,1.063774721142928
1.0837522925791638,1.0837522925791638
1.0985504936430421,1.0985504936430421
1.143685006887871,1.143685006887871
1.2028778111433844,1.2028778111433844
1.2213755624732323,1.2213755624732323
1.2376535836434985,1.2376535836434985
1.2724293561436124,1.2724293561436124
1.3072051286437265,1.3072051286437265
1.3020257582713692,1.3020257582713692
1.3072051286437265,1.3072051286437265
1.3412409910906467,1.3412409910906467
1.3767566736439547,1.3767566736439547
1.3604786524736885,1.3604786524736885
1.3419809011438406,1.3419809011438406
1.3530795519417493,1.3530795519417493
1.3767566736439547,1.3767566736439547
1.3523396418885556,1.3523396418885556
1.3072051286437265,1.3072051286437265
1.2687298058776428,1.2687298058776428
1.2376535836434985,1.2376535836434985
1.170321768802852,1.170321768802852
1.0985504936430421,1.0985504936430421
1.0430572396534983,1.0430572396534983
1.028998948642814,1.028998948642814
1.010501197312966,1.010501197312966
0.9942231761426998,0.9942231761426998
0.9794249750788215,0.9794249750788215
0.9942231761426998,0.9942231761426998
1.0053218269406086,1.0053218269406086
0.9942231761426998,0.9942231761426998
0.9712859644936884,0.9712859644936884
0.9942231761426998,0.9942231761426998
1.0156805676853236,1.0156805676853236
0.9601873136957797,0.9601873136957797
0.8499407157698862,0.8499407157698862
0.8210842236953234,0.8210842236953234
0.8270035041208748,0.8270035041208748
0.7863084511952093,0.7863084511952093
0.9254115411956656,0.9254115411956656
1.6889987160917876,1.6889987160917876
2.9668233779576814,2.9668233779576814
4.0507916058867695,4.0507916058867695
4.485118807111598,4.485118807111598
4.571688283335287,4.571688283335287
4.558369902377796,4.558369902377796
4.120343150886997,4.120343150886997
3.0193569917344494,3.0193569917344494
1.8281018060922438,1.8281018060922438
1.233214123324335,1.233214123324335
1.1681020386432703,1.1681020386432703
1.0748733719408368,1.0748733719408368
0.8210842236953234,0.8210842236953234
0.6486851813011408,0.6486851813011408
0.647205361194753,0.647205361194753
0.6353668003436503,0.6353668003436503
0.5776538161945248,0.5776538161945248
0.5650753452902283,0.5650753452902283
0.6124295886946389,0.6124295886946389
0.6242681495457416,0.6242681495457416
0.6124295886946389,0.6124295886946389
0.6198286892265781,0.6198286892265781
0.647205361194753,0.647205361194753
0.6427659008755895,0.6427659008755895
0.647205361194753,0.647205361194753
0.6745820331629279,0.6745820331629279
0.7167569061949811,0.7167569061949811
0.7174968162481751,0.7174968162481751
0.7167569061949811,0.7167569061949811
0.7374743876844109,0.7374743876844109
0.7863084511952093,0.7863084511952093
0.8136851231633843,0.8136851231633843
0.8210842236953234,0.8210842236953234
0.8151649432697721,0.8151649432697721
0.8210842236953234,0.8210842236953234
0.8188644935357416,0.8188644935357416
0.8210842236953234,0.8210842236953234
0.8277434141740686,0.8277434141740686
0.8558599961954375,0.8558599961954375
0.8787972078444489,0.8787972078444489
0.8906357686955515,0.8906357686955515
0.8832366681636123,0.8832366681636123
0.8906357686955515,0.8906357686955515
0.9061738798126238,0.9061738798126238
0.9254115411956656,0.9254115411956656
0.9231918110360838,0.9231918110360838
0.9254115411956656,0.9254115411956656
0.9357702819403805,0.9357702819403805
0.9601873136957797,0.9601873136957797
0.9646267740149432,0.9646267740149432
0.9601873136957797,0.9601873136957797
0.9498285729510649,0.9498285729510649
0.9601873136957797,0.9601873136957797
0.9735056946532702,0.9735056946532702
0.9942231761426998,0.9942231761426998
0.9979227264086694,0.9979227264086694
0.9942231761426998,0.9942231761426998
0.9831245253447911,0.9831245253447911
0.9942231761426998,0.9942231761426998
1.0127209274725477,1.0127209274725477
1.028998948642814,1.028998948642814
1.0238195782704564,1.0238195782704564
1.028998948642814,1.028998948642814
1.0430572396534983,1.0430572396534983
1.063774721142928,1.063774721142928
1.0615549909833464,1.0615549909833464
1.063774721142928,1.063774721142928
1.0830123825259699,1.0830123825259699
1.1333262661431562,1.1333262661431562
1.1836401497603426,1.1836401497603426
1.2376535836434985,1.2376535836434985
1.285747737101103,1.285747737101103
1.3419809011438406,1.3419809011438406
1.3900750546014453,1.3900750546014453
1.446308218644183,1.446308218644183
1.4958821922081753,1.4958821922081753
1.5506355361445252,1.5506355361445252
1.595770049389354,1.595770049389354
1.6542229435916735,1.6542229435916735
1.7089762875280232,1.7089762875280232
1.7585502610920156,1.7585502610920156
1.7792677425814454,1.7792677425814454
1.7933260335921297,1.7933260335921297
1.7948058536985176,1.7948058536985176
1.7933260335921297,1.7933260335921297
1.7733484621558941,1.7733484621558941
1.7585502610920156,1.7585502610920156
1.7415323298685557,1.7415323298685557
1.7237744885919015,1.7237744885919015
1.6860390758790118,1.6860390758790118
1.6542229435916735,1.6542229435916735
1.6305458218894682,1.6305458218894682
1.6194471710915594,1.6194471710915594
1.588370948857415,1.588370948857415
1.5506355361445252,1.5506355361445252
1.515859763644411,1.515859763644411
1.515859763644411,1.515859763644411
1.5195593139103807,1.5195593139103807
1.515859763644411,1.515859763644411
1.4884830916762362,1.4884830916762362
1.481083991144297,1.481083991144297
1.481823901197491,1.481823901197491
1.481083991144297,1.481083991144297
1.454447229229316,1.454447229229316
1.446308218644183,1.446308218644183
1.4596265996016735,1.4596265996016735
1.481083991144297,1.481083991144297
1.4662857900804187,1.4662857900804187
1.446308218644183,1.446308218644183
1.4359494778994681,1.4359494778994681
1.446308218644183,1.446308218644183
1.4440884884846013,1.4440884884846013
1.446308218644183,1.446308218644183
1.445568308590989,1.445568308590989
1.446308218644183,1.446308218644183
1.4233710069951715,1.4233710069951715
1.4115324461440688,1.4115324461440688
1.418931546676008,1.418931546676008
1.446308218644183,1.446308218644183
1.4418687583250194,1.4418687583250194
1.4115324461440688,1.4115324461440688
1.373797033431179,1.373797033431179
1.3767566736439547,1.3767566736439547
1.3967342450801905,1.3967342450801905
1.4115324461440688,1.4115324461440688
1.393034694814221,1.393034694814221
1.3767566736439547,1.3767566736439547
1.3597387424204948,1.3597387424204948
1.3419809011438406,1.3419809011438406
1.3094248588033084,1.3094248588033084
1.3072051286437265,1.3072051286437265
1.3271827000799623,1.3271827000799623
1.3419809011438406,1.3419809011438406
1.3175638693884415,1.3175638693884415
1.3072051286437265,1.3072051286437265
1.3220033297076048,1.3220033297076048
1.3419809011438406,1.3419809011438406
1.321263419654411,1.321263419654411
1.3072051286437265,1.3072051286437265
1.3190436894948292,1.3190436894948292
1.3419809011438406,1.3419809011438406
1.3249629699203807,1.3249629699203807
1.3072051286437265,1.3072051286437265
1.313864319122472,1.313864319122472
1.3419809011438406,1.3419809011438406
1.3434607212502285,1.3434607212502285
1.3419809011438406,1.3419809011438406
1.3427208111970346,1.3427208111970346
1.3419809011438406,1.3419809011438406
1.3153441392288596,1.3153441392288596
1.3072051286437265,1.3072051286437265
1.3220033297076048,1.3220033297076048
1.3419809011438406,1.3419809011438406
1.3338418905587075,1.3338418905587075
1.3419809011438406,1.3419809011438406
1.356779102207719,1.356779102207719
1.3419809011438406,1.3419809011438406
1.2731692661968064,1.2731692661968064
1.2376535836434985,1.2376535836434985
1.2657701656648672,1.2657701656648672
1.3072051286437265,1.3072051286437265
1.2798284566755518,1.2798284566755518
1.2376535836434985,1.2376535836434985
1.2354338534839167,1.2354338534839167
1.2724293561436124,1.2724293561436124
1.2694697159308368,1.2694697159308368
1.2376535836434985,1.2376535836434985
1.2154562820476809,1.2154562820476809
1.2376535836434985,1.2376535836434985
1.2687298058776428,1.2687298058776428
1.3072051286437265,1.3072051286437265
1.339021260931065,1.339021260931065
1.3767566736439547,1.3767566736439547
1.4041333456121297,1.4041333456121297
1.446308218644183,1.446308218644183
1.4855234514634605,1.4855234514634605
1.515859763644411,1.515859763644411
1.5136400334848292,1.5136400334848292
1.515859763644411,1.515859763644411
1.5276983244955138,1.5276983244955138
1.5506355361445252,1.5506355361445252
1.552115356250913,1.552115356250913
1.5506355361445252,1.5506355361445252
1.5454561657721677,1.5454561657721677
1.5506355361445252,1.5506355361445252
1.5454561657721677,1.5454561657721677
1.5506355361445252,1.5506355361445252
1.5528552663041069,1.5528552663041069
1.5506355361445252,1.5506355361445252
1.508460663112472,1.508460663112472
1.446308218644183,1.446308218644183
1.3797163138567303,1.3797163138567303
1.3419809011438406,1.3419809011438406
1.29462665773943,1.29462665773943
1.2376535836434985,1.2376535836434985
1.1644024883773008,1.1644024883773008
1.1333262661431562,1.1333262661431562
1.1296267158771867,1.1296267158771867
1.1333262661431562,1.1333262661431562
1.099290403696236,1.099290403696236
1.063774721142928,1.063774721142928
1.0504563401854374,1.0504563401854374
1.063774721142928,1.063774721142928
1.0467567899194679,1.0467567899194679
0.9942231761426998,0.9942231761426998
0.9276312713552474,0.9276312713552474
0.8906357686955515,0.8906357686955515
0.8543801760890496,0.8543801760890496
0.8210842236953234,0.8210842236953234
0.8728779274188976,0.8728779274188976
1.2028778111433844,1.2028778111433844
1.898393261145666,1.898393261145666
2.8698951609892784,2.8698951609892784
3.847316341258442,3.847316341258442
4.571688283335287,4.571688283335287
4.835836172325515,4.835836172325515
4.571688283335287,4.571688283335287
3.8436167909924728,3.8436167909924728
2.9046709334893923,2.9046709334893923
2.0404559913588978,2.0404559913588978
1.446308218644183,1.446308218644183
1.0985504936430421,1.0985504936430421
0.8906357686955515,0.8906357686955515
0.7248959167801142,0.7248959167801142
0.6124295886946389,0.6124295886946389
0.5480574140667682,0.5480574140667682
0.5081022711942966,0.5081022711942966
0.45038928704517117,0.45038928704517117
0.40451486374714835,0.40451486374714835
0.3889767526300761,0.3889767526300761
0.40451486374714835,0.40451486374714835
0.40451486374714835,0.40451486374714835
0.40451486374714835,0.40451486374714835
0.4111740542258936,0.4111740542258936
0.43855072619406854,0.43855072619406854
0.45408883731114075,0.45408883731114075
0.4733264986941826,0.4733264986941826
0.4866448796516731,0.4866448796516731
0.5081022711942966,0.5081022711942966
0.5073623611411028,0.5073623611411028
0.5081022711942966,0.5081022711942966
0.5147614616730419,0.5147614616730419
0.5428780436944107,0.5428780436944107
0.5643354352370343,0.5643354352370343
0.5776538161945248,0.5776538161945248
0.5843130066732701,0.5843130066732701
0.6124295886946389,0.6124295886946389
0.6390663506096199,0.6390663506096199
0.647205361194753,0.647205361194753
0.6331470701840686,0.6331470701840686
0.647205361194753,0.647205361194753
0.6864205940140305,0.6864205940140305
0.7167569061949811,0.7167569061949811
0.700478885024715,0.700478885024715
0.6819811336948671,0.6819811336948671
0.6893802342268063,0.6893802342268063
0.7167569061949811,0.7167569061949811
0.7189766363545629,0.7189766363545629
0.7167569061949811,0.7167569061949811
0.7256358268333082,0.7256358268333082
0.7515326786950952,0.7515326786950952
0.7559721390142587,0.7559721390142587
0.7515326786950952,0.7515326786950952
0.7456133982695439,0.7456133982695439
0.7515326786950952,0.7515326786950952
0.7485730384823196,0.7485730384823196
0.7515326786950952,0.7515326786950952
0.7515326786950952,0.7515326786950952
0.7515326786950952,0.7515326786950952
0.7411739379503804,0.7411739379503804
0.7515326786950952,0.7515326786950952
0.770770340078137,0.770770340078137
0.7863084511952093,0.7863084511952093
0.7766896205036884,0.7766896205036884
0.7863084511952093,0.7863084511952093
0.8173846734293538,0.8173846734293538
0.8558599961954375,0.8558599961954375
0.8662187369401523,0.8662187369401523
0.8906357686955515,0.8906357686955515
0.9365101919935744,0.9365101919935744
0.9942231761426998,0.9942231761426998
1.0252993983768444,1.0252993983768444
1.063774721142928,1.063774721142928
1.1244473455048292,1.1244473455048292
1.2028778111433844,1.2028778111433844
1.2561513349733464,1.2561513349733464
1.3072051286437265,1.3072051286437265
1.3678777530056276,1.3678777530056276
1.446308218644183,1.446308218644183
1.5032812927401145,1.5032812927401145
1.5506355361445252,1.5506355361445252
1.595770049389354,1.595770049389354
1.6542229435916735,1.6542229435916735
1.6875188959853997,1.6875188959853997
1.6889987160917876,1.6889987160917876
1.6631018642300004,1.6631018642300004
1.6542229435916735,1.6542229435916735
1.6564426737512552,1.6564426737512552
1.6542229435916735,1.6542229435916735
1.6201870811447534,1.6201870811447534
1.5846713985914453,1.5846713985914453
1.5587745467296583,1.5587745467296583
1.5506355361445252,1.5506355361445252
1.5306579647082894,1.5306579647082894
1.515859763644411,1.515859763644411
1.4973620123145632,1.4973620123145632
1.481083991144297,1.481083991144297
1.4522274990697341,1.4522274990697341
1.446308218644183,1.446308218644183
1.4485279488037646,1.4485279488037646
1.446308218644183,1.446308218644183
1.4174517265696203,1.4174517265696203
1.4115324461440688,1.4115324461440688
1.428550377367529,1.428550377367529
1.446308218644183,1.446308218644183
1.4241109170483655,1.4241109170483655
1.4115324461440688,1.4115324461440688
1.4218911868887836,1.4218911868887836
1.446308218644183,1.446308218644183
1.4418687583250194,1.4418687583250194
1.446308218644183,1.446308218644183
1.4640660599208368,1.4640660599208368
1.481083991144297,1.481083991144297
1.4588866895484796,1.4588866895484796
1.446308218644183,1.446308218644183
1.4581467794952856,1.4581467794952856
1.481083991144297,1.481083991144297
1.4648059699740308,1.4648059699740308
1.446308218644183,1.446308218644183
1.4500077689101525,1.4500077689101525
1.481083991144297,1.481083991144297
1.4862633615166545,1.4862633615166545
1.481083991144297,1.481083991144297
1.4736848906123579,1.4736848906123579
1.481083991144297,1.481083991144297
1.4670257001336127,1.4670257001336127
1.446308218644183,1.446308218644183
1.4300301974739167,1.4300301974739167
1.446308218644183,1.446308218644183
1.4559270493357037,1.4559270493357037
1.446308218644183,1.446308218644183
1.4130122662504567,1.4130122662504567
1.4115324461440688,1.4115324461440688
1.4322499276334986,1.4322499276334986
1.446308218644183,1.446308218644183
1.4122723561972628,1.4122723561972628
1.3767566736439547,1.3767566736439547
1.3634382926864643,1.3634382926864643
1.3767566736439547,1.3767566736439547
1.375276853537567,1.375276853537567
1.3767566736439547,1.3767566736439547
1.3767566736439547,1.3767566736439547
1.3767566736439547,1.3767566736439547
1.3619584725800764,1.3619584725800764
1.3767566736439547,1.3767566736439547
1.4041333456121297,1.4041333456121297
1.4115324461440688,1.4115324461440688
1.3767566736439547,1.3767566736439547
1.3767566736439547,1.3767566736439547
1.4174517265696203,1.4174517265696203
1.446308218644183,1.446308218644183
1.4063530757717113,1.4063530757717113
1.3767566736439547,1.3767566736439547
1.40043379534616,1.40043379534616
1.446308218644183,1.446308218644183
1.4352095678462742,1.4352095678462742
1.4115324461440688,1.4115324461440688
1.4159719064632323,1.4159719064632323
1.446308218644183,1.446308218644183
1.4352095678462742,1.4352095678462742
1.4115324461440688,1.4115324461440688
1.40043379534616,1.40043379534616
1.4115324461440688,1.4115324461440688
1.3959943350269965,1.3959943350269965
1.3767566736439547,1.3767566736439547
1.367137842952434,1.367137842952434
1.3767566736439547,1.3767566736439547
1.3626983826332704,1.3626983826332704
1.3419809011438406,1.3419809011438406
1.3257028799735746,1.3257028799735746
1.3419809011438406,1.3419809011438406
1.3686176630588216,1.3686176630588216
1.4115324461440688,1.4115324461440688
1.4470481286973769,1.4470481286973769
