ECG,PPG
-0.1129584755576246,-0.1129584755576246
0.1917131961825948,0.1917131961825948
-0.03161866196031294,-0.03161866196031294
-0.16796863851071978,-0.16796863851071978
-0.03161866196031294,-0.03161866196031294
0.10661200392182363,0.10661200392182363
0.1315311375672428,0.1315311375672428
0.1578607882114593,0.1578607882114593
0.2133411234974869,0.2133411234974869
0.1954745748460543,0.1954745748460543
0.1315311375672428,0.1315311375672428
0.13294165456604012,0.13294165456604012
0.2133411234974869,0.2133411234974869
0.287628352100812,0.287628352100812
0.33605610239285305,0.33605610239285305
0.3807224740214346,0.3807224740214346
0.41739591599016473,0.41739591599016473
0.4197467776548269,0.4197467776548269
0.41739591599016473,0.41739591599016473
0.44607642829904337,0.44607642829904337
0.4992059019204088,0.4992059019204088
0.531647792892747,0.531647792892747
0.5401108948855309,0.5401108948855309
0.5358793438891389,0.5358793438891389
0.5401108948855309,0.5401108948855309
0.5297671035610172,0.5297671035610172
0.4992059019204088,0.4992059019204088
0.45171849629423266,0.45171849629423266
0.41739591599016473,0.41739591599016473
0.38777505901542114,0.38777505901542114
0.33605610239285305,0.33605610239285305
0.21522181282921665,0.21522181282921665
0.05019132396993115,0.05019132396993115
-0.08474813558167836,-0.08474813558167836
-0.1129584755576246,-0.1129584755576246
-0.07957623991942155,-0.07957623991942155
-0.07252365492543499,-0.07252365492543499
-0.12330226688213822,-0.12330226688213822
-0.15386346852274665,-0.15386346852274665
-0.14351967719823303,-0.14351967719823303
-0.15386346852274665,-0.15386346852274665
-0.23943483311645025,-0.23943483311645025
-0.3170132680503024,-0.3170132680503024
-0.3085501660575185,-0.3085501660575185
-0.23567345445299073,-0.23567345445299073
-0.2060525974782472,-0.2060525974782472
-0.23567345445299073,-0.23567345445299073
-0.2737574134205182,-0.2737574134205182
-0.27657844741811277,-0.27657844741811277
-0.28269068774623446,-0.28269068774623446
-0.3170132680503024,-0.3170132680503024
-0.3710830863375327,-0.3710830863375327
-0.3988232539805465,-0.3988232539805465
-0.40352497730987086,-0.40352497730987086
-0.3988232539805465,-0.3988232539805465
-0.3936513583182897,-0.3936513583182897
-0.35791826101542445,-0.35791826101542445
-0.30525895972699146,-0.30525895972699146
-0.27657844741811277,-0.27657844741811277
-0.3080799937245861,-0.3080799937245861
-0.35791826101542445,-0.35791826101542445
-0.3884794626560329,-0.3884794626560329
-0.3988232539805465,-0.3988232539805465
-0.4209213536283711,-0.4209213536283711
-0.43972824694566853,-0.43972824694566853
-0.4444299702749929,-0.4444299702749929
-0.43972824694566853,-0.43972824694566853
-0.4458404872737902,-0.4458404872737902
-0.43972824694566853,-0.43972824694566853
-0.417630147297844,-0.417630147297844
-0.3988232539805465,-0.3988232539805465
-0.40446532197573576,-0.40446532197573576
-0.3988232539805465,-0.3988232539805465
-0.37343394800219487,-0.37343394800219487
-0.35791826101542445,-0.35791826101542445
-0.39271101365242483,-0.39271101365242483
-0.43972824694566853,-0.43972824694566853
-0.4580649679300336,-0.4580649679300336
-0.43972824694566853,-0.43972824694566853
-0.4195108366295737,-0.4195108366295737
-0.3988232539805465,-0.3988232539805465
-0.39976359864641137,-0.39976359864641137
-0.43972824694566853,-0.43972824694566853
-0.5074330628879395,-0.5074330628879395
-0.5210680605429802,-0.5210680605429802
-0.4641772082581553,-0.4641772082581553
-0.3988232539805465,-0.3988232539805465
-0.39036015198776264,-0.39036015198776264
-0.3988232539805465,-0.3988232539805465
-0.3978829093146816,-0.3978829093146816
-0.3988232539805465,-0.3988232539805465
-0.3945917029841546,-0.3945917029841546
-0.3170132680503024,-0.3170132680503024
-0.20793328680997694,-0.20793328680997694
-0.1947684614878687,-0.1947684614878687
-0.28645206640969395,-0.28645206640969395
-0.27657844741811277,-0.27657844741811277
-0.057948312604529435,-0.057948312604529435
0.2133411234974869,0.2133411234974869
0.33088420673059626,0.33088420673059626
0.33605610239285305,0.33605610239285305
0.362855925370002,0.362855925370002
0.41739591599016473,0.41739591599016473
0.4009398843375294,0.4009398843375294
0.33605610239285305,0.33605610239285305
0.3092562794157041,0.3092562794157041
0.33605610239285305,0.33605610239285305
0.33135437906352866,0.33135437906352866
0.254246116462609,0.254246116462609
0.10096993592663439,0.10096993592663439
-0.1129584755576246,-0.1129584755576246
-0.3673217076740732,-0.3673217076740732
-0.5619730535081022,-0.5619730535081022
-0.639081316109022,-0.639081316109022
-0.6028780464732243,-0.6028780464732243
-0.5633835705068996,-0.5633835705068996
-0.5619730535081022,-0.5619730535081022
-0.6056990804708189,-0.6056990804708189
-0.6437830394383464,-0.6437830394383464
-0.6592987264251168,-0.6592987264251168
-0.6437830394383464,-0.6437830394383464
-0.6343795927796976,-0.6343795927796976
-0.6437830394383464,-0.6437830394383464
-0.6611794157568466,-0.6611794157568466
-0.6437830394383464,-0.6437830394383464
-0.6160428717953326,-0.6160428717953326
-0.6028780464732243,-0.6028780464732243
-0.5544502961811832,-0.5544502961811832
-0.3170132680503024,-0.3170132680503024
0.19453423018018942,0.19453423018018942
0.988655300503076,0.988655300503076
2.0634692535866277,2.0634692535866277
3.39687798978302,3.39687798978302
4.6912624223460195,4.6912624223460195
5.396520921744676,5.396520921744676
5.1040737306607,5.1040737306607
3.968137374295931,3.968137374295931
2.5576203754986193,2.5576203754986193
1.3967648854884316,1.3967648854884316
0.644489152796532,0.644489152796532
0.2133411234974869,0.2133411234974869
-0.028797627962718318,-0.028797627962718318
-0.15386346852274665,-0.15386346852274665
-0.233792765121261,-0.233792765121261
-0.3170132680503024,-0.3170132680503024
-0.4063460113074655,-0.4063460113074655
-0.43972824694566853,-0.43972824694566853
-0.40587583897453305,-0.40587583897453305
-0.35791826101542445,-0.35791826101542445
-0.36309015667768124,-0.36309015667768124
-0.3988232539805465,-0.3988232539805465
-0.42703359395649276,-0.42703359395649276
-0.43972824694566853,-0.43972824694566853
-0.4820437569095879,-0.4820437569095879
-0.5210680605429802,-0.5210680605429802
-0.5060225458891422,-0.5060225458891422
-0.3988232539805465,-0.3988232539805465
-0.30996068305631586,-0.30996068305631586
-0.3170132680503024,-0.3170132680503024
-0.3945917029841546,-0.3945917029841546
-0.3988232539805465,-0.3988232539805465
-0.3118413723880456,-0.3118413723880456
-0.23567345445299073,-0.23567345445299073
-0.23990500544938267,-0.23990500544938267
-0.23567345445299073,-0.23567345445299073
-0.1797229468340307,-0.1797229468340307
-0.15386346852274665,-0.15386346852274665
-0.2239191461296798,-0.2239191461296798
-0.27657844741811277,-0.27657844741811277
-0.22862086945900417,-0.22862086945900417
-0.15386346852274665,-0.15386346852274665
-0.15480381318861153,-0.15480381318861153
-0.15386346852274665,-0.15386346852274665
-0.06547106993144843,-0.06547106993144843
0.05019132396993115,0.05019132396993115
0.06382632162497183,0.06382632162497183
0.009286331004809105,0.009286331004809105
-0.007639872980758639,-0.007639872980758639
0.05019132396993115,0.05019132396993115
0.12871010356964818,0.12871010356964818
0.2133411234974869,0.2133411234974869
0.27258283744697404,0.27258283744697404
0.254246116462609,0.254246116462609
0.14187492889175643,0.14187492889175643
0.05019132396993115,0.05019132396993115
0.07087890661895839,0.07087890661895839
0.17243613053236487,0.17243613053236487
0.23308836148064926,0.23308836148064926
0.2133411234974869,0.2133411234974869
0.1451661352222835,0.1451661352222835
0.0910963169350532,0.0910963169350532
0.07981218094467471,0.07981218094467471
0.1315311375672428,0.1315311375672428
0.19735526417778404,0.19735526417778404
0.2133411234974869,0.2133411234974869
0.1630326838737161,0.1630326838737161
0.1315311375672428,0.1315311375672428
0.1630326838737161,0.1630326838737161
0.2133411234974869,0.2133411234974869
0.1982956088436489,0.1982956088436489
0.1315311375672428,0.1315311375672428
0.06899821728722864,0.06899821728722864
0.05019132396993115,0.05019132396993115
0.04925097930406628,0.04925097930406628
0.05019132396993115,0.05019132396993115
0.025742362657444413,0.025742362657444413
-0.03161866196031294,-0.03161866196031294
-0.1204812328845436,-0.1204812328845436
-0.1947684614878687,-0.1947684614878687
-0.23144190345659882,-0.23144190345659882
-0.23567345445299073,-0.23567345445299073
-0.2507189691068287,-0.2507189691068287
-0.27657844741811277,-0.27657844741811277
-0.29209413440488324,-0.29209413440488324
-0.27657844741811277,-0.27657844741811277
-0.2751679304193155,-0.2751679304193155
-0.3170132680503024,-0.3170132680503024
-0.37249360333633,-0.37249360333633
-0.35791826101542445,-0.35791826101542445
-0.29491516840247783,-0.29491516840247783
-0.27657844741811277,-0.27657844741811277
-0.3442832633603838,-0.3442832633603838
-0.3988232539805465,-0.3988232539805465
-0.38424791165964095,-0.38424791165964095
-0.35791826101542445,-0.35791826101542445
-0.3955320476500194,-0.3955320476500194
-0.43972824694566853,-0.43972824694566853
-0.4303248002870198,-0.4303248002870198
-0.3988232539805465,-0.3988232539805465
-0.4162196302990467,-0.4162196302990467
-0.43972824694566853,-0.43972824694566853
-0.4115179069697223,-0.4115179069697223
-0.35791826101542445,-0.35791826101542445
-0.36920239700580293,-0.36920239700580293
-0.43972824694566853,-0.43972824694566853
-0.504612028890345,-0.504612028890345
-0.5210680605429802,-0.5210680605429802
-0.5205978882100478,-0.5205978882100478
-0.5210680605429802,-0.5210680605429802
-0.5285908178698993,-0.5285908178698993
-0.5210680605429802,-0.5210680605429802
-0.4937980652328988,-0.4937980652328988
-0.43972824694566853,-0.43972824694566853
-0.39741273698174917,-0.39741273698174917
-0.3988232539805465,-0.3988232539805465
-0.44772117660551997,-0.44772117660551997
-0.4806332399107906,-0.4806332399107906
-0.4693491039204121,-0.4693491039204121
-0.43972824694566853,-0.43972824694566853
-0.45853514026296605,-0.45853514026296605
-0.5210680605429802,-0.5210680605429802
-0.5774887404948726,-0.5774887404948726
-0.5619730535081022,-0.5619730535081022
-0.485334963240115,-0.485334963240115
-0.3988232539805465,-0.3988232539805465
-0.37014274167166783,-0.37014274167166783
-0.3988232539805465,-0.3988232539805465
-0.4340861789504793,-0.4340861789504793
-0.3988232539805465,-0.3988232539805465
-0.2793994814157074,-0.2793994814157074
-0.1129584755576246,-0.1129584755576246
0.02950374132090391,0.02950374132090391
0.1315311375672428,0.1315311375672428
0.22133405315733834,0.22133405315733834
0.33605610239285305,0.33605610239285305
0.4338519476428,0.4338519476428
0.45830090895528675,0.45830090895528675
0.41128367566204305,0.41128367566204305
0.37649092302504267,0.37649092302504267
0.3713190273627858,0.3713190273627858
0.33605610239285305,0.33605610239285305
0.2344988784794466,0.2344988784794466
0.1315311375672428,0.1315311375672428
0.039377360312485093,0.039377360312485093
-0.1129584755576246,-0.1129584755576246
-0.3588586056812893,-0.3588586056812893
-0.5619730535081022,-0.5619730535081022
-0.6282673524515759,-0.6282673524515759
-0.6028780464732243,-0.6028780464732243
-0.6287375247845084,-0.6287375247845084
-0.6846880324034684,-0.6846880324034684
-0.6997335470573064,-0.6997335470573064
-0.6437830394383464,-0.6437830394383464
-0.5995868401426973,-0.5995868401426973
-0.6028780464732243,-0.6028780464732243
-0.6230954567893191,-0.6230954567893191
-0.6028780464732243,-0.6028780464732243
-0.5779589128278051,-0.5779589128278051
-0.6028780464732243,-0.6028780464732243
-0.6715232070813602,-0.6715232070813602
-0.6846880324034684,-0.6846880324034684
-0.6094604591342784,-0.6094604591342784
-0.43972824694566853,-0.43972824694566853
-0.06547106993144843,-0.06547106993144843
0.7032606944130866,0.7032606944130866
1.8086358491372467,1.8086358491372467
2.9887684047976646,2.9887684047976646
4.114360969837919,4.114360969837919
5.192466129251998,5.192466129251998
5.836132053036504,5.836132053036504
5.356086101112486,5.356086101112486
3.669107770550901,3.669107770550901
1.7235346568764756,1.7235346568764756
0.5086093485790576,0.5086093485790576
0.0910963169350532,0.0910963169350532
-0.07393417192423231,-0.07393417192423231
-0.23567345445299073,-0.23567345445299073
-0.3094905107233834,-0.3094905107233834
-0.3170132680503024,-0.3170132680503024
-0.4054056666416006,-0.4054056666416006
-0.5210680605429802,-0.5210680605429802
-0.5441065048566697,-0.5441065048566697
-0.5210680605429802,-0.5210680605429802
-0.5662046045044942,-0.5662046045044942
-0.6028780464732243,-0.6028780464732243
-0.5375240921956155,-0.5375240921956155
-0.43972824694566853,-0.43972824694566853
-0.4387879022798037,-0.4387879022798037
-0.4806332399107906,-0.4806332399107906
-0.4914472035682367,-0.4914472035682367
-0.4806332399107906,-0.4806332399107906
-0.5163663372136559,-0.5163663372136559
-0.5210680605429802,-0.5210680605429802
-0.4613561742605607,-0.4613561742605607
-0.3988232539805465,-0.3988232539805465
-0.42844411095529006,-0.42844411095529006
-0.4806332399107906,-0.4806332399107906
-0.4439597979420605,-0.4439597979420605
-0.3170132680503024,-0.3170132680503024
-0.22862086945900417,-0.22862086945900417
-0.23567345445299073,-0.23567345445299073
-0.2953853407354103,-0.2953853407354103
-0.3170132680503024,-0.3170132680503024
-0.2775187920839777,-0.2775187920839777
-0.1947684614878687,-0.1947684614878687
-0.13082502420905723,-0.13082502420905723
-0.1129584755576246,-0.1129584755576246
-0.1280039902114626,-0.1280039902114626
-0.1129584755576246,-0.1129584755576246
-0.05888865727039431,-0.05888865727039431
0.009286331004809105,0.009286331004809105
0.0558333919651204,0.0558333919651204
0.0910963169350532,0.0910963169350532
0.09438752326558027,0.09438752326558027
0.05019132396993115,0.05019132396993115
-0.0109310793112857,-0.0109310793112857
0.009286331004809105,0.009286331004809105
0.11507510591460751,0.11507510591460751
0.2133411234974869,0.2133411234974869
0.22556560415373028,0.22556560415373028
0.2133411234974869,0.2133411234974869
0.23308836148064926,0.23308836148064926
0.254246116462609,0.254246116462609
0.21757267449387885,0.21757267449387885
0.17243613053236487,0.17243613053236487
0.1766676815287568,0.1766676815287568
0.2133411234974869,0.2133411234974869
0.2194533638256086,0.2194533638256086
0.2133411234974869,0.2133411234974869
0.22979715515012222,0.22979715515012222
0.254246116462609,0.254246116462609
0.2194533638256086,0.2194533638256086
0.1315311375672428,0.1315311375672428
0.05395270263339065,0.05395270263339065
0.05019132396993115,0.05019132396993115
0.09297700626678294,0.09297700626678294
0.1315311375672428,0.1315311375672428
0.12918027590258063,0.12918027590258063
0.0910963169350532,0.0910963169350532
-0.004348666650231578,-0.004348666650231578
-0.15386346852274665,-0.15386346852274665
-0.29350465140368054,-0.29350465140368054
-0.3170132680503024,-0.3170132680503024
-0.2643539667618694,-0.2643539667618694
-0.27657844741811277,-0.27657844741811277
-0.410107389970925,-0.410107389970925
-0.5210680605429802,-0.5210680605429802
-0.5055523735562097,-0.5055523735562097
-0.43972824694566853,-0.43972824694566853
-0.45994565726176334,-0.45994565726176334
-0.5210680605429802,-0.5210680605429802
-0.5050822012232773,-0.5050822012232773
-0.3988232539805465,-0.3988232539805465
-0.32923774870654576,-0.32923774870654576
-0.35791826101542445,-0.35791826101542445
-0.44772117660551997,-0.44772117660551997
-0.5210680605429802,-0.5210680605429802
-0.5709063278338186,-0.5709063278338186
-0.6028780464732243,-0.6028780464732243
-0.6216849397905218,-0.6216849397905218
-0.6028780464732243,-0.6028780464732243
-0.5591520195105076,-0.5591520195105076
-0.5210680605429802,-0.5210680605429802
-0.5276504732040344,-0.5276504732040344
-0.5619730535081022,-0.5619730535081022
-0.5977061508109675,-0.5977061508109675
-0.6028780464732243,-0.6028780464732243
-0.575608051163143,-0.575608051163143
-0.5210680605429802,-0.5210680605429802
-0.4905068589023718,-0.4905068589023718
-0.5210680605429802,-0.5210680605429802
-0.5901833934840485,-0.5901833934840485
-0.6028780464732243,-0.6028780464732243
-0.5398749538602777,-0.5398749538602777
-0.4806332399107906,-0.4806332399107906
-0.5140154755489936,-0.5140154755489936
-0.6028780464732243,-0.6028780464732243
-0.6592987264251168,-0.6592987264251168
-0.6437830394383464,-0.6437830394383464
-0.6108709761330757,-0.6108709761330757
-0.6028780464732243,-0.6028780464732243
-0.6230954567893191,-0.6230954567893191
-0.6437830394383464,-0.6437830394383464
-0.6682320007508331,-0.6682320007508331
-0.6846880324034684,-0.6846880324034684
-0.669172345416698,-0.669172345416698
-0.6028780464732243,-0.6028780464732243
-0.556330985512913,-0.556330985512913
-0.6028780464732243,-0.6028780464732243
-0.721831646705131,-0.721831646705131
-0.7660278460007801,-0.7660278460007801
-0.6592987264251168,-0.6592987264251168
-0.4806332399107906,-0.4806332399107906
-0.38706894565723554,-0.38706894565723554
-0.3988232539805465,-0.3988232539805465
-0.41668980263197913,-0.41668980263197913
-0.35791826101542445,-0.35791826101542445
-0.2831608600791669,-0.2831608600791669
-0.27657844741811277,-0.27657844741811277
-0.3259465423760187,-0.3259465423760187
-0.3170132680503024,-0.3170132680503024
-0.2022912188147877,-0.2022912188147877
-0.03161866196031294,-0.03161866196031294
0.13059079290137793,0.13059079290137793
0.295151109427731,0.295151109427731
0.445606255966111,0.445606255966111
0.4992059019204088,0.4992059019204088
0.39153643767888063,0.39153643767888063
0.2133411234974869,0.2133411234974869
0.0910963169350532,0.0910963169350532
0.05019132396993115,0.05019132396993115
-0.0010574603197045164,-0.0010574603197045164
-0.1129584755576246,-0.1129584755576246
-0.2775187920839777,-0.2775187920839777
-0.43972824694566853,-0.43972824694566853
-0.5657344321715617,-0.5657344321715617
-0.6028780464732243,-0.6028780464732243
-0.5991166678097648,-0.5991166678097648
-0.6028780464732243,-0.6028780464732243
-0.6414321777736841,-0.6414321777736841
-0.6437830394383464,-0.6437830394383464
-0.6353199374455625,-0.6353199374455625
-0.6846880324034684,-0.6846880324034684
-0.7683787076654423,-0.7683787076654423
-0.725122853035658,-0.725122853035658
-0.5506889175177238,-0.5506889175177238
-0.43972824694566853,-0.43972824694566853
-0.5158961648807234,-0.5158961648807234
-0.6028780464732243,-0.6028780464732243
-0.5234189222076424,-0.5234189222076424
-0.3170132680503024,-0.3170132680503024
-0.07111313792663768,-0.07111313792663768
0.37649092302504267,0.37649092302504267
1.2448992219512545,1.2448992219512545
2.539753826847187,2.539753826847187
4.022677364916094,4.022677364916094
5.356086101112486,5.356086101112486
6.0716883918356555,6.0716883918356555
5.764195686097842,5.764195686097842
4.483446251189882,4.483446251189882
2.8660534259022983,2.8660534259022983
1.5730795103380957,1.5730795103380957
0.7846005080103983,0.7846005080103983
0.2960914540935959,0.2960914540935959
-0.03161866196031294,-0.03161866196031294
-0.1999403571501255,-0.1999403571501255
-0.23567345445299073,-0.23567345445299073
-0.25730138176788286,-0.25730138176788286
-0.3170132680503024,-0.3170132680503024
-0.38941980732189774,-0.38941980732189774
-0.43972824694566853,-0.43972824694566853
-0.49661909923049347,-0.49661909923049347
-0.5619730535081022,-0.5619730535081022
-0.5995868401426973,-0.5995868401426973
-0.5619730535081022,-0.5619730535081022
-0.500380477893953,-0.500380477893953
-0.4806332399107906,-0.4806332399107906
-0.5191873712112505,-0.5191873712112505
-0.5210680605429802,-0.5210680605429802
-0.4895665142365069,-0.4895665142365069
-0.4806332399107906,-0.4806332399107906
-0.5323521965333587,-0.5323521965333587
-0.5210680605429802,-0.5210680605429802
-0.3992934263134789,-0.3992934263134789
-0.27657844741811277,-0.27657844741811277
-0.30619930439285636,-0.30619930439285636
-0.43972824694566853,-0.43972824694566853
-0.5257697838723046,-0.5257697838723046
-0.4806332399107906,-0.4806332399107906
-0.36167963967888395,-0.36167963967888395
-0.23567345445299073,-0.23567345445299073
-0.15997570885086834,-0.15997570885086834
-0.15386346852274665,-0.15386346852274665
-0.20793328680997694,-0.20793328680997694
-0.23567345445299073,-0.23567345445299073
-0.18160363616576045,-0.18160363616576045
-0.07252365492543499,-0.07252365492543499
-0.012341596310083013,-0.012341596310083013
-0.03161866196031294,-0.03161866196031294
-0.06970262092784037,-0.06970262092784037
-0.03161866196031294,-0.03161866196031294
0.06382632162497183,0.06382632162497183
0.1315311375672428,0.1315311375672428
0.11836631224513457,0.11836631224513457
0.0910963169350532,0.0910963169350532
0.111313727251148,0.111313727251148
0.17243613053236487,0.17243613053236487
0.2171025021609464,0.2171025021609464
0.254246116462609,0.254246116462609
0.3064352454181095,0.3064352454181095
0.37649092302504267,0.37649092302504267
0.4286800519805432,0.4286800519805432
0.45830090895528675,0.45830090895528675
0.4550097026247597,0.4550097026247597
0.41739591599016473,0.41739591599016473
0.3558033403760154,0.3558033403760154
0.33605610239285305,0.33605610239285305
0.3835435080190292,0.3835435080190292
0.45830090895528675,0.45830090895528675
0.47334642360912477,0.47334642360912477
0.41739591599016473,0.41739591599016473
0.3294736897317989,0.3294736897317989
0.254246116462609,0.254246116462609
0.16444320087251343,0.16444320087251343
0.05019132396993115,0.05019132396993115
-0.042432625617759,-0.042432625617759
-0.03161866196031294,-0.03161866196031294
0.041258049644214846,0.041258049644214846
0.05019132396993115,0.05019132396993115
-0.07628503358889449,-0.07628503358889449
-0.23567345445299073,-0.23567345445299073
-0.31748344038323484,-0.31748344038323484
-0.3170132680503024,-0.3170132680503024
-0.3141922340527078,-0.3141922340527078
-0.3170132680503024,-0.3170132680503024
-0.3156027510515051,-0.3156027510515051
-0.3170132680503024,-0.3170132680503024
-0.3550972270178298,-0.3550972270178298
-0.3988232539805465,-0.3988232539805465
-0.43455635128341175,-0.43455635128341175
-0.4806332399107906,-0.4806332399107906
-0.5568011578458455,-0.5568011578458455
-0.6028780464732243,-0.6028780464732243
-0.5831308084900619,-0.5831308084900619
-0.5210680605429802,-0.5210680605429802
-0.4759315165814662,-0.4759315165814662
-0.43972824694566853,-0.43972824694566853
-0.40728635597333035,-0.40728635597333035
-0.3988232539805465,-0.3988232539805465
-0.440198419278601,-0.440198419278601
-0.4806332399107906,-0.4806332399107906
-0.4759315165814662,-0.4759315165814662
-0.43972824694566853,-0.43972824694566853
-0.43972824694566853,-0.43972824694566853
-0.4806332399107906,-0.4806332399107906
-0.5210680605429802,-0.5210680605429802
-0.5210680605429802,-0.5210680605429802
-0.5102540968855341,-0.5102540968855341
-0.5210680605429802,-0.5210680605429802
-0.5671449491703591,-0.5671449491703591
-0.6028780464732243,-0.6028780464732243
-0.5892430488181836,-0.5892430488181836
-0.5210680605429802,-0.5210680605429802
-0.4684087592545472,-0.4684087592545472
-0.4806332399107906,-0.4806332399107906
-0.5290609902028316,-0.5290609902028316
-0.5210680605429802,-0.5210680605429802
-0.46323686359229044,-0.46323686359229044
-0.43972824694566853,-0.43972824694566853
-0.4881559972377096,-0.4881559972377096
-0.5210680605429802,-0.5210680605429802
-0.5097839245526017,-0.5097839245526017
-0.5210680605429802,-0.5210680605429802
-0.5878325318193863,-0.5878325318193863
-0.6028780464732243,-0.6028780464732243
-0.5426959878578723,-0.5426959878578723
-0.5210680605429802,-0.5210680605429802
-0.6042885634720216,-0.6042885634720216
-0.6437830394383464,-0.6437830394383464
-0.5488082281859941,-0.5488082281859941
-0.43972824694566853,-0.43972824694566853
-0.462766691259358,-0.462766691259358
-0.5210680605429802,-0.5210680605429802
-0.462766691259358,-0.462766691259358
-0.3170132680503024,-0.3170132680503024
-0.23708397145178806,-0.23708397145178806
-0.23567345445299073,-0.23567345445299073
-0.2215682844650176,-0.2215682844650176
-0.15386346852274665,-0.15386346852274665
-0.07863589525355667,-0.07863589525355667
0.009286331004809105,0.009286331004809105
0.1390538948941618,0.1390538948941618
0.295151109427731,0.295151109427731
0.38871540368128604,0.38871540368128604
0.37649092302504267,0.37649092302504267
0.28809852443374445,0.28809852443374445
0.2133411234974869,0.2133411234974869
0.20722888316936522,0.20722888316936522
0.254246116462609,0.254246116462609
0.24437249747102777,0.24437249747102777
0.0910963169350532,0.0910963169350532
-0.18489484249628751,-0.18489484249628751
-0.43972824694566853,-0.43972824694566853
-0.5901833934840485,-0.5901833934840485
-0.6437830394383464,-0.6437830394383464
-0.6785757920753467,-0.6785757920753467
-0.6846880324034684,-0.6846880324034684
-0.6710530347484277,-0.6710530347484277
-0.6437830394383464,-0.6437830394383464
-0.6395514884419544,-0.6395514884419544
-0.6437830394383464,-0.6437830394383464
-0.6696425177496304,-0.6696425177496304
-0.725122853035658,-0.725122853035658
-0.7843645669851451,-0.7843645669851451
-0.7660278460007801,-0.7660278460007801
-0.6936213067291848,-0.6936213067291848
-0.6846880324034684,-0.6846880324034684
-0.8041118049683075,-0.8041118049683075
-0.8887428248961462,-0.8887428248961462
-0.7039650980536983,-0.7039650980536983
-0.15386346852274665,-0.15386346852274665
0.655303116453978,0.655303116453978
1.6417246709462314,1.6417246709462314
2.8185660202761222,2.8185660202761222
4.131287173823487,4.131287173823487
5.199518714245984,5.199518714245984
5.47833090767492,5.47833090767492
4.708188626331587,4.708188626331587
3.2337281902554644,3.2337281902554644
1.7211837952118134,1.7211837952118134
0.6623557014479645,0.6623557014479645
0.10332079759129657,0.10332079759129657
-0.15386346852274665,-0.15386346852274665
-0.30149758106353197,-0.30149758106353197
-0.3988232539805465,-0.3988232539805465
-0.45712462326416875,-0.45712462326416875
-0.4806332399107906,-0.4806332399107906
-0.4994401332280881,-0.4994401332280881
-0.5210680605429802,-0.5210680605429802
-0.5464573665213318,-0.5464573665213318
-0.5619730535081022,-0.5619730535081022
-0.5840711531559268,-0.5840711531559268
-0.6028780464732243,-0.6028780464732243
-0.5944149444804404,-0.5944149444804404
-0.5210680605429802,-0.5210680605429802
-0.43455635128341175,-0.43455635128341175
-0.3988232539805465,-0.3988232539805465
-0.45853514026296605,-0.45853514026296605
-0.5210680605429802,-0.5210680605429802
-0.5191873712112505,-0.5191873712112505
-0.43972824694566853,-0.43972824694566853
-0.3823672223279112,-0.3823672223279112
-0.3988232539805465,-0.3988232539805465
-0.4641772082581553,-0.4641772082581553
-0.4806332399107906,-0.4806332399107906
-0.40587583897453305,-0.40587583897453305
-0.27657844741811277,-0.27657844741811277
-0.20417190814651745,-0.20417190814651745
-0.23567345445299073,-0.23567345445299073
-0.3132518893868429,-0.3132518893868429
-0.3170132680503024,-0.3170132680503024
-0.23661379911885563,-0.23661379911885563
-0.15386346852274665,-0.15386346852274665
-0.14351967719823303,-0.14351967719823303
-0.15386346852274665,-0.15386346852274665
-0.11530933722228678,-0.11530933722228678
-0.03161866196031294,-0.03161866196031294
0.004114435342552294,0.004114435342552294
-0.03161866196031294,-0.03161866196031294
-0.07205348259250255,-0.07205348259250255
-0.03161866196031294,-0.03161866196031294
0.05160184096872846,0.05160184096872846
0.0910963169350532,0.0910963169350532
0.06241580462617452,0.06241580462617452
0.05019132396993115,0.05019132396993115
0.07981218094467471,0.07981218094467471
0.0910963169350532,0.0910963169350532
0.02950374132090391,0.02950374132090391
-0.03161866196031294,-0.03161866196031294
-0.015162630307677637,-0.015162630307677637
0.05019132396993115,0.05019132396993115
0.048310634638201407,0.048310634638201407
-0.03161866196031294,-0.03161866196031294
-0.08944985891100274,-0.08944985891100274
-0.03161866196031294,-0.03161866196031294
0.08169287027640446,0.08169287027640446
0.1315311375672428,0.1315311375672428
0.06758770028843133,0.06758770028843133
-0.03161866196031294,-0.03161866196031294
-0.10637606289657048,-0.10637606289657048
-0.15386346852274665,-0.15386346852274665
-0.18536501482921994,-0.18536501482921994
-0.15386346852274665,-0.15386346852274665
-0.08333761858288105,-0.08333761858288105
-0.07252365492543499,-0.07252365492543499
-0.1834843254974902,-0.1834843254974902
-0.3170132680503024,-0.3170132680503024
-0.3823672223279112,-0.3823672223279112
-0.3988232539805465,-0.3988232539805465
-0.43126514495288465,-0.43126514495288465
-0.43972824694566853,-0.43972824694566853
-0.39741273698174917,-0.39741273698174917
-0.35791826101542445,-0.35791826101542445
-0.3790760159973841,-0.3790760159973841
-0.3988232539805465,-0.3988232539805465
-0.38565842865843825,-0.38565842865843825
-0.3988232539805465,-0.3988232539805465
-0.47781220591319595,-0.47781220591319595
-0.5210680605429802,-0.5210680605429802
-0.48157358457665544,-0.48157358457665544
-0.43972824694566853,-0.43972824694566853
-0.4679385869216148,-0.4679385869216148
-0.4806332399107906,-0.4806332399107906
-0.4378475576139388,-0.4378475576139388
-0.43972824694566853,-0.43972824694566853
-0.5558608131799806,-0.5558608131799806
-0.6437830394383464,-0.6437830394383464
-0.5779589128278051,-0.5779589128278051
-0.43972824694566853,-0.43972824694566853
-0.3978829093146816,-0.3978829093146816
-0.43972824694566853,-0.43972824694566853
-0.45994565726176334,-0.45994565726176334
-0.43972824694566853,-0.43972824694566853
-0.4604158295946958,-0.4604158295946958
-0.5210680605429802,-0.5210680605429802
-0.5544502961811832,-0.5544502961811832
-0.5210680605429802,-0.5210680605429802
-0.47122979325214187,-0.47122979325214187
-0.43972824694566853,-0.43972824694566853
-0.43314583428461445,-0.43314583428461445
-0.43972824694566853,-0.43972824694566853
-0.4820437569095879,-0.4820437569095879
-0.5619730535081022,-0.5619730535081022
-0.6531864860969951,-0.6531864860969951
-0.6846880324034684,-0.6846880324034684
-0.6277971801186435,-0.6277971801186435
-0.5210680605429802,-0.5210680605429802
-0.47169996558507427,-0.47169996558507427
-0.5210680605429802,-0.5210680605429802
-0.616513044128265,-0.616513044128265
-0.6437830394383464,-0.6437830394383464
-0.589713221151116,-0.589713221151116
-0.5210680605429802,-0.5210680605429802
-0.5083734075538044,-0.5083734075538044
-0.5210680605429802,-0.5210680605429802
-0.526239956205237,-0.526239956205237
-0.5210680605429802,-0.5210680605429802
-0.5309416795345614,-0.5309416795345614
-0.5210680605429802,-0.5210680605429802
-0.47122979325214187,-0.47122979325214187
-0.3988232539805465,-0.3988232539805465
-0.3522761930202352,-0.3522761930202352
-0.3170132680503024,-0.3170132680503024
-0.26717500075946404,-0.26717500075946404
-0.1947684614878687,-0.1947684614878687
-0.1317653688749221,-0.1317653688749221
-0.07252365492543499,-0.07252365492543499
0.00834598633894423,0.00834598633894423
0.1315311375672428,0.1315311375672428
0.2645899077871226,0.2645899077871226
0.37649092302504267,0.37649092302504267
0.45077815162836776,0.45077815162836776
0.4992059019204088,0.4992059019204088
0.5057883145814629,0.5057883145814629
0.45830090895528675,0.45830090895528675
0.3605050637053398,0.3605050637053398
0.254246116462609,0.254246116462609
0.13482234389776987,0.13482234389776987
-0.03161866196031294,-0.03161866196031294
-0.2540101754373558,-0.2540101754373558
-0.43972824694566853,-0.43972824694566853
-0.5238890945405749,-0.5238890945405749
-0.5210680605429802,-0.5210680605429802
-0.5558608131799806,-0.5558608131799806
-0.6437830394383464,-0.6437830394383464
-0.7237123360368607,-0.7237123360368607
-0.6846880324034684,-0.6846880324034684
-0.5525696068494536,-0.5525696068494536
-0.43972824694566853,-0.43972824694566853
-0.46699824225574993,-0.46699824225574993
-0.6028780464732243,-0.6028780464732243
-0.7138387170452795,-0.7138387170452795
-0.6846880324034684,-0.6846880324034684
-0.5774887404948726,-0.5774887404948726
-0.5210680605429802,-0.5210680605429802
-0.5520994345165211,-0.5520994345165211
-0.5210680605429802,-0.5210680605429802
-0.25871189876668016,-0.25871189876668016
0.33605610239285305,0.33605610239285305
1.2815726639199845,1.2815726639199845
2.580658819812309,2.580658819812309
4.0908523531912975,4.0908523531912975
5.437425914709798,5.437425914709798
6.094256663816413,6.094256663816413
5.764195686097842,5.764195686097842
4.6179155384085595,4.6179155384085595
3.1928231972903425,3.1928231972903425
1.95391910001337,1.95391910001337
1.0704652864333202,1.0704652864333202
0.4930936615922871,0.4930936615922871
0.17243613053236487,0.17243613053236487
0.03749667098075535,0.03749667098075535
-0.03161866196031294,-0.03161866196031294
-0.14493019419703035,-0.14493019419703035
-0.27657844741811277,-0.27657844741811277
-0.3635603290106137,-0.3635603290106137
-0.3988232539805465,-0.3988232539805465
-0.42844411095529006,-0.42844411095529006
-0.43972824694566853,-0.43972824694566853
-0.4232722152930332,-0.4232722152930332
-0.3988232539805465,-0.3988232539805465
-0.3922408413194924,-0.3922408413194924
-0.35791826101542445,-0.35791826101542445
-0.31654309571737,-0.31654309571737
-0.3170132680503024,-0.3170132680503024
-0.38706894565723554,-0.38706894565723554
-0.3988232539805465,-0.3988232539805465
-0.3207746467137619,-0.3207746467137619
-0.23567345445299073,-0.23567345445299073
-0.24413655644577462,-0.24413655644577462
-0.27657844741811277,-0.27657844741811277
-0.2544803477702882,-0.2544803477702882
-0.1947684614878687,-0.1947684614878687
-0.15903536418500347,-0.15903536418500347
-0.1129584755576246,-0.1129584755576246
-0.04948521061174556,-0.04948521061174556
-0.03161866196031294,-0.03161866196031294
-0.10308485656604342,-0.10308485656604342
-0.15386346852274665,-0.15386346852274665
-0.09885330556965148,-0.09885330556965148
0.009286331004809105,0.009286331004809105
0.05160184096872846,0.05160184096872846
0.05019132396993115,0.05019132396993115
0.08545424893986395,0.08545424893986395
0.17243613053236487,0.17243613053236487
0.2246252594878654,0.2246252594878654
0.2133411234974869,0.2133411234974869
0.17384664753116216,0.17384664753116216
0.17243613053236487,0.17243613053236487
0.2171025021609464,0.2171025021609464
0.295151109427731,0.295151109427731
0.3567436850418803,0.3567436850418803
0.37649092302504267,0.37649092302504267
0.35157178937962347,0.35157178937962347
0.33605610239285305,0.33605610239285305
0.35768402970774515,0.35768402970774515
0.41739591599016473,0.41739591599016473
0.4705253896115301,0.4705253896115301
0.4992059019204088,0.4992059019204088
0.49873572958747636,0.49873572958747636
0.4992059019204088,0.4992059019204088
0.5119005549095846,0.5119005549095846
0.5401108948855309,0.5401108948855309
0.5513950308759094,0.5513950308759094
0.5401108948855309,0.5401108948855309
0.5109602102437197,0.5109602102437197
0.4992059019204088,0.4992059019204088
0.5043777975826657,0.5043777975826657
0.4992059019204088,0.4992059019204088
0.4131643649937728,0.4131643649937728
0.254246116462609,0.254246116462609
0.12353820790739138,0.12353820790739138
0.1315311375672428,0.1315311375672428
0.19453423018018942,0.19453423018018942
0.1315311375672428,0.1315311375672428
-0.0927410652415298,-0.0927410652415298
-0.27657844741811277,-0.27657844741811277
-0.2916239620719508,-0.2916239620719508
-0.23567345445299073,-0.23567345445299073
-0.2605925880984099,-0.2605925880984099
-0.3170132680503024,-0.3170132680503024
-0.31231154472097805,-0.31231154472097805
-0.27657844741811277,-0.27657844741811277
-0.3170132680503024,-0.3170132680503024
-0.3988232539805465,-0.3988232539805465
-0.43079497261995225,-0.43079497261995225
-0.3988232539805465,-0.3988232539805465
-0.3847180839925734,-0.3847180839925734
-0.3988232539805465,-0.3988232539805465
-0.410107389970925,-0.410107389970925
-0.3988232539805465,-0.3988232539805465
-0.3992934263134789,-0.3992934263134789
-0.3988232539805465,-0.3988232539805465
-0.3715532586704651,-0.3715532586704651
-0.3170132680503024,-0.3170132680503024
-0.3146624063856402,-0.3146624063856402
-0.3988232539805465,-0.3988232539805465
-0.5097839245526017,-0.5097839245526017
-0.5210680605429802,-0.5210680605429802
-0.4209213536283711,-0.4209213536283711
-0.3170132680503024,-0.3170132680503024
-0.32124481904669433,-0.32124481904669433
-0.3988232539805465,-0.3988232539805465
-0.46323686359229044,-0.46323686359229044
-0.4806332399107906,-0.4806332399107906
-0.4984997885622232,-0.4984997885622232
-0.5210680605429802,-0.5210680605429802
-0.5083734075538044,-0.5083734075538044
-0.43972824694566853,-0.43972824694566853
-0.3960022199829519,-0.3960022199829519
-0.43972824694566853,-0.43972824694566853
-0.5257697838723046,-0.5257697838723046
-0.5210680605429802,-0.5210680605429802
-0.41339859630145204,-0.41339859630145204
-0.3170132680503024,-0.3170132680503024
-0.33393947203587016,-0.33393947203587016
-0.3988232539805465,-0.3988232539805465
-0.4218616982942359,-0.4218616982942359
-0.3988232539805465,-0.3988232539805465
-0.3936513583182897,-0.3936513583182897
-0.3988232539805465,-0.3988232539805465
-0.3960022199829519,-0.3960022199829519
-0.3988232539805465,-0.3988232539805465
-0.44301945327619563,-0.44301945327619563
-0.4806332399107906,-0.4806332399107906
-0.4618263465934931,-0.4618263465934931
-0.3988232539805465,-0.3988232539805465
-0.3748444650009922,-0.3748444650009922
-0.3988232539805465,-0.3988232539805465
-0.4016442879781411,-0.4016442879781411
-0.3170132680503024,-0.3170132680503024
-0.20417190814651745,-0.20417190814651745
-0.15386346852274665,-0.15386346852274665
-0.16373708751432783,-0.16373708751432783
-0.1129584755576246,-0.1129584755576246
0.04172822197714728,0.04172822197714728
0.2133411234974869,0.2133411234974869
0.2998528327570554,0.2998528327570554
0.33605610239285305,0.33605610239285305
0.3797821293555697,0.3797821293555697
0.41739591599016473,0.41739591599016473
0.3896557483471509,0.3896557483471509
0.33605610239285305,0.33605610239285305
0.32101058773901503,0.32101058773901503
0.33605610239285305,0.33605610239285305
0.2838669734373525,0.2838669734373525
0.1315311375672428,0.1315311375672428
-0.06923244859490793,-0.06923244859490793
-0.23567345445299073,-0.23567345445299073
-0.35556739935076226,-0.35556739935076226
-0.43972824694566853,-0.43972824694566853
-0.5300013348686965,-0.5300013348686965
-0.6028780464732243,-0.6028780464732243
-0.6494251074335357,-0.6494251074335357
-0.6437830394383464,-0.6437830394383464
-0.6447233841042113,-0.6447233841042113
-0.6846880324034684,-0.6846880324034684
-0.7392280230236311,-0.7392280230236311
-0.725122853035658,-0.725122853035658
-0.6630601050885763,-0.6630601050885763
-0.6437830394383464,-0.6437830394383464
-0.7105475107147524,-0.7105475107147524
-0.7660278460007801,-0.7660278460007801
-0.7491016420152123,-0.7491016420152123
-0.6846880324034684,-0.6846880324034684
-0.5859518424876565,-0.5859518424876565
-0.3170132680503024,-0.3170132680503024
0.2514250824650143,0.2514250824650143
1.1522752723635643,1.1522752723635643
2.337579723686239,2.337579723686239
3.7231775888381318,3.7231775888381318
4.9982849557509015,4.9982849557509015
5.641480707202476,5.641480707202476
5.265342840856525,5.265342840856525
4.009042367261053,4.009042367261053
2.4222107436140776,2.4222107436140776
1.0704652864333202,1.0704652864333202
0.21663232982801398,0.21663232982801398
-0.15386346852274665,-0.15386346852274665
-0.233792765121261,-0.233792765121261
-0.23567345445299073,-0.23567345445299073
-0.2963256854012752,-0.2963256854012752
-0.3988232539805465,-0.3988232539805465
-0.462766691259358,-0.462766691259358
-0.43972824694566853,-0.43972824694566853
-0.39271101365242483,-0.39271101365242483
-0.3988232539805465,-0.3988232539805465
-0.4688789315874797,-0.4688789315874797
-0.5210680605429802,-0.5210680605429802
-0.526239956205237,-0.526239956205237
-0.5210680605429802,-0.5210680605429802
-0.5647940875056969,-0.5647940875056969
-0.6028780464732243,-0.6028780464732243
-0.593944772147508,-0.593944772147508
-0.5210680605429802,-0.5210680605429802
-0.4425492809432632,-0.4425492809432632
-0.35791826101542445,-0.35791826101542445
-0.3057291320599239,-0.3057291320599239
-0.3170132680503024,-0.3170132680503024
-0.39412153065122213,-0.39412153065122213
-0.43972824694566853,-0.43972824694566853
-0.40070394331227627,-0.40070394331227627
-0.3170132680503024,-0.3170132680503024
-0.2779889644169101,-0.2779889644169101
-0.27657844741811277,-0.27657844741811277
-0.26952586242412624,-0.26952586242412624
-0.23567345445299073,-0.23567345445299073
-0.20135087414892283,-0.20135087414892283
-0.15386346852274665,-0.15386346852274665
-0.08051658458528642,-0.08051658458528642
0.009286331004809105,0.009286331004809105
0.05771408129685015,0.05771408129685015
0.05019132396993115,0.05019132396993115
0.013047709668268603,0.013047709668268603
0.009286331004809105,0.009286331004809105
0.054893047299255524,0.054893047299255524
0.1315311375672428,0.1315311375672428
0.18842198985206773,0.18842198985206773
0.2133411234974869,0.2133411234974869
0.21146043416575716,0.21146043416575716
0.2133411234974869,0.2133411234974869
0.21616215749508152,0.21616215749508152
0.2133411234974869,0.2133411234974869
0.1804290601922163,0.1804290601922163
0.1315311375672428,0.1315311375672428
0.10049976359370194,0.10049976359370194
0.1315311375672428,0.1315311375672428
0.19124302384966235,0.19124302384966235
0.2133411234974869,0.2133411234974869
0.16068182220905391,0.16068182220905391
0.0910963169350532,0.0910963169350532
0.051131668635796025,0.051131668635796025
0.05019132396993115,0.05019132396993115
0.07087890661895839,0.07087890661895839
0.1315311375672428,0.1315311375672428
0.19923595350951379,0.19923595350951379
0.2133411234974869,0.2133411234974869
0.15974147754318904,0.15974147754318904
0.1315311375672428,0.1315311375672428
0.16209233920785124,0.16209233920785124
0.17243613053236487,0.17243613053236487
0.07511045761535033,0.07511045761535033
-0.07252365492543499,-0.07252365492543499
-0.18254398083162532,-0.18254398083162532
-0.23567345445299073,-0.23567345445299073
-0.27234689642172083,-0.27234689642172083
-0.27657844741811277,-0.27657844741811277
-0.24977862444096385,-0.24977862444096385
-0.23567345445299073,-0.23567345445299073
-0.2775187920839777,-0.2775187920839777
-0.3170132680503024,-0.3170132680503024
-0.30902033839045095,-0.30902033839045095
-0.27657844741811277,-0.27657844741811277
-0.28739241107555885,-0.28739241107555885
-0.3170132680503024,-0.3170132680503024
-0.304788787394059,-0.304788787394059
-0.23567345445299073,-0.23567345445299073
-0.1947684614878687,-0.1947684614878687
-0.23567345445299073,-0.23567345445299073
-0.3235956807113565,-0.3235956807113565
-0.35791826101542445,-0.35791826101542445
-0.3231255083784241,-0.3231255083784241
-0.27657844741811277,-0.27657844741811277
-0.271406551755856,-0.271406551755856
-0.27657844741811277,-0.27657844741811277
-0.2841012047450318,-0.2841012047450318
-0.3170132680503024,-0.3170132680503024
-0.36920239700580293,-0.36920239700580293
-0.35791826101542445,-0.35791826101542445
-0.29115378973901834,-0.29115378973901834
-0.27657844741811277,-0.27657844741811277
-0.36920239700580293,-0.36920239700580293
-0.43972824694566853,-0.43972824694566853
-0.38424791165964095,-0.38424791165964095
-0.27657844741811277,-0.27657844741811277
-0.271406551755856,-0.271406551755856
-0.35791826101542445,-0.35791826101542445
-0.41904066429664133,-0.41904066429664133
-0.3988232539805465,-0.3988232539805465
-0.3748444650009922,-0.3748444650009922
-0.3988232539805465,-0.3988232539805465
-0.4543035892665741,-0.4543035892665741
-0.4806332399107906,-0.4806332399107906
-0.47028944858627697,-0.47028944858627697
-0.43972824694566853,-0.43972824694566853
-0.4303248002870198,-0.4303248002870198
-0.43972824694566853,-0.43972824694566853
-0.4411387639444659,-0.4411387639444659
-0.3988232539805465,-0.3988232539805465
-0.3645006736764786,-0.3645006736764786
-0.3988232539805465,-0.3988232539805465
-0.48862616957064203,-0.48862616957064203
-0.5210680605429802,-0.5210680605429802
-0.4679385869216148,-0.4679385869216148
-0.3988232539805465,-0.3988232539805465
-0.36920239700580293,-0.36920239700580293
-0.3170132680503024,-0.3170132680503024
-0.22344897379674739,-0.22344897379674739
-0.15386346852274665,-0.15386346852274665
-0.13928812620184108,-0.13928812620184108
-0.07252365492543499,-0.07252365492543499
0.0934471785997154,0.0934471785997154
0.254246116462609,0.254246116462609
0.3078457624169068,0.3078457624169068
0.33605610239285305,0.33605610239285305
0.4216274669865566,0.4216274669865566
0.4992059019204088,0.4992059019204088
0.45218866862716506,0.45218866862716506
0.33605610239285305,0.33605610239285305
0.2777547331092308,0.2777547331092308
0.295151109427731,0.295151109427731
0.2674109417847172,0.2674109417847172
0.1315311375672428,0.1315311375672428
-0.07628503358889449,-0.07628503358889449
-0.27657844741811277,-0.27657844741811277
-0.4580649679300336,-0.4580649679300336
-0.6028780464732243,-0.6028780464732243
-0.6846880324034684,-0.6846880324034684
-0.6437830394383464,-0.6437830394383464
-0.5568011578458455,-0.5568011578458455
-0.5210680605429802,-0.5210680605429802
-0.5737273618314132,-0.5737273618314132
-0.6028780464732243,-0.6028780464732243
-0.563853742839832,-0.563853742839832
-0.5210680605429802,-0.5210680605429802
-0.5516292621835887,-0.5516292621835887
-0.6028780464732243,-0.6028780464732243
-0.6353199374455625,-0.6353199374455625
-0.6846880324034684,-0.6846880324034684
-0.7773119819911586,-0.7773119819911586
-0.7660278460007801,-0.7660278460007801
-0.48110341224372305,-0.48110341224372305
0.0910963169350532,0.0910963169350532
0.8076389523240877,0.8076389523240877
1.6417246709462314,1.6417246709462314
2.716068451696851,2.716068451696851
4.0499473602261755,4.0499473602261755
5.251707843201485,5.251707843201485
5.72329069313272,5.72329069313272
5.167076823273646,5.167076823273646
3.886797560698619,3.886797560698619
2.4654665982438617,2.4654665982438617
1.31542507189112,1.31542507189112
0.5213040015682333,0.5213040015682333
0.05019132396993115,0.05019132396993115
-0.15527398552154395,-0.15527398552154395
-0.1947684614878687,-0.1947684614878687
-0.226270007794342,-0.226270007794342
-0.3170132680503024,-0.3170132680503024
-0.4077565283062628,-0.4077565283062628
-0.3988232539805465,-0.3988232539805465
-0.3287675763736133,-0.3287675763736133
-0.3170132680503024,-0.3170132680503024
-0.4162196302990467,-0.4162196302990467
-0.5210680605429802,-0.5210680605429802
-0.5492784005189264,-0.5492784005189264
-0.5210680605429802,-0.5210680605429802
-0.5220084052088451,-0.5220084052088451
-0.5210680605429802,-0.5210680605429802
-0.48345427390838525,-0.48345427390838525
-0.3988232539805465,-0.3988232539805465
-0.3409920570298567,-0.3409920570298567
-0.3170132680503024,-0.3170132680503024
-0.3513358483543703,-0.3513358483543703
-0.43972824694566853,-0.43972824694566853
-0.5379942645285479,-0.5379942645285479
-0.5210680605429802,-0.5210680605429802
-0.35415688235196496,-0.35415688235196496
-0.15386346852274665,-0.15386346852274665
-0.11013744156002998,-0.11013744156002998
-0.23567345445299073,-0.23567345445299073
-0.3607392950130191,-0.3607392950130191
-0.3170132680503024,-0.3170132680503024
-0.1759615681705712,-0.1759615681705712
-0.1129584755576246,-0.1129584755576246
-0.1618563981825981,-0.1618563981825981
-0.15386346852274665,-0.15386346852274665
-0.03632038528963732,-0.03632038528963732
0.05019132396993115,0.05019132396993115
0.004584607675484732,0.004584607675484732
-0.03161866196031294,-0.03161866196031294
0.04595977297353922,0.04595977297353922
0.1315311375672428,0.1315311375672428
0.09626821259731001,0.09626821259731001
0.05019132396993115,0.05019132396993115
0.11460493358167506,0.11460493358167506
0.2133411234974869,0.2133411234974869
0.19876578117658136,0.19876578117658136
0.1315311375672428,0.1315311375672428
0.13811355022829694,0.13811355022829694
0.2133411234974869,0.2133411234974869
0.26082852912366306,0.26082852912366306
0.295151109427731,0.295151109427731
0.3473402383832315,0.3473402383832315
0.37649092302504267,0.37649092302504267
0.3332350683952584,0.3332350683952584
0.295151109427731,0.295151109427731
0.32853334506593407,0.32853334506593407
0.37649092302504267,0.37649092302504267
0.32524213873540697,0.32524213873540697
0.2133411234974869,0.2133411234974869
0.17008526886770267,0.17008526886770267
0.254246116462609,0.254246116462609
0.3506314447137586,0.3506314447137586
0.33605610239285305,0.33605610239285305
0.19735526417778404,0.19735526417778404
0.05019132396993115,0.05019132396993115
-0.03396952362497513,-0.03396952362497513
-0.07252365492543499,-0.07252365492543499
-0.14210916019943573,-0.14210916019943573
-0.23567345445299073,-0.23567345445299073
-0.29444499606954544,-0.29444499606954544
-0.27657844741811277,-0.27657844741811277
-0.24836810744216656,-0.24836810744216656
-0.27657844741811277,-0.27657844741811277
-0.35650774401662716,-0.35650774401662716
-0.3988232539805465,-0.3988232539805465
-0.37343394800219487,-0.37343394800219487
-0.3170132680503024,-0.3170132680503024
-0.27892930908277497,-0.27892930908277497
-0.23567345445299073,-0.23567345445299073
-0.19147725515734162,-0.19147725515734162
-0.1947684614878687,-0.1947684614878687
-0.28739241107555885,-0.28739241107555885
-0.3988232539805465,-0.3988232539805465
-0.45383341693364165,-0.45383341693364165
-0.43972824694566853,-0.43972824694566853
-0.4054056666416006,-0.4054056666416006
-0.35791826101542445,-0.35791826101542445
-0.31842378504909974,-0.31842378504909974
-0.3170132680503024,-0.3170132680503024
-0.3659111906752759,-0.3659111906752759
-0.3988232539805465,-0.3988232539805465
-0.3964723923158843,-0.3964723923158843
-0.3988232539805465,-0.3988232539805465
-0.4350265236163442,-0.4350265236163442
-0.43972824694566853,-0.43972824694566853
-0.3898899796548302,-0.3898899796548302
-0.35791826101542445,-0.35791826101542445
-0.42468273229183057,-0.42468273229183057
-0.5210680605429802,-0.5210680605429802
-0.5318820242004263,-0.5318820242004263
-0.43972824694566853,-0.43972824694566853
-0.3682620523399381,-0.3682620523399381
-0.3988232539805465,-0.3988232539805465
-0.4905068589023718,-0.4905068589023718
-0.5210680605429802,-0.5210680605429802
-0.45759479559710114,-0.45759479559710114
-0.35791826101542445,-0.35791826101542445
-0.3085501660575185,-0.3085501660575185
-0.3170132680503024,-0.3170132680503024
-0.36873222467287053,-0.36873222467287053
-0.43972824694566853,-0.43972824694566853
-0.5116646138843315,-0.5116646138843315
-0.5210680605429802,-0.5210680605429802
-0.4543035892665741,-0.4543035892665741
-0.35791826101542445,-0.35791826101542445
-0.3118413723880456,-0.3118413723880456
-0.3170132680503024,-0.3170132680503024
-0.35415688235196496,-0.35415688235196496
-0.3988232539805465,-0.3988232539805465
-0.4411387639444659,-0.4411387639444659
-0.43972824694566853,-0.43972824694566853
-0.4002337709793438,-0.4002337709793438
-0.35791826101542445,-0.35791826101542445
-0.33252895503707286,-0.33252895503707286
-0.27657844741811277,-0.27657844741811277
-0.19429828915493627,-0.19429828915493627
-0.15386346852274665,-0.15386346852274665
-0.19947018481719306,-0.19947018481719306
-0.23567345445299073,-0.23567345445299073
-0.15292312385688178,-0.15292312385688178
0.05019132396993115,0.05019132396993115
0.2533057717967441,0.2533057717967441
0.37649092302504267,0.37649092302504267
0.42538884565001617,0.42538884565001617
0.45830090895528675,0.45830090895528675
0.4874515935970979,0.4874515935970979
0.4992059019204088,0.4992059019204088
0.4705253896115301,0.4705253896115301
0.41739591599016473,0.41739591599016473
0.34357885971977203,0.34357885971977203
0.254246116462609,0.254246116462609
0.13999423956002668,0.13999423956002668
0.009286331004809105,0.009286331004809105
-0.1595055365179359,-0.1595055365179359
-0.35791826101542445,-0.35791826101542445
-0.5431661601908048,-0.5431661601908048
-0.6028780464732243,-0.6028780464732243
-0.5394047815273453,-0.5394047815273453
-0.43972824694566853,-0.43972824694566853
-0.44066859161153343,-0.44066859161153343
-0.5210680605429802,-0.5210680605429802
-0.5958254614792378,-0.5958254614792378
-0.6028780464732243,-0.6028780464732243
-0.5812501191583321,-0.5812501191583321
-0.5619730535081022,-0.5619730535081022
-0.5718466724996835,-0.5718466724996835
-0.6028780464732243,-0.6028780464732243
-0.6310883864491705,-0.6310883864491705
-0.6028780464732243,-0.6028780464732243
-0.5394047815273453,-0.5394047815273453
-0.43972824694566853,-0.43972824694566853
-0.15668450252034127,-0.15668450252034127
0.5401108948855309,0.5401108948855309
1.6247984669606639,1.6247984669606639
2.8660534259022983,2.8660534259022983
4.139280103483339,4.139280103483339
5.396520921744676,5.396520921744676
6.166193030755076,6.166193030755076
5.72329069313272,5.72329069313272
4.028319432911283,4.028319432911283
2.090739248896709,2.090739248896709
0.9101365209033591,0.9101365209033591
0.4992059019204088,0.4992059019204088
0.24907422080035216,0.24907422080035216
-0.07252365492543499,-0.07252365492543499
-0.25965224343254506,-0.25965224343254506
-0.23567345445299073,-0.23567345445299073
-0.21780690580155812,-0.21780690580155812
-0.3170132680503024,-0.3170132680503024
-0.4279739386223576,-0.4279739386223576
-0.43972824694566853,-0.43972824694566853
-0.40728635597333035,-0.40728635597333035
-0.3988232539805465,-0.3988232539805465
-0.41292842396851964,-0.41292842396851964
-0.3988232539805465,-0.3988232539805465
-0.38189704999497875,-0.38189704999497875
-0.3988232539805465,-0.3988232539805465
-0.4519527276019119,-0.4519527276019119
-0.43972824694566853,-0.43972824694566853
-0.3583884333483569,-0.3583884333483569
-0.27657844741811277,-0.27657844741811277
-0.28645206640969395,-0.28645206640969395
-0.3170132680503024,-0.3170132680503024
-0.2953853407354103,-0.2953853407354103
-0.23567345445299073,-0.23567345445299073
-0.21968759513328787,-0.21968759513328787
-0.23567345445299073,-0.23567345445299073
-0.24225586711404487,-0.24225586711404487
-0.23567345445299073,-0.23567345445299073
-0.25871189876668016,-0.25871189876668016
-0.27657844741811277,-0.27657844741811277
-0.2300313864578015,-0.2300313864578015
-0.1129584755576246,-0.1129584755576246
-0.02550642163219126,-0.02550642163219126
-0.03161866196031294,-0.03161866196031294
-0.10026382256844879,-0.10026382256844879
-0.1129584755576246,-0.1129584755576246
-0.01939418130406957,-0.01939418130406957
0.1315311375672428,0.1315311375672428
0.22039370849147347,0.22039370849147347
0.2133411234974869,0.2133411234974869
0.16820457953597293,0.16820457953597293
0.17243613053236487,0.17243613053236487
0.2067587108364328,0.2067587108364328
0.2133411234974869,0.2133411234974869
0.18795181751913528,0.18795181751913528
0.2133411234974869,0.2133411234974869
0.2913897307642715,0.2913897307642715
0.33605610239285305,0.33605610239285305
0.2829266287714876,0.2829266287714876
0.2133411234974869,0.2133411234974869
0.19641491951191917,0.19641491951191917
0.2133411234974869,0.2133411234974869
0.21851301915974372,0.21851301915974372
0.254246116462609,0.254246116462609
0.3191298984072853,0.3191298984072853
0.33605610239285305,0.33605610239285305
0.2622390461224604,0.2622390461224604
0.2133411234974869,0.2133411234974869
0.26317939078832525,0.26317939078832525
0.33605610239285305,0.33605610239285305
0.3191298984072853,0.3191298984072853
0.254246116462609,0.254246116462609
0.19876578117658136,0.19876578117658136
0.1315311375672428,0.1315311375672428
0.013517882001201041,0.013517882001201041
-0.07252365492543499,-0.07252365492543499
-0.06735175926317818,-0.06735175926317818
-0.03161866196031294,-0.03161866196031294
-0.07252365492543499,-0.07252365492543499
-0.15386346852274665,-0.15386346852274665
-0.18442467016335506,-0.18442467016335506
-0.15386346852274665,-0.15386346852274665
-0.17220018950711172,-0.17220018950711172
-0.27657844741811277,-0.27657844741811277
-0.38894963498896534,-0.38894963498896534
-0.3988232539805465,-0.3988232539805465
-0.32923774870654576,-0.32923774870654576
-0.27657844741811277,-0.27657844741811277
-0.29491516840247783,-0.29491516840247783
-0.3170132680503024,-0.3170132680503024
-0.30055723639766707,-0.30055723639766707
-0.27657844741811277,-0.27657844741811277
-0.2977362024000725,-0.2977362024000725
-0.3170132680503024,-0.3170132680503024
-0.29820637473300493,-0.29820637473300493
-0.27657844741811277,-0.27657844741811277
-0.32218516371255923,-0.32218516371255923
-0.3988232539805465,-0.3988232539805465
-0.43455635128341175,-0.43455635128341175
-0.3988232539805465,-0.3988232539805465
-0.33534998903466745,-0.33534998903466745
-0.27657844741811277,-0.27657844741811277
-0.2737574134205182,-0.2737574134205182
-0.35791826101542445,-0.35791826101542445
-0.4933278928999664,-0.4933278928999664
-0.5619730535081022,-0.5619730535081022
-0.5417556431920074,-0.5417556431920074
-0.5210680605429802,-0.5210680605429802
-0.5685554661691564,-0.5685554661691564
-0.6028780464732243,-0.6028780464732243
-0.5586818471775752,-0.5586818471775752
-0.4806332399107906,-0.4806332399107906
-0.4505422106031146,-0.4505422106031146
-0.43972824694566853,-0.43972824694566853
-0.41198807930265474,-0.41198807930265474
-0.3988232539805465,-0.3988232539805465
-0.44301945327619563,-0.44301945327619563
-0.4806332399107906,-0.4806332399107906
-0.4655877252569526,-0.4655877252569526
-0.43972824694566853,-0.43972824694566853
-0.473580654916804,-0.473580654916804
-0.5210680605429802,-0.5210680605429802
-0.5224785775417775,-0.5224785775417775
-0.4806332399107906,-0.4806332399107906
-0.45477376159950655,-0.45477376159950655
-0.43972824694566853,-0.43972824694566853
-0.42844411095529006,-0.42844411095529006
-0.43972824694566853,-0.43972824694566853
-0.4933278928999664,-0.4933278928999664
-0.5210680605429802,-0.5210680605429802
-0.4679385869216148,-0.4679385869216148
-0.35791826101542445,-0.35791826101542445
-0.2855117217438291,-0.2855117217438291
-0.27657844741811277,-0.27657844741811277
-0.28222051541330206,-0.28222051541330206
-0.23567345445299073,-0.23567345445299073
-0.1406986432006384,-0.1406986432006384
-0.03161866196031294,-0.03161866196031294
0.06382632162497183,0.06382632162497183
0.17243613053236487,0.17243613053236487
0.3116071410803663,0.3116071410803663
0.45830090895528675,0.45830090895528675
0.5354091715562065,0.5354091715562065
0.4992059019204088,0.4992059019204088
0.36238575303706955,0.36238575303706955
0.2133411234974869,0.2133411234974869
0.13059079290137793,0.13059079290137793
0.1315311375672428,0.1315311375672428
0.12494872490618869,0.12494872490618869
0.009286331004809105,0.009286331004809105
-0.22956121412486907,-0.22956121412486907
-0.4806332399107906,-0.4806332399107906
-0.6654109667532385,-0.6654109667532385
-0.7660278460007801,-0.7660278460007801
-0.8139854239598887,-0.8139854239598887
-0.7660278460007801,-0.7660278460007801
-0.6550671754287248,-0.6550671754287248
-0.5619730535081022,-0.5619730535081022
-0.575608051163143,-0.575608051163143
-0.6437830394383464,-0.6437830394383464
-0.6908002727315901,-0.6908002727315901
-0.6846880324034684,-0.6846880324034684
-0.6527163137640627,-0.6527163137640627
-0.6028780464732243,-0.6028780464732243
-0.5850114978217917,-0.5850114978217917
-0.6437830394383464,-0.6437830394383464
-0.7373473336919014,-0.7373473336919014
-0.6846880324034684,-0.6846880324034684
-0.36261998434474885,-0.36261998434474885
0.2133411234974869,0.2133411234974869
0.9830132325078869,0.9830132325078869
2.0093994352993976,2.0093994352993976
3.3164785208515735,3.3164785208515735
4.662111737704208,4.662111737704208
5.507011419983798,5.507011419983798
5.396520921744676,5.396520921744676
4.3245280026587185,4.3245280026587185
2.7847136123049867,2.7847136123049867
1.3911228174932424,1.3911228174932424
0.4992059019204088,0.4992059019204088
0.06899821728722864,0.06899821728722864
-0.1129584755576246,-0.1129584755576246
-0.22721035246020688,-0.22721035246020688
-0.3170132680503024,-0.3170132680503024
-0.37578480966685707,-0.37578480966685707
-0.3988232539805465,-0.3988232539805465
-0.42844411095529006,-0.42844411095529006
-0.4806332399107906,-0.4806332399107906
-0.5300013348686965,-0.5300013348686965
-0.5210680605429802,-0.5210680605429802
-0.4707596209192094,-0.4707596209192094
-0.43972824694566853,-0.43972824694566853
-0.4754613442485338,-0.4754613442485338
-0.5210680605429802,-0.5210680605429802
-0.5285908178698993,-0.5285908178698993
-0.4806332399107906,-0.4806332399107906
-0.440198419278601,-0.440198419278601
-0.3988232539805465,-0.3988232539805465
-0.35086567602143787,-0.35086567602143787
-0.27657844741811277,-0.27657844741811277
-0.226270007794342,-0.226270007794342
-0.23567345445299073,-0.23567345445299073
-0.3141922340527078,-0.3141922340527078
-0.3988232539805465,-0.3988232539805465
-0.4228020429601008,-0.4228020429601008
-0.35791826101542445,-0.35791826101542445
-0.2831608600791669,-0.2831608600791669
-0.27657844741811277,-0.27657844741811277
-0.32782723170774847,-0.32782723170774847
-0.3170132680503024,-0.3170132680503024
-0.19429828915493627,-0.19429828915493627
-0.03161866196031294,-0.03161866196031294
0.049721151636998716,0.049721151636998716
0.05019132396993115,0.05019132396993115
0.04595977297353922,0.04595977297353922
0.0910963169350532,0.0910963169350532
0.13576268856363474,0.13576268856363474
0.1315311375672428,0.1315311375672428
0.08075252561053958,0.08075252561053958
0.05019132396993115,0.05019132396993115
0.07040873428602595,0.07040873428602595
0.1315311375672428,0.1315311375672428
0.18466061118860824,0.18466061118860824
0.2133411234974869,0.2133411234974869
0.20628853850350035,0.20628853850350035
0.17243613053236487,0.17243613053236487
0.12024700157686431,0.12024700157686431
0.0910963169350532,0.0910963169350532
0.0986190742619722,0.0986190742619722
0.1315311375672428,0.1315311375672428
0.14469596288935105,0.14469596288935105
0.1315311375672428,0.1315311375672428
0.10379096992422901,0.10379096992422901
0.0910963169350532,0.0910963169350532
0.09955941892783707,0.09955941892783707
0.1315311375672428,0.1315311375672428
0.14798716921987812,0.14798716921987812
0.1315311375672428,0.1315311375672428
0.10520148692302632,0.10520148692302632
0.1315311375672428,0.1315311375672428
0.19500440251312184,0.19500440251312184
0.2133411234974869,0.2133411234974869
0.11695579524633726,0.11695579524633726
-0.03161866196031294,-0.03161866196031294
-0.13505657520544917,-0.13505657520544917
-0.15386346852274665,-0.15386346852274665
-0.15668450252034127,-0.15668450252034127
-0.1947684614878687,-0.1947684614878687
-0.26717500075946404,-0.26717500075946404
-0.3170132680503024,-0.3170132680503024
-0.3287675763736133,-0.3287675763736133
-0.3170132680503024,-0.3170132680503024
-0.327357059374816,-0.327357059374816
-0.35791826101542445,-0.35791826101542445
-0.3898899796548302,-0.3898899796548302
-0.3988232539805465,-0.3988232539805465
-0.4091670453050601,-0.4091670453050601
-0.43972824694566853,-0.43972824694566853
-0.4923875482341015,-0.4923875482341015
-0.5210680605429802,-0.5210680605429802
-0.5013208225598178,-0.5013208225598178
-0.43972824694566853,-0.43972824694566853
-0.3969425646488168,-0.3969425646488168
-0.3988232539805465,-0.3988232539805465
-0.41904066429664133,-0.41904066429664133
-0.3988232539805465,-0.3988232539805465
-0.37014274167166783,-0.37014274167166783
-0.3988232539805465,-0.3988232539805465
-0.48392444624131764,-0.48392444624131764
-0.5210680605429802,-0.5210680605429802
-0.48862616957064203,-0.48862616957064203
-0.4806332399107906,-0.4806332399107906
-0.5657344321715617,-0.5657344321715617
-0.6437830394383464,-0.6437830394383464
-0.6179235611270623,-0.6179235611270623
-0.5210680605429802,-0.5210680605429802
-0.45853514026296605,-0.45853514026296605
-0.43972824694566853,-0.43972824694566853
-0.4566544509312363,-0.4566544509312363
-0.5210680605429802,-0.5210680605429802
-0.608990286801346,-0.608990286801346
-0.6028780464732243,-0.6028780464732243
-0.48768582490477713,-0.48768582490477713
-0.3988232539805465,-0.3988232539805465
-0.44301945327619563,-0.44301945327619563
-0.5210680605429802,-0.5210680605429802
-0.5314118518674938,-0.5314118518674938
-0.5210680605429802,-0.5210680605429802
-0.593944772147508,-0.593944772147508
-0.6846880324034684,-0.6846880324034684
-0.6757547580777521,-0.6757547580777521
-0.5619730535081022,-0.5619730535081022
-0.4655877252569526,-0.4655877252569526
-0.43972824694566853,-0.43972824694566853
-0.46229651892642554,-0.46229651892642554
-0.4806332399107906,-0.4806332399107906
-0.4792227229119933,-0.4792227229119933
-0.43972824694566853,-0.43972824694566853
-0.3960022199829519,-0.3960022199829519
-0.3988232539805465,-0.3988232539805465
-0.4674684145886823,-0.4674684145886823
-0.5210680605429802,-0.5210680605429802
-0.4947384098987637,-0.4947384098987637
-0.3988232539805465,-0.3988232539805465
-0.31278171705391045,-0.31278171705391045
-0.27657844741811277,-0.27657844741811277
-0.29209413440488324,-0.29209413440488324
-0.3170132680503024,-0.3170132680503024
-0.2916239620719508,-0.2916239620719508
-0.15386346852274665,-0.15386346852274665
0.060535115294444775,0.060535115294444775
0.254246116462609,0.254246116462609
0.3605050637053398,0.3605050637053398
0.41739591599016473,0.41739591599016473
0.44701677296490827,0.44701677296490827
0.41739591599016473,0.41739591599016473
0.30972645174863656,0.30972645174863656
0.2133411234974869,0.2133411234974869
0.19406405784725697,0.19406405784725697
0.2133411234974869,0.2133411234974869
0.17055544120063512,0.17055544120063512
0.05019132396993115,0.05019132396993115
-0.12471278388093554,-0.12471278388093554
-0.3170132680503024,-0.3170132680503024
-0.5041418565574125,-0.5041418565574125
-0.6028780464732243,-0.6028780464732243
-0.6174533887941298,-0.6174533887941298
-0.6028780464732243,-0.6028780464732243
-0.6517759690981978,-0.6517759690981978
-0.725122853035658,-0.725122853035658
-0.7702593969971719,-0.7702593969971719
-0.7660278460007801,-0.7660278460007801
-0.7641471566690503,-0.7641471566690503
-0.7660278460007801,-0.7660278460007801
-0.7472209526834825,-0.7472209526834825
-0.6846880324034684,-0.6846880324034684
-0.6282673524515759,-0.6282673524515759
-0.6028780464732243,-0.6028780464732243
-0.574667706497278,-0.574667706497278
-0.43972824694566853,-0.43972824694566853
-0.1280039902114626,-0.1280039902114626
0.41739591599016473,0.41739591599016473
1.266997321599079,1.266997321599079
2.498848833882065,2.498848833882065
3.99493719727308,3.99493719727308
5.356086101112486,5.356086101112486
6.043007879526777,6.043007879526777
5.764195686097842,5.764195686097842
4.666343288700601,4.666343288700601
3.2337281902554644,3.2337281902554644
1.9299403110338156,1.9299403110338156
0.988655300503076,0.988655300503076
0.3943574716764753,0.3943574716764753
0.05019132396993115,0.05019132396993115
-0.1378776092030438,-0.1378776092030438
-0.23567345445299073,-0.23567345445299073
-0.324065853044289,-0.324065853044289
-0.43972824694566853,-0.43972824694566853
-0.5572713301787778,-0.5572713301787778
-0.6028780464732243,-0.6028780464732243
-0.5732571894984807,-0.5732571894984807
-0.5210680605429802,-0.5210680605429802
-0.4994401332280881,-0.4994401332280881
-0.4806332399107906,-0.4806332399107906
-0.455243933932439,-0.455243933932439
-0.43972824694566853,-0.43972824694566853
-0.46699824225574993,-0.46699824225574993
-0.4806332399107906,-0.4806332399107906
-0.4688789315874797,-0.4688789315874797
-0.43972824694566853,-0.43972824694566853
-0.443489625609128,-0.443489625609128
-0.43972824694566853,-0.43972824694566853
-0.417630147297844,-0.417630147297844
-0.3988232539805465,-0.3988232539805465
-0.42139152596130347,-0.42139152596130347
-0.43972824694566853,-0.43972824694566853
-0.41574945796611423,-0.41574945796611423
-0.35791826101542445,-0.35791826101542445
-0.31607292338443754,-0.31607292338443754
-0.27657844741811277,-0.27657844741811277
-0.22062793979915274,-0.22062793979915274
-0.15386346852274665,-0.15386346852274665
-0.1204812328845436,-0.1204812328845436
-0.1129584755576246,-0.1129584755576246
-0.10731640756243535,-0.10731640756243535
-0.07252365492543499,-0.07252365492543499
-0.03020814496151563,-0.03020814496151563
0.009286331004809105,0.009286331004809105
0.042668566643012155,0.042668566643012155
0.0910963169350532,0.0910963169350532
0.1277697589037833,0.1277697589037833
0.1315311375672428,0.1315311375672428
0.11272424424994532,0.11272424424994532
0.1315311375672428,0.1315311375672428
0.1818395771910136,0.1818395771910136
0.2133411234974869,0.2133411234974869
0.21287095116455448,0.21287095116455448
0.254246116462609,0.254246116462609
0.3365262747257855,0.3365262747257855
0.37649092302504267,0.37649092302504267
0.33840696405751525,0.33840696405751525
0.33605610239285305,0.33605610239285305
0.4225678116524215,0.4225678116524215
0.4992059019204088,0.4992059019204088
0.45595004729062455,0.45595004729062455
0.37649092302504267,0.37649092302504267
0.38025230168850216,0.38025230168850216
0.45830090895528675,0.45830090895528675
0.5024971082509359,0.5024971082509359
0.4992059019204088,0.4992059019204088
0.47240607894325987,0.47240607894325987
0.41739591599016473,0.41739591599016473
0.31066679641450146,0.31066679641450146
0.2133411234974869,0.2133411234974869
0.16444320087251343,0.16444320087251343
0.1315311375672428,0.1315311375672428
0.0558333919651204,0.0558333919651204
-0.03161866196031294,-0.03161866196031294
-0.09932347790258392,-0.09932347790258392
-0.15386346852274665,-0.15386346852274665
-0.21545604413689595,-0.21545604413689595
-0.23567345445299073,-0.23567345445299073
-0.2098139761417067,-0.2098139761417067
-0.1947684614878687,-0.1947684614878687
-0.24977862444096385,-0.24977862444096385
-0.3170132680503024,-0.3170132680503024
-0.3358201613675999,-0.3358201613675999
-0.3170132680503024,-0.3170132680503024
-0.33911136769812694,-0.33911136769812694
-0.3988232539805465,-0.3988232539805465
-0.43596686828220904,-0.43596686828220904
-0.3988232539805465,-0.3988232539805465
-0.3381710230322621,-0.3381710230322621
-0.3170132680503024,-0.3170132680503024
-0.35697791634955955,-0.35697791634955955
-0.3988232539805465,-0.3988232539805465
-0.41292842396851964,-0.41292842396851964
-0.3988232539805465,-0.3988232539805465
-0.3715532586704651,-0.3715532586704651
-0.3170132680503024,-0.3170132680503024
-0.27892930908277497,-0.27892930908277497
-0.3170132680503024,-0.3170132680503024
-0.4228020429601008,-0.4228020429601008
-0.4806332399107906,-0.4806332399107906
-0.45759479559710114,-0.45759479559710114
-0.43972824694566853,-0.43972824694566853
-0.49097703123530423,-0.49097703123530423
-0.5210680605429802,-0.5210680605429802
-0.4674684145886823,-0.4674684145886823
-0.3988232539805465,-0.3988232539805465
-0.4086968729721277,-0.4086968729721277
-0.43972824694566853,-0.43972824694566853
-0.42374238762596567,-0.42374238762596567
-0.3988232539805465,-0.3988232539805465
-0.4364370406151415,-0.4364370406151415
-0.4806332399107906,-0.4806332399107906
-0.45853514026296605,-0.45853514026296605
-0.3988232539805465,-0.3988232539805465
-0.3969425646488168,-0.3969425646488168
-0.43972824694566853,-0.43972824694566853
-0.45242289993484436,-0.45242289993484436
-0.3988232539805465,-0.3988232539805465
-0.33770085069932965,-0.33770085069932965
-0.3170132680503024,-0.3170132680503024
-0.3588586056812893,-0.3588586056812893
-0.43972824694566853,-0.43972824694566853
-0.5389346091944128,-0.5389346091944128
-0.6028780464732243,-0.6028780464732243
-0.597235978478035,-0.597235978478035
-0.5210680605429802,-0.5210680605429802
-0.4613561742605607,-0.4613561742605607
-0.4806332399107906,-0.4806332399107906
-0.5525696068494536,-0.5525696068494536
-0.5619730535081022,-0.5619730535081022
-0.4858051355730474,-0.4858051355730474
-0.3988232539805465,-0.3988232539805465
-0.36309015667768124,-0.36309015667768124
-0.3170132680503024,-0.3170132680503024
-0.22579983546140955,-0.22579983546140955
-0.15386346852274665,-0.15386346852274665
-0.18066329149989557,-0.18066329149989557
-0.23567345445299073,-0.23567345445299073
-0.20746311447704452,-0.20746311447704452
-0.07252365492543499,-0.07252365492543499
0.0934471785997154,0.0934471785997154
0.254246116462609,0.254246116462609
0.3967083333411375,0.3967083333411375
0.4992059019204088,0.4992059019204088
0.5269460695634226,0.5269460695634226
0.4992059019204088,0.4992059019204088
0.4310309136452054,0.4310309136452054
0.33605610239285305,0.33605610239285305
0.24296198047223047,0.24296198047223047
0.2133411234974869,0.2133411234974869
0.2109902618328247,0.2109902618328247
0.1315311375672428,0.1315311375672428
-0.0687622762619755,-0.0687622762619755
-0.27657844741811277,-0.27657844741811277
-0.40963721763799255,-0.40963721763799255
-0.4806332399107906,-0.4806332399107906
-0.5520994345165211,-0.5520994345165211
-0.5619730535081022,-0.5619730535081022
-0.49896996089515566,-0.49896996089515566
-0.43972824694566853,-0.43972824694566853
-0.5158961648807234,-0.5158961648807234
-0.6846880324034684,-0.6846880324034684
-0.7998802539719155,-0.7998802539719155
-0.7660278460007801,-0.7660278460007801
-0.6630601050885763,-0.6630601050885763
-0.6028780464732243,-0.6028780464732243
-0.6216849397905218,-0.6216849397905218
-0.6437830394383464,-0.6437830394383464
-0.6179235611270623,-0.6179235611270623
-0.5210680605429802,-0.5210680605429802
-0.32547637004308627,-0.32547637004308627
0.0910963169350532,0.0910963169350532
0.8452527389586827,0.8452527389586827
1.9684944423342754,1.9684944423342754
3.3197697271821003,3.3197697271821003
4.621206744739086,4.621206744739086
5.463755565354014,5.463755565354014
5.47833090767492,5.47833090767492
4.5661965817859915,4.5661965817859915
3.070108218394976,3.070108218394976
1.573549682671028,1.573549682671028
0.5401108948855309,0.5401108948855309
0.03514580931609316,0.03514580931609316
-0.15386346852274665,-0.15386346852274665
-0.2676451730923965,-0.2676451730923965
-0.35791826101542445,-0.35791826101542445
-0.36779188000700563,-0.36779188000700563
-0.27657844741811277,-0.27657844741811277
-0.18818604882681458,-0.18818604882681458
-0.1947684614878687,-0.1947684614878687
-0.2784591367498425,-0.2784591367498425
-0.3170132680503024,-0.3170132680503024
-0.25589086476908557,-0.25589086476908557
-0.15386346852274665,-0.15386346852274665
-0.1383477815359762,-0.1383477815359762
-0.23567345445299073,-0.23567345445299073
-0.3978829093146816,-0.3978829093146816
-0.5210680605429802,-0.5210680605429802
-0.5676151215032915,-0.5676151215032915
-0.4806332399107906,-0.4806332399107906
-0.2699960347570587,-0.2699960347570587
0.009286331004809105,0.009286331004809105
0.18748164518620286,0.18748164518620286
0.1315311375672428,0.1315311375672428
-0.1618563981825981,-0.1618563981825981
-0.4806332399107906,-0.4806332399107906
-0.5582116748446427,-0.5582116748446427
-0.3170132680503024,-0.3170132680503024
-0.03490986829084,-0.03490986829084
-0.03161866196031294,-0.03161866196031294
-0.2756381027522479,-0.2756381027522479
-0.3988232539805465,-0.3988232539805465
-0.24084535011524755,-0.24084535011524755
-0.03161866196031294,-0.03161866196031294
-0.015632802640610073,-0.015632802640610073
-0.07252365492543499,-0.07252365492543499
-0.00387849431729914,-0.00387849431729914
0.1315311375672428,0.1315311375672428
0.13811355022829694,0.13811355022829694
0.05019132396993115,0.05019132396993115
0.037026498647822904,0.037026498647822904
0.1315311375672428,0.1315311375672428
0.20346750450590573,0.20346750450590573
0.2133411234974869,0.2133411234974869
0.2171025021609464,0.2171025021609464
0.254246116462609,0.254246116462609
0.27399335444577133,0.27399335444577133
0.254246116462609,0.254246116462609
0.1982956088436489,0.1982956088436489
0.1315311375672428,0.1315311375672428
0.07228942361775571,0.07228942361775571
0.05019132396993115,0.05019132396993115
0.03984753264541753,0.03984753264541753
0.009286331004809105,0.009286331004809105
-0.03773090228843463,-0.03773090228843463
-0.03161866196031294,-0.03161866196031294
0.034205464650228286,0.034205464650228286
0.0910963169350532,0.0910963169350532
0.05536321963218797,0.05536321963218797
-0.03161866196031294,-0.03161866196031294
-0.06500089759851599,-0.06500089759851599
0.009286331004809105,0.009286331004809105
0.09579804026437758,0.09579804026437758
0.0910963169350532,0.0910963169350532
-0.00387849431729914,-0.00387849431729914
-0.07252365492543499,-0.07252365492543499
-0.08615865258047567,-0.08615865258047567
-0.1129584755576246,-0.1129584755576246
-0.20323156348065258,-0.20323156348065258
-0.27657844741811277,-0.27657844741811277
-0.2841012047450318,-0.2841012047450318
-0.27657844741811277,-0.27657844741811277
-0.32124481904669433,-0.32124481904669433
-0.35791826101542445,-0.35791826101542445
-0.32688688704188357,-0.32688688704188357
-0.27657844741811277,-0.27657844741811277
-0.31889395738203213,-0.31889395738203213
-0.43972824694566853,-0.43972824694566853
-0.5342328858650884,-0.5342328858650884
-0.5210680605429802,-0.5210680605429802
-0.43220548961874955,-0.43220548961874955
-0.3170132680503024,-0.3170132680503024
-0.2276805247931393,-0.2276805247931393
-0.1947684614878687,-0.1947684614878687
-0.25730138176788286,-0.25730138176788286
-0.3988232539805465,-0.3988232539805465
-0.5586818471775752,-0.5586818471775752
-0.6437830394383464,-0.6437830394383464
-0.6306182141162381,-0.6306182141162381
-0.5619730535081022,-0.5619730535081022
-0.5196575435441829,-0.5196575435441829
-0.5210680605429802,-0.5210680605429802
-0.5488082281859941,-0.5488082281859941
-0.5619730535081022,-0.5619730535081022
-0.5525696068494536,-0.5525696068494536
-0.5210680605429802,-0.5210680605429802
-0.5050822012232773,-0.5050822012232773
-0.5210680605429802,-0.5210680605429802
-0.5473977111871967,-0.5473977111871967
-0.5210680605429802,-0.5210680605429802
-0.45853514026296605,-0.45853514026296605
-0.43972824694566853,-0.43972824694566853
-0.515425992547791,-0.515425992547791
-0.6028780464732243,-0.6028780464732243
-0.6071095974696162,-0.6071095974696162
-0.5210680605429802,-0.5210680605429802
-0.43596686828220904,-0.43596686828220904
-0.3988232539805465,-0.3988232539805465
-0.41292842396851964,-0.41292842396851964
-0.43972824694566853,-0.43972824694566853
-0.4449001426079254,-0.4449001426079254
-0.3988232539805465,-0.3988232539805465
-0.3607392950130191,-0.3607392950130191
-0.3988232539805465,-0.3988232539805465
-0.4947384098987637,-0.4947384098987637
-0.5210680605429802,-0.5210680605429802
-0.4651175529240202,-0.4651175529240202
-0.43972824694566853,-0.43972824694566853
-0.5032015118915476,-0.5032015118915476
-0.5210680605429802,-0.5210680605429802
-0.41339859630145204,-0.41339859630145204
-0.27657844741811277,-0.27657844741811277
-0.23661379911885563,-0.23661379911885563
-0.23567345445299073,-0.23567345445299073
-0.19429828915493627,-0.19429828915493627
-0.15386346852274665,-0.15386346852274665
-0.1731405341729766,-0.1731405341729766
-0.15386346852274665,-0.15386346852274665
-0.004818838983164015,-0.004818838983164015
0.2133411234974869,0.2133411234974869
0.37884178468970486,0.37884178468970486
0.4992059019204088,0.4992059019204088
0.5970017471703558,0.5970017471703558
0.6214507084828426,0.6214507084828426
0.5372898608879362,0.5372898608879362
0.45830090895528675,0.45830090895528675
0.46676401094807063,0.46676401094807063
0.4992059019204088,0.4992059019204088
0.4465466006319758,0.4465466006319758
0.33605610239285305,0.33605610239285305
0.21193060649868958,0.21193060649868958
0.05019132396993115,0.05019132396993115
-0.17643174050350363,-0.17643174050350363
-0.35791826101542445,-0.35791826101542445
-0.4293844556211549,-0.4293844556211549
-0.43972824694566853,-0.43972824694566853
-0.5022611672256827,-0.5022611672256827
-0.5619730535081022,-0.5619730535081022
-0.5652642598386293,-0.5652642598386293
-0.5210680605429802,-0.5210680605429802
-0.5097839245526017,-0.5097839245526017
-0.5210680605429802,-0.5210680605429802
-0.5290609902028316,-0.5290609902028316
-0.5210680605429802,-0.5210680605429802
-0.5116646138843315,-0.5116646138843315
-0.4806332399107906,-0.4806332399107906
-0.4651175529240202,-0.4651175529240202
-0.5210680605429802,-0.5210680605429802
-0.6362602821114274,-0.6362602821114274
-0.6028780464732243,-0.6028780464732243
-0.17690191283643608,-0.17690191283643608
0.7032606944130866,0.7032606944130866
1.8142779171324361,1.8142779171324361
2.9478634118325426,2.9478634118325426
4.116711831502581,4.116711831502581
5.315181108147364,5.315181108147364
6.05335167085129,6.05335167085129
5.641480707202476,5.641480707202476
4.047126326228581,4.047126326228581
2.172549234826953,2.172549234826953
0.9308241035523863,0.9308241035523863
0.41739591599016473,0.41739591599016473
0.1729063028652973,0.1729063028652973
-0.03161866196031294,-0.03161866196031294
-0.13599691987131404,-0.13599691987131404
-0.15386346852274665,-0.15386346852274665
-0.23144190345659882,-0.23144190345659882
-0.35791826101542445,-0.35791826101542445
-0.41904066429664133,-0.41904066429664133
-0.3988232539805465,-0.3988232539805465
-0.4002337709793438,-0.4002337709793438
-0.43972824694566853,-0.43972824694566853
-0.4721701379180067,-0.4721701379180067
-0.4806332399107906,-0.4806332399107906
-0.5074330628879395,-0.5074330628879395
-0.5210680605429802,-0.5210680605429802
-0.48768582490477713,-0.48768582490477713
-0.3988232539805465,-0.3988232539805465
-0.3588586056812893,-0.3588586056812893
-0.3988232539805465,-0.3988232539805465
-0.47028944858627697,-0.47028944858627697
-0.43972824694566853,-0.43972824694566853
-0.3080799937245861,-0.3080799937245861
-0.1947684614878687,-0.1947684614878687
-0.20652276981117962,-0.20652276981117962
-0.27657844741811277,-0.27657844741811277
-0.29585551306834273,-0.29585551306834273
-0.23567345445299073,-0.23567345445299073
-0.1646774321801927,-0.1646774321801927
-0.1129584755576246,-0.1129584755576246
-0.08615865258047567,-0.08615865258047567
-0.07252365492543499,-0.07252365492543499
-0.06641141459731331,-0.06641141459731331
-0.03161866196031294,-0.03161866196031294
0.01022667567067398,0.01022667567067398
0.009286331004809105,0.009286331004809105
-0.03914141928723194,-0.03914141928723194
-0.03161866196031294,-0.03161866196031294
0.07746131928001251,0.07746131928001251
0.2133411234974869,0.2133411234974869
0.26411973545419015,0.26411973545419015
0.254246116462609,0.254246116462609
0.26694076945178474,0.26694076945178474
0.33605610239285305,0.33605610239285305
0.39905919500579967,0.39905919500579967
0.41739591599016473,0.41739591599016473
0.38401368035196165,0.38401368035196165
0.33605610239285305,0.33605610239285305
0.3078457624169068,0.3078457624169068
0.33605610239285305,0.33605610239285305
0.3783716123567724,0.3783716123567724
0.37649092302504267,0.37649092302504267
0.32054041540608263,0.32054041540608263
0.295151109427731,0.295151109427731
0.33135437906352866,0.33135437906352866
0.37649092302504267,0.37649092302504267
0.36473661470173174,0.36473661470173174
0.33605610239285305,0.33605610239285305
0.3318245513964611,0.3318245513964611
0.33605610239285305,0.33605610239285305
0.28809852443374445,0.28809852443374445
0.2133411234974869,0.2133411234974869
0.16773440720304048,0.16773440720304048
0.17243613053236487,0.17243613053236487
0.17008526886770267,0.17008526886770267
0.1315311375672428,0.1315311375672428
0.06382632162497183,0.06382632162497183
0.009286331004809105,0.009286331004809105
-0.022685387634596633,-0.022685387634596633
-0.03161866196031294,-0.03161866196031294
-0.04572383194828606,-0.04572383194828606
-0.07252365492543499,-0.07252365492543499
-0.11483916488935435,-0.11483916488935435
-0.15386346852274665,-0.15386346852274665
-0.20746311447704452,-0.20746311447704452
-0.27657844741811277,-0.27657844741811277
-0.33252895503707286,-0.33252895503707286
-0.3170132680503024,-0.3170132680503024
-0.2601224157654775,-0.2601224157654775
-0.23567345445299073,-0.23567345445299073
-0.2803398260815723,-0.2803398260815723
-0.3170132680503024,-0.3170132680503024
-0.3024379257293969,-0.3024379257293969
-0.27657844741811277,-0.27657844741811277
-0.3179536127161673,-0.3179536127161673
-0.3988232539805465,-0.3988232539805465
-0.44866152127138487,-0.44866152127138487
-0.43972824694566853,-0.43972824694566853
-0.4387879022798037,-0.4387879022798037
-0.4806332399107906,-0.4806332399107906
-0.530471507201629,-0.530471507201629
-0.5210680605429802,-0.5210680605429802
-0.47405082724973646,-0.47405082724973646
-0.43972824694566853,-0.43972824694566853
-0.4209213536283711,-0.4209213536283711
-0.35791826101542445,-0.35791826101542445
-0.28833275574142375,-0.28833275574142375
-0.3170132680503024,-0.3170132680503024
-0.4613561742605607,-0.4613561742605607
-0.5619730535081022,-0.5619730535081022
-0.5238890945405749,-0.5238890945405749
-0.43972824694566853,-0.43972824694566853
-0.45148255526897946,-0.45148255526897946
-0.5210680605429802,-0.5210680605429802
-0.5473977111871967,-0.5473977111871967
-0.5210680605429802,-0.5210680605429802
-0.5257697838723046,-0.5257697838723046
-0.5619730535081022,-0.5619730535081022
-0.5925342551487107,-0.5925342551487107
-0.6028780464732243,-0.6028780464732243
-0.6169832164611975,-0.6169832164611975
-0.6028780464732243,-0.6028780464732243
-0.5450468495225345,-0.5450468495225345
-0.4806332399107906,-0.4806332399107906
-0.4792227229119933,-0.4792227229119933
-0.5210680605429802,-0.5210680605429802
-0.5488082281859941,-0.5488082281859941
-0.5210680605429802,-0.5210680605429802
-0.47499117191560136,-0.47499117191560136
-0.43972824694566853,-0.43972824694566853
-0.4350265236163442,-0.4350265236163442
-0.43972824694566853,-0.43972824694566853
-0.4350265236163442,-0.4350265236163442
-0.3988232539805465,-0.3988232539805465
-0.3550972270178298,-0.3550972270178298
-0.3170132680503024,-0.3170132680503024
-0.2751679304193155,-0.2751679304193155
-0.1947684614878687,-0.1947684614878687
-0.11954088821867873,-0.11954088821867873
-0.1129584755576246,-0.1129584755576246
-0.15480381318861153,-0.15480381318861153
-0.1129584755576246,-0.1129584755576246
0.0558333919651204,0.0558333919651204
0.254246116462609,0.254246116462609
0.37555057835917777,0.37555057835917777
0.45830090895528675,0.45830090895528675
0.5537458925405715,0.5537458925405715
0.6214507084828426,0.6214507084828426
0.5866579558458421,0.5866579558458421
0.4992059019204088,0.4992059019204088
0.4503079792954353,0.4503079792954353
0.45830090895528675,0.45830090895528675
0.44607642829904337,0.44607642829904337
0.37649092302504267,0.37649092302504267
0.2523654271308792,0.2523654271308792
0.0910963169350532,0.0910963169350532
-0.11766019888694898,-0.11766019888694898
-0.3170132680503024,-0.3170132680503024
-0.443489625609128,-0.443489625609128
-0.43972824694566853,-0.43972824694566853
-0.3960022199829519,-0.3960022199829519
-0.3988232539805465,-0.3988232539805465
-0.47499117191560136,-0.47499117191560136
-0.5210680605429802,-0.5210680605429802
-0.4947384098987637,-0.4947384098987637
-0.43972824694566853,-0.43972824694566853
-0.43126514495288465,-0.43126514495288465
-0.43972824694566853,-0.43972824694566853
-0.4256230769576954,-0.4256230769576954
-0.3988232539805465,-0.3988232539805465
-0.4077565283062628,-0.4077565283062628
-0.3988232539805465,-0.3988232539805465
-0.2662346560935992,-0.2662346560935992
0.0910963169350532,0.0910963169350532
0.711253624072938,0.711253624072938
1.6417246709462314,1.6417246709462314
2.8641727365705685,2.8641727365705685
4.213097159753731,4.213097159753731
5.314710935814431,5.314710935814431
5.764195686097842,5.764195686097842
5.352324722449026,5.352324722449026
4.2540021527188525,4.2540021527188525
2.9102496251979475,2.9102496251979475
1.7644396498415977,1.7644396498415977
0.9844237495066841,0.9844237495066841
0.4992059019204088,0.4992059019204088
0.1714957858665,0.1714957858665
-0.03161866196031294,-0.03161866196031294
-0.11107778622589486,-0.11107778622589486
-0.1129584755576246,-0.1129584755576246
-0.1430495048653006,-0.1430495048653006
-0.23567345445299073,-0.23567345445299073
-0.34522360802624863,-0.34522360802624863
-0.3988232539805465,-0.3988232539805465
-0.4138687686343845,-0.4138687686343845
-0.43972824694566853,-0.43972824694566853
-0.49802961622929076,-0.49802961622929076
-0.5210680605429802,-0.5210680605429802
-0.4707596209192094,-0.4707596209192094
-0.35791826101542445,-0.35791826101542445
-0.2841012047450318,-0.2841012047450318
-0.27657844741811277,-0.27657844741811277
-0.32547637004308627,-0.32547637004308627
-0.35791826101542445,-0.35791826101542445
-0.3814268776620463,-0.3814268776620463
-0.3988232539805465,-0.3988232539805465
-0.395061875317087,-0.395061875317087
-0.3170132680503024,-0.3170132680503024
-0.20699294214411207,-0.20699294214411207
-0.15386346852274665,-0.15386346852274665
-0.19617897848666602,-0.19617897848666602
-0.23567345445299073,-0.23567345445299073
-0.20934380380877426,-0.20934380380877426
-0.15386346852274665,-0.15386346852274665
-0.14916174519342226,-0.14916174519342226
-0.15386346852274665,-0.15386346852274665
-0.09979365023551635,-0.09979365023551635
0.009286331004809105,0.009286331004809105
0.06993856195309352,0.06993856195309352
0.05019132396993115,0.05019132396993115
0.012577537335336167,0.012577537335336167
0.05019132396993115,0.05019132396993115
0.141404756558824,0.141404756558824
0.2133411234974869,0.2133411234974869
0.21804284682681127,0.21804284682681127
0.2133411234974869,0.2133411234974869
0.2518952547979468,0.2518952547979468
0.33605610239285305,0.33605610239285305
0.4094029863303133,0.4094029863303133
0.45830090895528675,0.45830090895528675
0.4827498702677735,0.4827498702677735
0.4992059019204088,0.4992059019204088
0.5086093485790576,0.5086093485790576
0.5401108948855309,0.5401108948855309
0.5880684728446395,0.5880684728446395
0.6214507084828426,0.6214507084828426
0.5946508855056936,0.5946508855056936
0.5401108948855309,0.5401108948855309
0.5217741739011658,0.5217741739011658
0.5805457155177205,0.5805457155177205
0.6524820824563834,0.6524820824563834
0.6623557014479645,0.6623557014479645
0.5979420918362206,0.5979420918362206
0.5401108948855309,0.5401108948855309
0.5194233122365036,0.5194233122365036
0.4992059019204088,0.4992059019204088
0.42538884565001617,0.42538884565001617
0.33605610239285305,0.33605610239285305
0.26694076945178474,0.26694076945178474
0.2133411234974869,0.2133411234974869
0.13341182689897257,0.13341182689897257
0.05019132396993115,0.05019132396993115
-0.0184538366382047,-0.0184538366382047
-0.07252365492543499,-0.07252365492543499
-0.1280039902114626,-0.1280039902114626
-0.15386346852274665,-0.15386346852274665
-0.1623265705155305,-0.1623265705155305
-0.1947684614878687,-0.1947684614878687
-0.2728170687546533,-0.2728170687546533
-0.3170132680503024,-0.3170132680503024
-0.2878625834084913,-0.2878625834084913
-0.23567345445299073,-0.23567345445299073
-0.2516593137726936,-0.2516593137726936
-0.3170132680503024,-0.3170132680503024
-0.37672515433272197,-0.37672515433272197
-0.3988232539805465,-0.3988232539805465
-0.4086968729721277,-0.4086968729721277
-0.3988232539805465,-0.3988232539805465
-0.3753146373339246,-0.3753146373339246
-0.35791826101542445,-0.35791826101542445
-0.3762549819997895,-0.3762549819997895
-0.3988232539805465,-0.3988232539805465
-0.40587583897453305,-0.40587583897453305
-0.3988232539805465,-0.3988232539805465
-0.40117411564520866,-0.40117411564520866
-0.3988232539805465,-0.3988232539805465
-0.40446532197573576,-0.40446532197573576
-0.43972824694566853,-0.43972824694566853
-0.5017909948927503,-0.5017909948927503
-0.5210680605429802,-0.5210680605429802
-0.4820437569095879,-0.4820437569095879
-0.43972824694566853,-0.43972824694566853
-0.46229651892642554,-0.46229651892642554
-0.5210680605429802,-0.5210680605429802
-0.5727870171655484,-0.5727870171655484
-0.6028780464732243,-0.6028780464732243
-0.6249761461210489,-0.6249761461210489
-0.6028780464732243,-0.6028780464732243
-0.5248294392064397,-0.5248294392064397
-0.43972824694566853,-0.43972824694566853
-0.43925807461273614,-0.43925807461273614
-0.5210680605429802,-0.5210680605429802
-0.6033482188061567,-0.6033482188061567
-0.6028780464732243,-0.6028780464732243
-0.5506889175177238,-0.5506889175177238
-0.5210680605429802,-0.5210680605429802
-0.5582116748446427,-0.5582116748446427
-0.6028780464732243,-0.6028780464732243
-0.5953552891463053,-0.5953552891463053
-0.5210680605429802,-0.5210680605429802
-0.4425492809432632,-0.4425492809432632
-0.3988232539805465,-0.3988232539805465
-0.4049354943086682,-0.4049354943086682
-0.43972824694566853,-0.43972824694566853
-0.4919173759011691,-0.4919173759011691
-0.5210680605429802,-0.5210680605429802
-0.4933278928999664,-0.4933278928999664
-0.3988232539805465,-0.3988232539805465
-0.304788787394059,-0.304788787394059
-0.27657844741811277,-0.27657844741811277
-0.3132518893868429,-0.3132518893868429
-0.3170132680503024,-0.3170132680503024
-0.2173367334686257,-0.2173367334686257
-0.03161866196031294,-0.03161866196031294
0.14093458422589156,0.14093458422589156
0.254246116462609,0.254246116462609
0.3304140343976638,0.3304140343976638
0.41739591599016473,0.41739591599016473
0.4902726275946925,0.4902726275946925
0.4992059019204088,0.4992059019204088
0.42585901798294856,0.42585901798294856
0.33605610239285305,0.33605610239285305
0.28104593943975786,0.28104593943975786
0.254246116462609,0.254246116462609
0.186541300520338,0.186541300520338
0.05019132396993115,0.05019132396993115
-0.1383477815359762,-0.1383477815359762
-0.3170132680503024,-0.3170132680503024
-0.4543035892665741,-0.4543035892665741
-0.5210680605429802,-0.5210680605429802
-0.5652642598386293,-0.5652642598386293
-0.6028780464732243,-0.6028780464732243
-0.6475444181018059,-0.6475444181018059
-0.6437830394383464,-0.6437830394383464
-0.6127516654648055,-0.6127516654648055
-0.6028780464732243,-0.6028780464732243
-0.639081316109022,-0.639081316109022
-0.6437830394383464,-0.6437830394383464
-0.5854816701547241,-0.5854816701547241
-0.5210680605429802,-0.5210680605429802
-0.5361135751968182,-0.5361135751968182
-0.6028780464732243,-0.6028780464732243
-0.6602390710909817,-0.6602390710909817
-0.6437830394383464,-0.6437830394383464
-0.48016306757785815,-0.48016306757785815
-0.03161866196031294,-0.03161866196031294
0.7690848210236279,0.7690848210236279
1.8866844564040315,1.8866844564040315
3.204107333280721,3.204107333280721
4.539396758808842,4.539396758808842
5.507481592316731,5.507481592316731
5.641480707202476,5.641480707202476
4.766960167948142,4.766960167948142
3.2746331832205864,3.2746331832205864
1.8156884341312334,1.8156884341312334
0.8255055009755203,0.8255055009755203
0.3031440390875824,0.3031440390875824
0.05019132396993115,0.05019132396993115
-0.09979365023551635,-0.09979365023551635
-0.1947684614878687,-0.1947684614878687
-0.2615329327642748,-0.2615329327642748
-0.3170132680503024,-0.3170132680503024
-0.3720234310033976,-0.3720234310033976
-0.3988232539805465,-0.3988232539805465
-0.39976359864641137,-0.39976359864641137
-0.3988232539805465,-0.3988232539805465
-0.4228020429601008,-0.4228020429601008
-0.43972824694566853,-0.43972824694566853
-0.42985462795408735,-0.42985462795408735
-0.3988232539805465,-0.3988232539805465
-0.3936513583182897,-0.3936513583182897
-0.3988232539805465,-0.3988232539805465
-0.4209213536283711,-0.4209213536283711
-0.43972824694566853,-0.43972824694566853
-0.4641772082581553,-0.4641772082581553
-0.43972824694566853,-0.43972824694566853
-0.36403050134354614,-0.36403050134354614
-0.27657844741811277,-0.27657844741811277
-0.24883827977509898,-0.24883827977509898
-0.27657844741811277,-0.27657844741811277
-0.31654309571737,-0.31654309571737
-0.3170132680503024,-0.3170132680503024
-0.28598189407676156,-0.28598189407676156
-0.23567345445299073,-0.23567345445299073
-0.19147725515734162,-0.19147725515734162
-0.15386346852274665,-0.15386346852274665
-0.1331758858737194,-0.1331758858737194
-0.1129584755576246,-0.1129584755576246
-0.08380779091581349,-0.08380779091581349
-0.03161866196031294,-0.03161866196031294
0.00834598633894423,0.00834598633894423
0.009286331004809105,0.009286331004809105
-0.026446766298056132,-0.026446766298056132
-0.03161866196031294,-0.03161866196031294
0.0280932243221066,0.0280932243221066
0.1315311375672428,0.1315311375672428
0.20158681517417598,0.20158681517417598
0.2133411234974869,0.2133411234974869
0.18842198985206773,0.18842198985206773
0.17243613053236487,0.17243613053236487
0.156450271212662,0.156450271212662
0.1315311375672428,0.1315311375672428
0.10849269325355339,0.10849269325355339
0.1315311375672428,0.1315311375672428
0.18513078352154066,0.18513078352154066
0.2133411234974869,0.2133411234974869
0.1757273368628919,0.1757273368628919
0.1315311375672428,0.1315311375672428
0.14422579055641863,0.14422579055641863
0.2133411234974869,0.2133411234974869
0.25001456546621703,0.25001456546621703
0.2133411234974869,0.2133411234974869
0.14422579055641863,0.14422579055641863
0.1315311375672428,0.1315311375672428
0.1757273368628919,0.1757273368628919
0.2133411234974869,0.2133411234974869
0.18748164518620286,0.18748164518620286
0.1315311375672428,0.1315311375672428
0.08310338727520176,0.08310338727520176
0.05019132396993115,0.05019132396993115
0.006935469340146918,0.006935469340146918
-0.03161866196031294,-0.03161866196031294
-0.06688158693024575,-0.06688158693024575
-0.1129584755576246,-0.1129584755576246
-0.18536501482921994,-0.18536501482921994
-0.23567345445299073,-0.23567345445299073
-0.24413655644577462,-0.24413655644577462
-0.23567345445299073,-0.23567345445299073
-0.25589086476908557,-0.25589086476908557
-0.27657844741811277,-0.27657844741811277
-0.26811534542532894,-0.26811534542532894
-0.23567345445299073,-0.23567345445299073
-0.22532966312847713,-0.22532966312847713
-0.23567345445299073,-0.23567345445299073
-0.2577715541008153,-0.2577715541008153
-0.27657844741811277,-0.27657844741811277
-0.2902134450731535,-0.2902134450731535
-0.27657844741811277,-0.27657844741811277
-0.2577715541008153,-0.2577715541008153
-0.27657844741811277,-0.27657844741811277
-0.3588586056812893,-0.3588586056812893
-0.43972824694566853,-0.43972824694566853
-0.4557141062653714,-0.4557141062653714
-0.3988232539805465,-0.3988232539805465
-0.3395815400310594,-0.3395815400310594
-0.3170132680503024,-0.3170132680503024
-0.334879816701735,-0.334879816701735
-0.35791826101542445,-0.35791826101542445
-0.380016360663249,-0.380016360663249
-0.3988232539805465,-0.3988232539805465
-0.43455635128341175,-0.43455635128341175
-0.4806332399107906,-0.4806332399107906
-0.5201277158771154,-0.5201277158771154
-0.5210680605429802,-0.5210680605429802
-0.500380477893953,-0.500380477893953
-0.4806332399107906,-0.4806332399107906
-0.47028944858627697,-0.47028944858627697
-0.43972824694566853,-0.43972824694566853
-0.40211446031107356,-0.40211446031107356
-0.3988232539805465,-0.3988232539805465
-0.45712462326416875,-0.45712462326416875
-0.5210680605429802,-0.5210680605429802
-0.5422258155249399,-0.5422258155249399
-0.5210680605429802,-0.5210680605429802
-0.5149558202148585,-0.5149558202148585
-0.5210680605429802,-0.5210680605429802
-0.4947384098987637,-0.4947384098987637
-0.3988232539805465,-0.3988232539805465
-0.3104308553892483,-0.3104308553892483
-0.3170132680503024,-0.3170132680503024
-0.4256230769576954,-0.4256230769576954
-0.5210680605429802,-0.5210680605429802
-0.5426959878578723,-0.5426959878578723
-0.5210680605429802,-0.5210680605429802
-0.5215382328759126,-0.5215382328759126
-0.5210680605429802,-0.5210680605429802
-0.5013208225598178,-0.5013208225598178
-0.4806332399107906,-0.4806332399107906
-0.4796928952449257,-0.4796928952449257
-0.43972824694566853,-0.43972824694566853
-0.3381710230322621,-0.3381710230322621
-0.23567345445299073,-0.23567345445299073
-0.20323156348065258,-0.20323156348065258
-0.1947684614878687,-0.1947684614878687
-0.14022847086770596,-0.14022847086770596
-0.03161866196031294,-0.03161866196031294
0.08592442127279638,0.08592442127279638
0.2133411234974869,0.2133411234974869
0.3393473087233801,0.3393473087233801
0.41739591599016473,0.41739591599016473
0.40141005667046187,0.40141005667046187
0.33605610239285305,0.33605610239285305
0.280105594773893,0.280105594773893
0.254246116462609,0.254246116462609
0.2321480168147844,0.2321480168147844
0.2133411234974869,0.2133411234974869
0.17948871552635143,0.17948871552635143
0.0910963169350532,0.0910963169350532
-0.09321123757446223,-0.09321123757446223
-0.3170132680503024,-0.3170132680503024
-0.49426823756583127,-0.49426823756583127
-0.5619730535081022,-0.5619730535081022
-0.5930044274816432,-0.5930044274816432
-0.6437830394383464,-0.6437830394383464
-0.732645610362577,-0.732645610362577
-0.7660278460007801,-0.7660278460007801
-0.7119580277135498,-0.7119580277135498
-0.6028780464732243,-0.6028780464732243
-0.533762713532156,-0.533762713532156
-0.5210680605429802,-0.5210680605429802
-0.5318820242004263,-0.5318820242004263
-0.5210680605429802,-0.5210680605429802
-0.5135453032160612,-0.5135453032160612
-0.5210680605429802,-0.5210680605429802
-0.52294874987471,-0.52294874987471
-0.43972824694566853,-0.43972824694566853
-0.21686656113569325,-0.21686656113569325
0.2133411234974869,0.2133411234974869
0.9374065162134404,0.9374065162134404
2.049834255931587,2.049834255931587
3.4702248737204804,3.4702248737204804
4.866166530196886,4.866166530196886
5.742097586450017,5.742097586450017
5.764195686097842,5.764195686097842
4.956909790452847,4.956909790452847
3.682742768205942,3.682742768205942
2.359207651001131,2.359207651001131
1.274520078925998,1.274520078925998
0.5227145185670307,0.5227145185670307
0.0910963169350532,0.0910963169350532
-0.12236192221627334,-0.12236192221627334
-0.23567345445299073,-0.23567345445299073
-0.33252895503707286,-0.33252895503707286
-0.3988232539805465,-0.3988232539805465
-0.4148091133002494,-0.4148091133002494
-0.3988232539805465,-0.3988232539805465
-0.40728635597333035,-0.40728635597333035
-0.43972824694566853,-0.43972824694566853
-0.4731104825838716,-0.4731104825838716
-0.4806332399107906,-0.4806332399107906
-0.4721701379180067,-0.4721701379180067
-0.43972824694566853,-0.43972824694566853
-0.41292842396851964,-0.41292842396851964
-0.3988232539805465,-0.3988232539805465
-0.41339859630145204,-0.41339859630145204
-0.3988232539805465,-0.3988232539805465
-0.36167963967888395,-0.36167963967888395
-0.3170132680503024,-0.3170132680503024
-0.2996168917318022,-0.2996168917318022
-0.27657844741811277,-0.27657844741811277
-0.24742776277630169,-0.24742776277630169
-0.23567345445299073,-0.23567345445299073
-0.263883794428937,-0.263883794428937
-0.27657844741811277,-0.27657844741811277
-0.23285242045539611,-0.23285242045539611
-0.15386346852274665,-0.15386346852274665
-0.12471278388093554,-0.12471278388093554
-0.15386346852274665,-0.15386346852274665
-0.1759615681705712,-0.1759615681705712
-0.1129584755576246,-0.1129584755576246
-0.008580217646623515,-0.008580217646623515
0.05019132396993115,0.05019132396993115
0.028563396655039035,0.028563396655039035
0.009286331004809105,0.009286331004809105
0.039377360312485093,0.039377360312485093
0.0910963169350532,0.0910963169350532
0.11084355491821557,0.11084355491821557
0.1315311375672428,0.1315311375672428
0.1743168198640946,0.1743168198640946
0.2133411234974869,0.2133411234974869
0.20957974483402741,0.20957974483402741
0.2133411234974869,0.2133411234974869
0.26317939078832525,0.26317939078832525
0.33605610239285305,0.33605610239285305
0.36849799336519123,0.36849799336519123
0.37649092302504267,0.37649092302504267
0.3920066100118131,0.3920066100118131
0.41739591599016473,0.41739591599016473
0.4183362606560296,0.4183362606560296
0.41739591599016473,0.41739591599016473
0.4446659113002461,0.4446659113002461
0.4992059019204088,0.4992059019204088
0.5217741739011658,0.5217741739011658
0.4992059019204088,0.4992059019204088
0.45924125362115165,0.45924125362115165
0.45830090895528675,0.45830090895528675
0.486511248931233,0.486511248931233
0.4992059019204088,0.4992059019204088
0.44137470496971903,0.44137470496971903
0.33605610239285305,0.33605610239285305
0.2321480168147844,0.2321480168147844
0.17243613053236487,0.17243613053236487
0.12306803557445894,0.12306803557445894
0.05019132396993115,0.05019132396993115
-0.04807469361294825,-0.04807469361294825
-0.1129584755576246,-0.1129584755576246
-0.12753381787853016,-0.12753381787853016
-0.1129584755576246,-0.1129584755576246
-0.1242426115480031,-0.1242426115480031
-0.15386346852274665,-0.15386346852274665
-0.17173001717417927,-0.17173001717417927
-0.15386346852274665,-0.15386346852274665
-0.15010208985928716,-0.15010208985928716
-0.1947684614878687,-0.1947684614878687
-0.27657844741811277,-0.27657844741811277
-0.3170132680503024,-0.3170132680503024
-0.29209413440488324,-0.29209413440488324
-0.23567345445299073,-0.23567345445299073
-0.21686656113569325,-0.21686656113569325
-0.23567345445299073,-0.23567345445299073
-0.26576448376066675,-0.26576448376066675
-0.27657844741811277,-0.27657844741811277
-0.2808099984145047,-0.2808099984145047
-0.27657844741811277,-0.27657844741811277
-0.263883794428937,-0.263883794428937
-0.23567345445299073,-0.23567345445299073
-0.22203845679795006,-0.22203845679795006
-0.23567345445299073,-0.23567345445299073
-0.26717500075946404,-0.26717500075946404
-0.27657844741811277,-0.27657844741811277
-0.271406551755856,-0.271406551755856
-0.27657844741811277,-0.27657844741811277
-0.30525895972699146,-0.30525895972699146
-0.3170132680503024,-0.3170132680503024
-0.3118413723880456,-0.3118413723880456
-0.3170132680503024,-0.3170132680503024
-0.3513358483543703,-0.3513358483543703
-0.35791826101542445,-0.35791826101542445
-0.31842378504909974,-0.31842378504909974
-0.27657844741811277,-0.27657844741811277
-0.2892731004072886,-0.2892731004072886
-0.3170132680503024,-0.3170132680503024
-0.3109010277221807,-0.3109010277221807
-0.27657844741811277,-0.27657844741811277
-0.2779889644169101,-0.2779889644169101
-0.3170132680503024,-0.3170132680503024
-0.35697791634955955,-0.35697791634955955
-0.35791826101542445,-0.35791826101542445
-0.3395815400310594,-0.3395815400310594
-0.3170132680503024,-0.3170132680503024
-0.31231154472097805,-0.31231154472097805
-0.3170132680503024,-0.3170132680503024
-0.327357059374816,-0.327357059374816
-0.3170132680503024,-0.3170132680503024
-0.2967958577342076,-0.2967958577342076
-0.27657844741811277,-0.27657844741811277
-0.2751679304193155,-0.2751679304193155
-0.27657844741811277,-0.27657844741811277
-0.28880292807435615,-0.28880292807435615
-0.3170132680503024,-0.3170132680503024
-0.357448088682492,-0.357448088682492
-0.35791826101542445,-0.35791826101542445
-0.30760982139165366,-0.30760982139165366
-0.23567345445299073,-0.23567345445299073
-0.18818604882681458,-0.18818604882681458
-0.15386346852274665,-0.15386346852274665
-0.11907071588574629,-0.11907071588574629
-0.07252365492543499,-0.07252365492543499
-0.01281176864301545,-0.01281176864301545
0.0910963169350532,0.0910963169350532
0.23355853381358171,0.23355853381358171
0.37649092302504267,0.37649092302504267
0.4738165959420572,0.4738165959420572
0.5401108948855309,0.5401108948855309
0.5824264048494502,0.5824264048494502
0.5805457155177205,0.5805457155177205
0.49873572958747636,0.49873572958747636
0.37649092302504267,0.37649092302504267
0.2852774904361498,0.2852774904361498
0.254246116462609,0.254246116462609
0.20252715984004085,0.20252715984004085
0.05019132396993115,0.05019132396993115
-0.1933579444890714,-0.1933579444890714
-0.3988232539805465,-0.3988232539805465
-0.5027313395586152,-0.5027313395586152
-0.5210680605429802,-0.5210680605429802
-0.5342328858650884,-0.5342328858650884
-0.5210680605429802,-0.5210680605429802
-0.49661909923049347,-0.49661909923049347
-0.4806332399107906,-0.4806332399107906
-0.5027313395586152,-0.5027313395586152
-0.5210680605429802,-0.5210680605429802
-0.5332925411992235,-0.5332925411992235
-0.5619730535081022,-0.5619730535081022
-0.6099306314672108,-0.6099306314672108
-0.6028780464732243,-0.6028780464732243
-0.5431661601908048,-0.5431661601908048
-0.5210680605429802,-0.5210680605429802
-0.5991166678097648,-0.5991166678097648
-0.6028780464732243,-0.6028780464732243
-0.2389646607835178,-0.2389646607835178
0.6214507084828426,0.6214507084828426
1.7569168925146788,1.7569168925146788
2.9069584188674202,2.9069584188674202
4.06828408121054,4.06828408121054
5.274276115182242,5.274276115182242
6.046299085857304,6.046299085857304
5.641480707202476,5.641480707202476
3.991645990942553,3.991645990942553
2.049834255931587,2.049834255931587
0.8010565396630336,0.8010565396630336
0.33605610239285305,0.33605610239285305
0.1301206205684455,0.1301206205684455
-0.07252365492543499,-0.07252365492543499
-0.1731405341729766,-0.1731405341729766
-0.15386346852274665,-0.15386346852274665
-0.19053691049147675,-0.19053691049147675
-0.3170132680503024,-0.3170132680503024
-0.4077565283062628,-0.4077565283062628
-0.3988232539805465,-0.3988232539805465
-0.38941980732189774,-0.38941980732189774
-0.43972824694566853,-0.43972824694566853
-0.5093137522196692,-0.5093137522196692
-0.5210680605429802,-0.5210680605429802
-0.4867454802389123,-0.4867454802389123
-0.43972824694566853,-0.43972824694566853
-0.4232722152930332,-0.4232722152930332
-0.3988232539805465,-0.3988232539805465
-0.364970846009411,-0.364970846009411
-0.3170132680503024,-0.3170132680503024
-0.29726603006714003,-0.29726603006714003
-0.27657844741811277,-0.27657844741811277
-0.2502487967738963,-0.2502487967738963
-0.23567345445299073,-0.23567345445299073
-0.2605925880984099,-0.2605925880984099
-0.27657844741811277,-0.27657844741811277
-0.23943483311645025,-0.23943483311645025
-0.15386346852274665,-0.15386346852274665
-0.08850951424513787,-0.08850951424513787
-0.07252365492543499,-0.07252365492543499
-0.10872692456123266,-0.10872692456123266
-0.15386346852274665,-0.15386346852274665
-0.1580950195191386,-0.1580950195191386
-0.07252365492543499,-0.07252365492543499
0.054893047299255524,0.054893047299255524
0.1315311375672428,0.1315311375672428
0.11507510591460751,0.11507510591460751
0.0910963169350532,0.0910963169350532
0.1301206205684455,0.1301206205684455
0.2133411234974869,0.2133411234974869
0.25706715046020356,0.25706715046020356
0.254246116462609,0.254246116462609
0.2307374998159871,0.2307374998159871
0.2133411234974869,0.2133411234974869
0.19970612584244624,0.19970612584244624
0.2133411234974869,0.2133411234974869
0.2410812911405007,0.2410812911405007
0.254246116462609,0.254246116462609
0.2410812911405007,0.2410812911405007
0.254246116462609,0.254246116462609
0.28950904143254175,0.28950904143254175
0.295151109427731,0.295151109427731
0.2434321528051629,0.2434321528051629
0.2133411234974869,0.2133411234974869
0.2373199124770412,0.2373199124770412
0.254246116462609,0.254246116462609
0.1954745748460543,0.1954745748460543
0.1315311375672428,0.1315311375672428
0.14422579055641863,0.14422579055641863
0.2133411234974869,0.2133411234974869
0.2307374998159871,0.2307374998159871
0.17243613053236487,0.17243613053236487
0.08874545527039102,0.08874545527039102
0.05019132396993115,0.05019132396993115
0.06852804495429621,0.06852804495429621
0.1315311375672428,0.1315311375672428
0.1714957858665,0.1714957858665
0.1315311375672428,0.1315311375672428
0.007405641673079355,0.007405641673079355
-0.1129584755576246,-0.1129584755576246
-0.17643174050350363,-0.17643174050350363
-0.1947684614878687,-0.1947684614878687
-0.22062793979915274,-0.22062793979915274
-0.23567345445299073,-0.23567345445299073
-0.2126350101393013,-0.2126350101393013
-0.15386346852274665,-0.15386346852274665
-0.1265934732126653,-0.1265934732126653
-0.15386346852274665,-0.15386346852274665
-0.20934380380877426,-0.20934380380877426
-0.23567345445299073,-0.23567345445299073
-0.24742776277630169,-0.24742776277630169
-0.27657844741811277,-0.27657844741811277
-0.32218516371255923,-0.32218516371255923
-0.3170132680503024,-0.3170132680503024
-0.2544803477702882,-0.2544803477702882
-0.1947684614878687,-0.1947684614878687
-0.20088070181599038,-0.20088070181599038
-0.23567345445299073,-0.23567345445299073
-0.2591820710996126,-0.2591820710996126
-0.27657844741811277,-0.27657844741811277
-0.3217149913796268,-0.3217149913796268
-0.35791826101542445,-0.35791826101542445
-0.3522761930202352,-0.3522761930202352
-0.3170132680503024,-0.3170132680503024
-0.30666947672578876,-0.30666947672578876
-0.3170132680503024,-0.3170132680503024
-0.3358201613675999,-0.3358201613675999
-0.35791826101542445,-0.35791826101542445
-0.3913004966536275,-0.3913004966536275
-0.3988232539805465,-0.3988232539805465
-0.3776654989985868,-0.3776654989985868
-0.35791826101542445,-0.35791826101542445
-0.37672515433272197,-0.37672515433272197
-0.3988232539805465,-0.3988232539805465
-0.402584632644006,-0.402584632644006
-0.3988232539805465,-0.3988232539805465
-0.41904066429664133,-0.41904066429664133
-0.43972824694566853,-0.43972824694566853
-0.44631065960672267,-0.44631065960672267
-0.43972824694566853,-0.43972824694566853
-0.4354966959492766,-0.4354966959492766
-0.3988232539805465,-0.3988232539805465
-0.3306482657053431,-0.3306482657053431
-0.27657844741811277,-0.27657844741811277
-0.3085501660575185,-0.3085501660575185
-0.3988232539805465,-0.3988232539805465
-0.4651175529240202,-0.4651175529240202
-0.43972824694566853,-0.43972824694566853
-0.3673217076740732,-0.3673217076740732
-0.3170132680503024,-0.3170132680503024
-0.31842378504909974,-0.31842378504909974
-0.3170132680503024,-0.3170132680503024
-0.2841012047450318,-0.2841012047450318
-0.23567345445299073,-0.23567345445299073
-0.21310518247223376,-0.21310518247223376
-0.1947684614878687,-0.1947684614878687
-0.14022847086770596,-0.14022847086770596
-0.03161866196031294,-0.03161866196031294
0.09297700626678294,0.09297700626678294
0.2133411234974869,0.2133411234974869
0.3191298984072853,0.3191298984072853
0.41739591599016473,0.41739591599016473
0.4954445232569493,0.4954445232569493
0.5401108948855309,0.5401108948855309
0.5142514165742468,0.5142514165742468
0.41739591599016473,0.41739591599016473
0.3031440390875824,0.3031440390875824
0.254246116462609,0.254246116462609
0.24531284213689264,0.24531284213689264
0.17243613053236487,0.17243613053236487
-0.01939418130406957,-0.01939418130406957
-0.23567345445299073,-0.23567345445299073
-0.3913004966536275,-0.3913004966536275
-0.4806332399107906,-0.4806332399107906
-0.5633835705068996,-0.5633835705068996
-0.6028780464732243,-0.6028780464732243
-0.5944149444804404,-0.5944149444804404
-0.5619730535081022,-0.5619730535081022
-0.574667706497278,-0.574667706497278
-0.6028780464732243,-0.6028780464732243
-0.6127516654648055,-0.6127516654648055
-0.6028780464732243,-0.6028780464732243
-0.6188639057929272,-0.6188639057929272
-0.6437830394383464,-0.6437830394383464
-0.6437830394383464,-0.6437830394383464
-0.6028780464732243,-0.6028780464732243
-0.5657344321715617,-0.5657344321715617
-0.5210680605429802,-0.5210680605429802
-0.37672515433272197,-0.37672515433272197
0.009286331004809105,0.009286331004809105
0.6844538010957891,0.6844538010957891
1.6417246709462314,1.6417246709462314
2.8542991175789876,2.8542991175789876
4.213097159753731,4.213097159753731
5.320823176142553,5.320823176142553
5.641480707202476,5.641480707202476
4.9465659991283335,4.9465659991283335
3.600932782275698,3.600932782275698
2.2092226767956835,2.2092226767956835
1.1522752723635643,1.1522752723635643
0.4681745279468679,0.4681745279468679
0.0910963169350532,0.0910963169350532
-0.07675520592182693,-0.07675520592182693
-0.15386346852274665,-0.15386346852274665
-0.23849448845058538,-0.23849448845058538
-0.3170132680503024,-0.3170132680503024
-0.3748444650009922,-0.3748444650009922
-0.43972824694566853,-0.43972824694566853
-0.5168365095465882,-0.5168365095465882
-0.5210680605429802,-0.5210680605429802
-0.44772117660551997,-0.44772117660551997
-0.3988232539805465,-0.3988232539805465
-0.43361600661754685,-0.43361600661754685
-0.43972824694566853,-0.43972824694566853
-0.3720234310033976,-0.3720234310033976
-0.3170132680503024,-0.3170132680503024
-0.36638136300820834,-0.36638136300820834
-0.3988232539805465,-0.3988232539805465
-0.3560375716836947,-0.3560375716836947
-0.3170132680503024,-0.3170132680503024
-0.38189704999497875,-0.38189704999497875
-0.43972824694566853,-0.43972824694566853
-0.39412153065122213,-0.39412153065122213
-0.3170132680503024,-0.3170132680503024
-0.3287675763736133,-0.3287675763736133
-0.35791826101542445,-0.35791826101542445
-0.3024379257293969,-0.3024379257293969
-0.1947684614878687,-0.1947684614878687
-0.15057226219221959,-0.15057226219221959
-0.15386346852274665,-0.15386346852274665
-0.14163898786650328,-0.14163898786650328
-0.1129584755576246,-0.1129584755576246
-0.11954088821867873,-0.11954088821867873
-0.1129584755576246,-0.1129584755576246
-0.03585021295670488,-0.03585021295670488
0.0910963169350532,0.0910963169350532
0.15739061587852687,0.15739061587852687
0.1315311375672428,0.1315311375672428
0.06570701095670159,0.06570701095670159
0.05019132396993115,0.05019132396993115
0.10849269325355339,0.10849269325355339
0.2133411234974869,0.2133411234974869
0.28809852443374445,0.28809852443374445
0.295151109427731,0.295151109427731
0.2462531868027575,0.2462531868027575
0.2133411234974869,0.2133411234974869
0.23308836148064926,0.23308836148064926
0.295151109427731,0.295151109427731
0.3365262747257855,0.3365262747257855
0.33605610239285305,0.33605610239285305
0.3163088644096907,0.3163088644096907
0.33605610239285305,0.33605610239285305
0.3830733356860968,0.3830733356860968
0.41739591599016473,0.41739591599016473
0.4159853989913674,0.4159853989913674
0.41739591599016473,0.41739591599016473
0.41645557132429983,0.41645557132429983
0.37649092302504267,0.37649092302504267
0.29327042009600124,0.29327042009600124
0.254246116462609,0.254246116462609
0.28104593943975786,0.28104593943975786
0.295151109427731,0.295151109427731
0.21287095116455448,0.21287095116455448
0.0910963169350532,0.0910963169350532
0.006935469340146918,0.006935469340146918
-0.03161866196031294,-0.03161866196031294
-0.0776955505876918,-0.0776955505876918
-0.1129584755576246,-0.1129584755576246
-0.11860054355281385,-0.11860054355281385
-0.1129584755576246,-0.1129584755576246
-0.14634071119582764,-0.14634071119582764
-0.1947684614878687,-0.1947684614878687
-0.23708397145178806,-0.23708397145178806
-0.27657844741811277,-0.27657844741811277
-0.33158861037120796,-0.33158861037120796
-0.35791826101542445,-0.35791826101542445
-0.3405218846969243,-0.3405218846969243
-0.3170132680503024,-0.3170132680503024
-0.346634125025046,-0.346634125025046
-0.3988232539805465,-0.3988232539805465
-0.4232722152930332,-0.4232722152930332
-0.3988232539805465,-0.3988232539805465
-0.37014274167166783,-0.37014274167166783
-0.35791826101542445,-0.35791826101542445
-0.37343394800219487,-0.37343394800219487
-0.3988232539805465,-0.3988232539805465
-0.42750376628942516,-0.42750376628942516
-0.43972824694566853,-0.43972824694566853
-0.4505422106031146,-0.4505422106031146
-0.4806332399107906,-0.4806332399107906
-0.5469275388542643,-0.5469275388542643
-0.6028780464732243,-0.6028780464732243
-0.597235978478035,-0.597235978478035
-0.5210680605429802,-0.5210680605429802
-0.4594754849288309,-0.4594754849288309
-0.4806332399107906,-0.4806332399107906
-0.5647940875056969,-0.5647940875056969
-0.6028780464732243,-0.6028780464732243
-0.5535099515153183,-0.5535099515153183
-0.4806332399107906,-0.4806332399107906
-0.4759315165814662,-0.4759315165814662
-0.5210680605429802,-0.5210680605429802
-0.5473977111871967,-0.5473977111871967
-0.5210680605429802,-0.5210680605429802
-0.4999103055610205,-0.4999103055610205
-0.5210680605429802,-0.5210680605429802
-0.575608051163143,-0.575608051163143
-0.6028780464732243,-0.6028780464732243
-0.5798396021595349,-0.5798396021595349
-0.5210680605429802,-0.5210680605429802
-0.4919173759011691,-0.4919173759011691
-0.5210680605429802,-0.5210680605429802
-0.5831308084900619,-0.5831308084900619
-0.6028780464732243,-0.6028780464732243
-0.5784290851607375,-0.5784290851607375
-0.5619730535081022,-0.5619730535081022
-0.5991166678097648,-0.5991166678097648
-0.6437830394383464,-0.6437830394383464
-0.6602390710909817,-0.6602390710909817
-0.6437830394383464,-0.6437830394383464
-0.6056990804708189,-0.6056990804708189
-0.5210680605429802,-0.5210680605429802
-0.42844411095529006,-0.42844411095529006
-0.3988232539805465,-0.3988232539805465
-0.4411387639444659,-0.4411387639444659
-0.43972824694566853,-0.43972824694566853
-0.34240257402865404,-0.34240257402865404
-0.23567345445299073,-0.23567345445299073
-0.22015776746622032,-0.22015776746622032
-0.23567345445299073,-0.23567345445299073
-0.17549139583763876,-0.17549139583763876
-0.03161866196031294,-0.03161866196031294
0.10708217625475606,0.10708217625475606
0.2133411234974869,0.2133411234974869
0.3125474857462312,0.3125474857462312
0.41739591599016473,0.41739591599016473
0.48604107659830054,0.48604107659830054
0.4992059019204088,0.4992059019204088
0.46535349394927333,0.46535349394927333
