ECG,PPG
1.6314871816977672,1.6314871816977672
2.056074294239048,2.056074294239048
1.7166025469158328,1.7166025469158328
1.5483512435777962,1.5483512435777962
1.7730162192115275,1.7730162192115275
1.9214732515686186,1.9214732515686186
1.829429891507222,1.829429891507222
1.7631190837210546,1.7631190837210546
1.829429891507222,1.829429891507222
1.8442755947429312,1.8442755947429312
1.7443145262891566,1.7443145262891566
1.6542505933258544,1.6542505933258544
1.6314871816977672,1.6314871816977672
1.6027854887753963,1.6027854887753963
1.5463718164797016,1.5463718164797016
1.4978758525763851,1.4978758525763851
1.461256451261636,1.461256451261636
1.3899970757302322,1.3899970757302322
1.2633137414521811,1.2633137414521811
1.1019904329574755,1.1019904329574755
0.952543687051337,0.952543687051337
0.8436751966561368,0.8436751966561368
0.7823129566152058,0.7823129566152058
0.7278787114176057,0.7278787114176057
0.6694856120238165,0.6694856120238165
0.6041645177866963,0.6041645177866963
0.55566855388338,0.55566855388338
0.5141005848233944,0.5141005848233944
0.4715429022143616,0.4715429022143616
0.40721152152628876,0.40721152152628876
0.33001386470060134,0.33001386470060134
0.24093964528634668,0.24093964528634668
0.15978313426447016,0.15978313426447016
0.08951347228211369,0.08951347228211369
0.04695578967308089,0.04695578967308089
0.024192378044993572,0.024192378044993572
0.018254096750709926,0.018254096750709926
0.0004392528678589868,0.0004392528678589868
-0.03815957554498472,-0.03815957554498472
-0.09853210203686845,-0.09853210203686845
-0.150986920136374,-0.150986920136374
-0.18760632145112316,-0.18760632145112316
-0.2083903059811159,-0.2083903059811159
-0.24204056664872325,-0.24204056664872325
-0.2925159576501342,-0.2925159576501342
-0.342001635102498,-0.342001635102498
-0.34991934349487613,-0.34991934349487613
-0.3222073641215525,-0.3222073641215525
-0.2925159576501342,-0.2925159576501342
-0.29944395249346517,-0.29944395249346517
-0.3212176505725052,-0.3212176505725052
-0.3251765047686943,-0.3251765047686943
-0.2925159576501342,-0.2925159576501342
-0.26480397827681057,-0.26480397827681057
-0.26480397827681057,-0.26480397827681057
-0.28063939506156693,-0.28063939506156693
-0.26480397827681057,-0.26480397827681057
-0.21828744147158866,-0.21828744147158866
-0.17968861305874495,-0.17968861305874495
-0.1697914775682722,-0.1697914775682722
-0.150986920136374,-0.150986920136374
-0.11634694591971939,-0.11634694591971939
-0.09457324784067936,-0.09457324784067936
-0.10546009688019937,-0.10546009688019937
-0.09457324784067936,-0.09457324784067936
-0.031231580701653796,-0.031231580701653796
0.04695578967308089,0.04695578967308089
0.07664719614449912,0.07664719614449912
0.07466776904640457,0.07466776904640457
0.08951347228211369,0.08951347228211369
0.13207115489114649,0.13207115489114649
0.1667111291078011,0.1667111291078011
0.18848482718684112,0.18848482718684112
0.2043202439715975,0.2043202439715975
0.21619680656016482,0.21619680656016482
0.2013511033244557,0.2013511033244557
0.15978313426447016,0.15978313426447016
0.10237974841972826,0.10237974841972826
0.04695578967308089,0.04695578967308089
-0.0035196013283301107,-0.0035196013283301107
-0.03815957554498472,-0.03815957554498472
-0.06389212782021385,-0.06389212782021385
-0.09457324784067936,-0.09457324784067936
-0.14603835239113763,-0.14603835239113763
-0.2083903059811159,-0.2083903059811159
-0.2707422595710942,-0.2707422595710942
-0.3212176505725052,-0.3212176505725052
-0.3518987705929707,-0.3518987705929707
-0.34991934349487613,-0.34991934349487613
-0.33903249445535616,-0.33903249445535616
-0.34991934349487613,-0.34991934349487613
-0.37763132286819984,-0.37763132286819984
-0.37763132286819984,-0.37763132286819984
-0.3518987705929707,-0.3518987705929707
-0.34991934349487613,-0.34991934349487613
-0.40534330224152354,-0.40534330224152354
-0.46274668808626546,-0.46274668808626546
-0.46967468292959635,-0.46967468292959635
-0.4340449951638945,-0.4340449951638945
-0.403363875143429,-0.403363875143429
-0.37763132286819984,-0.37763132286819984
-0.352888484142018,-0.352888484142018
-0.34991934349487613,-0.34991934349487613
-0.4063330157905708,-0.4063330157905708
-0.4904586674595891,-0.4904586674595891
-0.5409340584610002,-0.5409340584610002
-0.5191603603819601,-0.5191603603819601
-0.4607672609881709,-0.4607672609881709
-0.4063330157905708,-0.4063330157905708
-0.37565189577010527,-0.37565189577010527
-0.34991934349487613,-0.34991934349487613
-0.3212176505725052,-0.3212176505725052
-0.2925159576501342,-0.2925159576501342
-0.28459824925775606,-0.28459824925775606
-0.2925159576501342,-0.2925159576501342
-0.29944395249346517,-0.29944395249346517
-0.2925159576501342,-0.2925159576501342
-0.29350567119918153,-0.29350567119918153
-0.3212176505725052,-0.3212176505725052
-0.35585762478915983,-0.35585762478915983
-0.34991934349487613,-0.34991934349487613
-0.2786599679634724,-0.2786599679634724
-0.17968861305874495,-0.17968861305874495
-0.11040866462543575,-0.11040866462543575
-0.09457324784067936,-0.09457324784067936
-0.1044703833311521,-0.1044703833311521
-0.09457324784067936,-0.09457324784067936
-0.036180148446890166,-0.036180148446890166
0.07466776904640457,0.07466776904640457
0.21916594720730664,0.21916594720730664
0.33001386470060134,0.33001386470060134
0.28844589564061585,0.28844589564061585
0.018254096750709926,0.018254096750709926
-0.4182095783791381,-0.4182095783791381
-0.8586321077051752,-0.8586321077051752
-1.2307644021469504,-1.2307644021469504
-1.5939892746473001,-1.5939892746473001
-1.9948232620114463,-1.9948232620114463
-2.3303361551384723,-2.3303361551384723
-2.4728549062012797,-2.4728549062012797
-2.415451520356538,-2.415451520356538
-2.264025347352305,-2.264025347352305
-2.1036917524066463,-2.1036917524066463
-1.993833548462399,-1.993833548462399
-1.990864407815257,-1.990864407815257
-2.1135888878971194,-2.1135888878971194
-2.2739224828427775,-2.2739224828427775
-2.3629967022570324,-2.3629967022570324
-2.3303361551384723,-2.3303361551384723
-2.1977145395661375,-2.1977145395661375
-1.990864407815257,-1.990864407815257
-1.7572920102401004,-1.7572920102401004
-1.5375756023516054,-1.5375756023516054
-1.3406226060911979,-1.3406226060911979
-1.1129884898103248,-1.1129884898103248
-0.8625909619013643,-0.8625909619013643
-0.6606893978957203,-0.6606893978957203
-0.5567694752457565,-0.5567694752457565
-0.4904586674595891,-0.4904586674595891
-0.39049759900581443,-0.39049759900581443
-0.26480397827681057,-0.26480397827681057
-0.17276061821541402,-0.17276061821541402
-0.12327494076305032,-0.12327494076305032
-0.07576869040878115,-0.07576869040878115
-0.009457882622613758,-0.009457882622613758
0.04398664902593906,0.04398664902593906
0.07466776904640457,0.07466776904640457
0.10336946196877553,0.10336946196877553
0.15978313426447016,0.15978313426447016
0.2251042285015903,0.2251042285015903
0.27261047885585943,0.27261047885585943
0.31813730211203406,0.31813730211203406
0.4141395163696197,0.4141395163696197
0.5526994132362382,0.5526994132362382
0.6694856120238165,0.6694856120238165
0.7189712894761803,0.7189712894761803
0.7546009772418821,0.7546009772418821
0.812004363086624,0.812004363086624
0.8674283218332713,0.8674283218332713
0.8723768895785078,0.8723768895785078
0.8674283218332713,0.8674283218332713
0.9010785825008787,0.9010785825008787
0.9802556664246607,0.9802556664246607
1.0693298858389153,1.0693298858389153
1.1781983762341155,1.1781983762341155
1.298943429217883,1.298943429217883
1.4048427789659415,1.4048427789659415
1.4770918680463925,1.4770918680463925
1.5750735094020727,1.5750735094020727
1.7175922604648801,1.7175922604648801
1.8581315844295931,1.8581315844295931
1.9175143973724296,1.9175143973724296
1.9145452567252876,1.9145452567252876
1.8927715586462477,1.8927715586462477
1.8858435638029167,1.8858435638029167
1.8878229909010114,1.8878229909010114
1.9145452567252876,1.9145452567252876
1.9442366631967058,1.9442366631967058
1.9422572360986115,1.9422572360986115
1.8927715586462477,1.8927715586462477
1.8581315844295931,1.8581315844295931
1.8611007250767349,1.8611007250767349
1.8581315844295931,1.8581315844295931
1.7720265056624802,1.7720265056624802
1.6314871816977672,1.6314871816977672
1.5107421287139997,1.5107421287139997
1.461256451261636,1.461256451261636
1.432554758339265,1.432554758339265
1.3771307995926176,1.3771307995926176
1.292015434374552,1.292015434374552
1.2356017620788575,1.2356017620788575
1.2009617878622028,1.2009617878622028
1.150486396860792,1.150486396860792
1.0435973335636863,1.0435973335636863
0.9238419941289661,0.9238419941289661
0.8169529308318604,0.8169529308318604
0.7258992843195111,0.7258992843195111
0.6358353513562092,0.6358353513562092
0.5843702468057509,0.5843702468057509
0.5715039706681363,0.5715039706681363
0.55566855388338,0.55566855388338
0.48935774609721255,0.48935774609721255
0.4141395163696197,0.4141395163696197
0.37257154730963415,0.37257154730963415
0.35772584407392505,0.35772584407392505
0.314178447915845,0.314178447915845
0.24489849948253578,0.24489849948253578
0.17759797814732112,0.17759797814732112
0.13207115489114649,0.13207115489114649
0.07763690969354639,0.07763690969354639
0.018254096750709926,0.018254096750709926
-0.02133444521118105,-0.02133444521118105
-0.009457882622613758,-0.009457882622613758
0.017264383201662653,0.017264383201662653
0.018254096750709926,0.018254096750709926
-0.0193550181130865,-0.0193550181130865
-0.03815957554498472,-0.03815957554498472
-0.007478455524519209,-0.007478455524519209
0.04695578967308089,0.04695578967308089
0.04992493032022271,0.04992493032022271
-0.009457882622613758,-0.009457882622613758
-0.08863496654639572,-0.08863496654639572
-0.12327494076305032,-0.12327494076305032
-0.11535723237067212,-0.11535723237067212
-0.09457324784067936,-0.09457324784067936
-0.0856658258992539,-0.0856658258992539
-0.06686126846735567,-0.06686126846735567
-0.031231580701653796,-0.031231580701653796
0.018254096750709926,0.018254096750709926
0.06773977420307364,0.06773977420307364
0.13207115489114649,0.13207115489114649
0.19244368138303022,0.19244368138303022
0.21619680656016482,0.21619680656016482
0.1855156865396993,0.1855156865396993
0.15978313426447016,0.15978313426447016
0.19046425428493569,0.19046425428493569
0.27261047885585943,0.27261047885585943
0.3557464169758305,0.3557464169758305
0.4141395163696197,0.4141395163696197
0.4329440738015179,0.4329440738015179
0.4141395163696197,0.4141395163696197
0.38840696409439057,0.38840696409439057
0.4141395163696197,0.4141395163696197
0.47451204286150345,0.47451204286150345
0.4992548815876853,0.4992548815876853
0.4715429022143616,0.4715429022143616
0.4715429022143616,0.4715429022143616
0.5141005848233944,0.5141005848233944
0.4992548815876853,0.4992548815876853
0.34980813568154684,0.34980813568154684
0.15978313426447016,0.15978313426447016
0.057842638712600904,0.057842638712600904
0.04695578967308089,0.04695578967308089
0.025182091594040848,0.025182091594040848
-0.03815957554498472,-0.03815957554498472
-0.100511529134963,-0.100511529134963
-0.12327494076305032,-0.12327494076305032
-0.13416178980257035,-0.13416178980257035
-0.150986920136374,-0.150986920136374
-0.16385319627398856,-0.16385319627398856
-0.150986920136374,-0.150986920136374
-0.14603835239113763,-0.14603835239113763
-0.17968861305874495,-0.17968861305874495
-0.24105085309967597,-0.24105085309967597
-0.26480397827681057,-0.26480397827681057
-0.23808171245253415,-0.23808171245253415
-0.2083903059811159,-0.2083903059811159
-0.22719486341301412,-0.22719486341301412
-0.26480397827681057,-0.26480397827681057
-0.2756908273163306,-0.2756908273163306
-0.26480397827681057,-0.26480397827681057
-0.28855710345394514,-0.28855710345394514
-0.34991934349487613,-0.34991934349487613
-0.3964358803000981,-0.3964358803000981
-0.37763132286819984,-0.37763132286819984
-0.32319707767059974,-0.32319707767059974
-0.2925159576501342,-0.2925159576501342
-0.3142896557291743,-0.3142896557291743
-0.34991934349487613,-0.34991934349487613
-0.3617959060834435,-0.3617959060834435
-0.34991934349487613,-0.34991934349487613
-0.3370530673572616,-0.3370530673572616
-0.3212176505725052,-0.3212176505725052
-0.3053822337877488,-0.3053822337877488
-0.2925159576501342,-0.2925159576501342
-0.2855879628068033,-0.2855879628068033
-0.26480397827681057,-0.26480397827681057
-0.23709199890348687,-0.23709199890348687
-0.2361022853544396,-0.2361022853544396
-0.26975254602204696,-0.26975254602204696
-0.2925159576501342,-0.2925159576501342
-0.26975254602204696,-0.26975254602204696
-0.2361022853544396,-0.2361022853544396
-0.24599942084491236,-0.24599942084491236
-0.2925159576501342,-0.2925159576501342
-0.31923822347441067,-0.31923822347441067
-0.2925159576501342,-0.2925159576501342
-0.2321434311582505,-0.2321434311582505
-0.150986920136374,-0.150986920136374
-0.022324158760228325,-0.022324158760228325
0.15978313426447016,0.15978313426447016
0.285476754993474,0.285476754993474
0.18848482718684112,0.18848482718684112
-0.17572975886255587,-0.17572975886255587
-0.6606893978957203,-0.6606893978957203
-1.0971530730255683,-1.0971530730255683
-1.453449950682587,-1.453449950682587
-1.8047982605943695,-1.8047982605943695
-2.160105424702341,-2.160105424702341
-2.426338369396058,-2.426338369396058
-2.4995771720255564,-2.4995771720255564
-2.3966469629246396,-2.3966469629246396
-2.2165190969980357,-2.2165190969980357
-2.0819180543276063,-2.0819180543276063
-2.0472780801109516,-2.0472780801109516
-2.10963003370093,-2.10963003370093
-2.2165190969980357,-2.2165190969980357
-2.3234081602951413,-2.3234081602951413
-2.386749827434167,-2.386749827434167
-2.3847704003360723,-2.3847704003360723
-2.3016344622161014,-2.3016344622161014
-2.1571362840551993,-2.1571362840551993
-1.9621627148928862,-1.9621627148928862
-1.730569744415824,-1.730569744415824
-1.453449950682587,-1.453449950682587
-1.1555461724193576,-1.1555461724193576
-0.8873338006275462,-0.8873338006275462
-0.7032470805047532,-0.7032470805047532
-0.6042757256000257,-0.6042757256000257
-0.5508311939514728,-0.5508311939514728
-0.4904586674595891,-0.4904586674595891
-0.4093021564377126,-0.4093021564377126
-0.3212176505725052,-0.3212176505725052
-0.25391712923729054,-0.25391712923729054
-0.2083903059811159,-0.2083903059811159
-0.15593548788161038,-0.15593548788161038
-0.06686126846735567,-0.06686126846735567
0.02815123224118267,0.02815123224118267
0.07466776904640457,0.07466776904640457
0.07664719614449912,0.07664719614449912
0.10336946196877553,0.10336946196877553
0.1855156865396993,0.1855156865396993
0.27261047885585943,0.27261047885585943
0.3102195937196559,0.3102195937196559
0.33001386470060134,0.33001386470060134
0.38246868280010693,0.38246868280010693
0.4715429022143616,0.4715429022143616
0.5477508454910017,0.5477508454910017
0.6130719397281219,0.6130719397281219
0.678393033965242,0.678393033965242
0.7546009772418821,0.7546009772418821
0.8139837901847186,0.8139837901847186
0.8674283218332713,0.8674283218332713
0.912955145089446,0.912955145089446
0.952543687051337,0.952543687051337
0.9733276715813297,0.9733276715813297
1.0089573593470316,1.0089573593470316
1.0762578806822463,1.0762578806822463
1.1781983762341155,1.1781983762341155
1.2821182988840794,1.2821182988840794
1.3771307995926176,1.3771307995926176
1.4523490293202106,1.4523490293202106
1.5176701235573307,1.5176701235573307
1.573094082303978,1.573094082303978
1.6314871816977672,1.6314871816977672
1.6819625726991783,1.6819625726991783
1.7166025469158328,1.7166025469158328
1.7185819740139274,1.7185819740139274
1.7166025469158328,1.7166025469158328
1.724520255308211,1.724520255308211
1.7443145262891566,1.7443145262891566
1.7294688230534474,1.7294688230534474
1.659199161071091,1.659199161071091
1.5513203842249381,1.5513203842249381
1.461256451261636,1.461256451261636
1.4078119196130832,1.4078119196130832
1.3771307995926176,1.3771307995926176
1.3296245492383485,1.3296245492383485
1.2633137414521811,1.2633137414521811
1.1752292355869738,1.1752292355869738
1.0653710316427263,1.0653710316427263
0.9228522805799187,0.9228522805799187
0.7823129566152058,0.7823129566152058
0.689279883004762,0.689279883004762
0.6694856120238165,0.6694856120238165
0.6645370442785802,0.6645370442785802
0.6130719397281219,0.6130719397281219
0.5051931628819689,0.5051931628819689
0.4141395163696197,0.4141395163696197
0.3745509744077287,0.3745509744077287
0.35772584407392505,0.35772584407392505
0.3102195937196559,0.3102195937196559
0.24489849948253578,0.24489849948253578
0.17561855104922655,0.17561855104922655
0.10336946196877553,0.10336946196877553
0.0034083935150008102,0.0034083935150008102
-0.09457324784067936,-0.09457324784067936
-0.15989434207779948,-0.15989434207779948
-0.17968861305874495,-0.17968861305874495
-0.18364746725493405,-0.18364746725493405
-0.17968861305874495,-0.17968861305874495
-0.17671947241160313,-0.17671947241160313
-0.17968861305874495,-0.17968861305874495
-0.21432858727539955,-0.21432858727539955
-0.26480397827681057,-0.26480397827681057
-0.2925159576501342,-0.2925159576501342
-0.26480397827681057,-0.26480397827681057
-0.22719486341301412,-0.22719486341301412
-0.2361022853544396,-0.2361022853544396
-0.28360853570870875,-0.28360853570870875
-0.2925159576501342,-0.2925159576501342
-0.26183483762966875,-0.26183483762966875
-0.26480397827681057,-0.26480397827681057
-0.3271559318667889,-0.3271559318667889
-0.34991934349487613,-0.34991934349487613
-0.27371140021823603,-0.27371140021823603
-0.17968861305874495,-0.17968861305874495
-0.1856268943530286,-0.1856268943530286
-0.26480397827681057,-0.26480397827681057
-0.3142896557291743,-0.3142896557291743
-0.2925159576501342,-0.2925159576501342
-0.2578759834334796,-0.2578759834334796
-0.2361022853544396,-0.2361022853544396
-0.20740059243206865,-0.20740059243206865
-0.150986920136374,-0.150986920136374
-0.1123880917235303,-0.1123880917235303
-0.12327494076305032,-0.12327494076305032
-0.1589046285287522,-0.1589046285287522
-0.150986920136374,-0.150986920136374
-0.07873783105592297,-0.07873783105592297
0.018254096750709926,0.018254096750709926
0.08753404518401914,0.08753404518401914
0.13207115489114649,0.13207115489114649
0.1667111291078011,0.1667111291078011
0.18848482718684112,0.18848482718684112
0.17660826459827383,0.17660826459827383
0.15978313426447016,0.15978313426447016
0.18056711879446294,0.18056711879446294
0.24489849948253578,0.24489849948253578
0.29339446338585223,0.29339446338585223
0.27261047885585943,0.27261047885585943
0.1667111291078011,0.1667111291078011
0.018254096750709926,0.018254096750709926
-0.10348066978210482,-0.10348066978210482
-0.150986920136374,-0.150986920136374
-0.15593548788161038,-0.15593548788161038
-0.17968861305874495,-0.17968861305874495
-0.24995827504110144,-0.24995827504110144
-0.3212176505725052,-0.3212176505725052
-0.3598164789853489,-0.3598164789853489
-0.37763132286819984,-0.37763132286819984
-0.40039473449628715,-0.40039473449628715
-0.4063330157905708,-0.4063330157905708
-0.38159017706438897,-0.38159017706438897
-0.34991934349487613,-0.34991934349487613
-0.3518987705929707,-0.3518987705929707
-0.37763132286819984,-0.37763132286819984
-0.39346673965295625,-0.39346673965295625
-0.37763132286819984,-0.37763132286819984
-0.35585762478915983,-0.35585762478915983
-0.34991934349487613,-0.34991934349487613
-0.36971361447582163,-0.36971361447582163
-0.4063330157905708,-0.4063330157905708
-0.4459215577524618,-0.4459215577524618
-0.46274668808626546,-0.46274668808626546
-0.44790098485055635,-0.44790098485055635
-0.4063330157905708,-0.4063330157905708
-0.3677341873777271,-0.3677341873777271
-0.34991934349487613,-0.34991934349487613
-0.35783705188725434,-0.35783705188725434
-0.37763132286819984,-0.37763132286819984
-0.4063330157905708,-0.4063330157905708
-0.4340449951638945,-0.4340449951638945
-0.4518598390467454,-0.4518598390467454
-0.4340449951638945,-0.4340449951638945
-0.3914873125548617,-0.3914873125548617
-0.34991934349487613,-0.34991934349487613
-0.33111478606297795,-0.33111478606297795
-0.3212176505725052,-0.3212176505725052
-0.30637194733679607,-0.30637194733679607
-0.2925159576501342,-0.2925159576501342
-0.2905365305520397,-0.2905365305520397
-0.2925159576501342,-0.2925159576501342
-0.2826188221596615,-0.2826188221596615
-0.26480397827681057,-0.26480397827681057
-0.24995827504110144,-0.24995827504110144
-0.2361022853544396,-0.2361022853544396
-0.20344173823587955,-0.20344173823587955
-0.150986920136374,-0.150986920136374
-0.10249095623305755,-0.10249095623305755
-0.06686126846735567,-0.06686126846735567
-0.006488741975471934,-0.006488741975471934
0.10336946196877553,0.10336946196877553
0.20234081687350297,0.20234081687350297
0.15978313426447016,0.15978313426447016
-0.09358353429163209,-0.09358353429163209
-0.4904586674595891,-0.4904586674595891
-0.9140560664518226,-0.9140560664518226
-1.311920913168827,-1.311920913168827
-1.701868051493453,-1.701868051493453
-2.075979773033323,-2.075979773033323
-2.3669555564532216,-2.3669555564532216
-2.4995771720255564,-2.4995771720255564
-2.46196805716176,-2.46196805716176
-2.3016344622161014,-2.3016344622161014
-2.124475736936639,-2.124475736936639
-2.0185763871885807,-2.0185763871885807
-2.023524954933817,-2.023524954933817
-2.1036917524066463,-2.1036917524066463
-2.2194882376451774,-2.2194882376451774
-2.3303361551384723,-2.3303361551384723
-2.3986263900227343,-2.3986263900227343
-2.358048134511796,-2.358048134511796
-2.1838585498794756,-2.1838585498794756
-1.9057490425971915,-1.9057490425971915
-1.607845264333962,-1.607845264333962
-1.3396328925421506,-1.3396328925421506
-1.1159576304574665,-1.1159576304574665
-0.9150457800008699,-0.9150457800008699
-0.7428356224666441,-0.7428356224666441
-0.6042757256000257,-0.6042757256000257
-0.49243809455768367,-0.49243809455768367
-0.37763132286819984,-0.37763132286819984
-0.2657936918258578,-0.2657936918258578
-0.17968861305874495,-0.17968861305874495
-0.11733665946876667,-0.11733665946876667
-0.03815957554498472,-0.03815957554498472
0.060811779359742725,0.060811779359742725
0.13207115489114649,0.13207115489114649
0.14592714457780834,0.14592714457780834
0.15978313426447016,0.15978313426447016
0.21916594720730664,0.21916594720730664
0.3013121717782304,0.3013121717782304
0.35376698987773597,0.35376698987773597
0.386427536996296,0.386427536996296
0.4329440738015179,0.4329440738015179
0.4992548815876853,0.4992548815876853
0.55566855388338,0.55566855388338
0.6130719397281219,0.6130719397281219
0.6942284507499984,0.6942284507499984
0.8110146495375767,0.8110146495375767
0.9159242857365878,0.9159242857365878
0.9802556664246607,0.9802556664246607
1.0059882186998899,1.0059882186998899
1.0366693387203554,1.0366693387203554
1.0851653026236718,1.0851653026236718
1.150486396860792,1.150486396860792
1.2148177775488647,1.2148177775488647
1.292015434374552,1.292015434374552
1.3771307995926176,1.3771307995926176
1.461256451261636,1.461256451261636
1.5127215558120943,1.5127215558120943
1.5463718164797016,1.5463718164797016
1.587939785539687,1.587939785539687
1.659199161071091,1.659199161071091
1.7274893959553528,1.7274893959553528
1.7730162192115275,1.7730162192115275
1.8017179121338984,1.8017179121338984
1.8581315844295931,1.8581315844295931
1.9293909599609969,1.9293909599609969
1.9709589290209824,1.9709589290209824
1.9343395277062332,1.9343395277062332
1.8581315844295931,1.8581315844295931
1.8017179121338984,1.8017179121338984
1.8007281985848511,1.8007281985848511
1.7977590579377094,1.7977590579377094
1.7443145262891566,1.7443145262891566
1.6483123120315708,1.6483123120315708
1.5750735094020727,1.5750735094020727
1.5344952538911343,1.5344952538911343
1.489958144184007,1.489958144184007
1.3969250705735632,1.3969250705735632
1.292015434374552,1.292015434374552
1.2098692098036283,1.2098692098036283
1.150486396860792,1.150486396860792
1.0633916045446317,1.0633916045446317
0.952543687051337,0.952543687051337
0.8387266289109004,0.8387266289109004
0.7546009772418821,0.7546009772418821
0.6803724610633365,0.6803724610633365
0.6130719397281219,0.6130719397281219
0.5467611319419544,0.5467611319419544
0.4992548815876853,0.4992548815876853
0.4576869125276998,0.4576869125276998
0.4141395163696197,0.4141395163696197
0.3488184221324996,0.3488184221324996
0.27261047885585943,0.27261047885585943
0.19244368138303022,0.19244368138303022
0.13207115489114649,0.13207115489114649
0.0964414671254446,0.0964414671254446
0.10336946196877553,0.10336946196877553
0.13306086844019377,0.13306086844019377
0.15978313426447016,0.15978313426447016
0.14889628522495016,0.14889628522495016
0.10336946196877553,0.10336946196877553
0.031120372888324494,0.031120372888324494
-0.03815957554498472,-0.03815957554498472
-0.08665553944830116,-0.08665553944830116
-0.09457324784067936,-0.09457324784067936
-0.100511529134963,-0.100511529134963
-0.150986920136374,-0.150986920136374
-0.26084512408062144,-0.26084512408062144
-0.34991934349487613,-0.34991934349487613
-0.34101192155345067,-0.34101192155345067
-0.2361022853544396,-0.2361022853544396
-0.13020293560638124,-0.13020293560638124
-0.09457324784067936,-0.09457324784067936
-0.13317207625352306,-0.13317207625352306
-0.17968861305874495,-0.17968861305874495
-0.19552402984350134,-0.19552402984350134
-0.17968861305874495,-0.17968861305874495
-0.16682233692113038,-0.16682233692113038
-0.150986920136374,-0.150986920136374
-0.11436751882162485,-0.11436751882162485
-0.03815957554498472,-0.03815957554498472
0.04695578967308089,0.04695578967308089
0.10336946196877553,0.10336946196877553
0.10534888906687008,0.10534888906687008
0.07466776904640457,0.07466776904640457
0.04398664902593906,0.04398664902593906
0.04695578967308089,0.04695578967308089
0.08654433163497185,0.08654433163497185
0.15978313426447016,0.15978313426447016
0.2547956349730085,0.2547956349730085
0.35772584407392505,0.35772584407392505
0.4339337873505652,0.4339337873505652
0.4715429022143616,0.4715429022143616
0.4952960273914962,0.4952960273914962
0.55566855388338,0.55566855388338
0.6219793616695474,0.6219793616695474
0.6130719397281219,0.6130719397281219
0.487378318999118,0.487378318999118
0.33001386470060134,0.33001386470060134
0.2359910775411103,0.2359910775411103
0.21619680656016482,0.21619680656016482
0.1855156865396993,0.1855156865396993
0.10336946196877553,0.10336946196877553
0.006377534162142633,0.006377534162142633
-0.03815957554498472,-0.03815957554498472
-0.04409785683926836,-0.04409785683926836
-0.06686126846735567,-0.06686126846735567
-0.1351515033516176,-0.1351515033516176
-0.2083903059811159,-0.2083903059811159
-0.2430302801977705,-0.2430302801977705
-0.2361022853544396,-0.2361022853544396
-0.21531830082444683,-0.21531830082444683
-0.17968861305874495,-0.17968861305874495
-0.1351515033516176,-0.1351515033516176
-0.09457324784067936,-0.09457324784067936
-0.08665553944830116,-0.08665553944830116
-0.09457324784067936,-0.09457324784067936
-0.09952181558591573,-0.09952181558591573
-0.09457324784067936,-0.09457324784067936
-0.1044703833311521,-0.1044703833311521
-0.12327494076305032,-0.12327494076305032
-0.12624408141019214,-0.12624408141019214
-0.09457324784067936,-0.09457324784067936
-0.0619127007221193,-0.0619127007221193
-0.06686126846735567,-0.06686126846735567
-0.10348066978210482,-0.10348066978210482
-0.12327494076305032,-0.12327494076305032
-0.1084292375273412,-0.1084292375273412
-0.09457324784067936,-0.09457324784067936
-0.10743952397829393,-0.10743952397829393
-0.12327494076305032,-0.12327494076305032
-0.12624408141019214,-0.12624408141019214
-0.150986920136374,-0.150986920136374
-0.21432858727539955,-0.21432858727539955
-0.26480397827681057,-0.26480397827681057
-0.2588656969825269,-0.2588656969825269
-0.2361022853544396,-0.2361022853544396
-0.26480397827681057,-0.26480397827681057
-0.34991934349487613,-0.34991934349487613
-0.47066439647864367,-0.47066439647864367
-0.6319877049733493,-0.6319877049733493
-0.839827550273277,-0.839827550273277
-1.0565748175146301,-1.0565748175146301
-1.2733220847559832,-1.2733220847559832
-1.5098636229782818,-1.5098636229782818
-1.7612508644362894,-1.7612508644362894
-1.9621627148928862,-1.9621627148928862
-2.1076506066028355,-2.1076506066028355
-2.2739224828427775,-2.2739224828427775
-2.503536026221745,-2.503536026221745
-2.6985095953840585,-2.6985095953840585
-2.751954127032611,-2.751954127032611
-2.669807902461687,-2.669807902461687
-2.5342171462422107,-2.5342171462422107
-2.358048134511796,-2.358048134511796
-2.116558028544261,-2.116558028544261
-1.8206336773791258,-1.8206336773791258
-1.535596175253511,-1.535596175253511
-1.2832192202464558,-1.2832192202464558
-1.0456879684751101,-1.0456879684751101
-0.8022184354094806,-0.8022184354094806
-0.5676563242852766,-0.5676563242852766
-0.34991934349487613,-0.34991934349487613
-0.15593548788161038,-0.15593548788161038
0.018254096750709926,0.018254096750709926
0.17264941040208473,0.17264941040208473
0.3013121717782304,0.3013121717782304
0.36960240666249233,0.36960240666249233
0.35772584407392505,0.35772584407392505
0.3072504530725141,0.3072504530725141
0.3013121717782304,0.3013121717782304
0.3438698543872632,0.3438698543872632
0.35772584407392505,0.35772584407392505
0.3102195937196559,0.3102195937196559
0.27261047885585943,0.27261047885585943
0.3023018853272777,0.3023018853272777
0.35772584407392505,0.35772584407392505
0.38444810989820144,0.38444810989820144
0.4141395163696197,0.4141395163696197
0.48144003770483434,0.48144003770483434
0.55566855388338,0.55566855388338
0.58832910100194,0.58832910100194
0.6130719397281219,0.6130719397281219
0.6487016274938238,0.6487016274938238
0.6694856120238165,0.6694856120238165
0.6407839191014455,0.6407839191014455
0.6407839191014455,0.6407839191014455
0.7268889978685584,0.7268889978685584
0.8674283218332713,0.8674283218332713
0.963430536090857,0.963430536090857
1.0089573593470316,1.0089573593470316
1.039638479367497,1.039638479367497
1.0940727245650972,1.0940727245650972
1.1643423865474538,1.1643423865474538
1.2633137414521811,1.2633137414521811
1.364264523455003,1.364264523455003
1.4335444718883124,1.4335444718883124
1.4691741596540142,1.4691741596540142
1.5463718164797016,1.5463718164797016
1.6869111404444146,1.6869111404444146
1.829429891507222,1.829429891507222
1.8838641367048221,1.8838641367048221
1.8581315844295931,1.8581315844295931
1.7977590579377094,1.7977590579377094
1.7443145262891566,1.7443145262891566
1.7047259843272655,1.7047259843272655
1.7166025469158328,1.7166025469158328
1.7829133547020002,1.7829133547020002
1.8581315844295931,1.8581315844295931
1.8492241624881676,1.8492241624881676
1.7443145262891566,1.7443145262891566
1.5998163481282544,1.5998163481282544
1.489958144184007,1.489958144184007
1.3949456434754686,1.3949456434754686
1.2633137414521811,1.2633137414521811
1.0812064484274826,1.0812064484274826
0.9238419941289661,0.9238419941289661
0.8416957695580423,0.8416957695580423
0.8110146495375767,0.8110146495375767
0.7476729823985512,0.7476729823985512
0.6407839191014455,0.6407839191014455
0.5398331370986236,0.5398331370986236
0.4992548815876853,0.4992548815876853
0.476491469959598,0.476491469959598
0.4141395163696197,0.4141395163696197
0.3013121717782304,0.3013121717782304
0.21619680656016482,0.21619680656016482
0.20333053042255025,0.20333053042255025
0.24489849948253578,0.24489849948253578
0.274589905953954,0.274589905953954
0.27261047885585943,0.27261047885585943
0.23104250979587393,0.23104250979587393
0.15978313426447016,0.15978313426447016
0.07070891485021547,0.07070891485021547
0.018254096750709926,0.018254096750709926
0.020233523848804474,0.020233523848804474
0.04695578967308089,0.04695578967308089
0.02617180514308812,0.02617180514308812
-0.03815957554498472,-0.03815957554498472
-0.08665553944830116,-0.08665553944830116
-0.06686126846735567,-0.06686126846735567
-0.02826244005451197,-0.02826244005451197
-0.03815957554498472,-0.03815957554498472
-0.09061439364449025,-0.09061439364449025
-0.09457324784067936,-0.09457324784067936
-0.033211007799748345,-0.033211007799748345
0.018254096750709926,0.018254096750709926
-0.0035196013283301107,-0.0035196013283301107
-0.03815957554498472,-0.03815957554498472
-0.013416736818802856,-0.013416736818802856
0.04695578967308089,0.04695578967308089
0.050914643869269985,0.050914643869269985
-0.009457882622613758,-0.009457882622613758
-0.07477897685973386,-0.07477897685973386
-0.09457324784067936,-0.09457324784067936
-0.0925938207425848,-0.0925938207425848
-0.09457324784067936,-0.09457324784067936
-0.11931608656686121,-0.11931608656686121
-0.150986920136374,-0.150986920136374
-0.17968861305874495,-0.17968861305874495
-0.17968861305874495,-0.17968861305874495
-0.15593548788161038,-0.15593548788161038
-0.12327494076305032,-0.12327494076305032
-0.1044703833311521,-0.1044703833311521
-0.09457324784067936,-0.09457324784067936
-0.0925938207425848,-0.0925938207425848
-0.09457324784067936,-0.09457324784067936
-0.11733665946876667,-0.11733665946876667
-0.150986920136374,-0.150986920136374
-0.18265775370588677,-0.18265775370588677
-0.17968861305874495,-0.17968861305874495
-0.14603835239113763,-0.14603835239113763
-0.09457324784067936,-0.09457324784067936
-0.042118429741173816,-0.042118429741173816
0.018254096750709926,0.018254096750709926
0.07268834194831002,0.07268834194831002
0.10336946196877553,0.10336946196877553
0.10237974841972826,0.10237974841972826
0.10336946196877553,0.10336946196877553
0.12415344649876829,0.12415344649876829
0.15978313426447016,0.15978313426447016
0.18749511363779386,0.18749511363779386
0.21619680656016482,0.21619680656016482
0.2547956349730085,0.2547956349730085
0.3013121717782304,0.3013121717782304
0.3418904272891687,0.3418904272891687
0.386427536996296,0.386427536996296
0.4210675112129506,0.4210675112129506
0.4141395163696197,0.4141395163696197
0.33595214599488504,0.33595214599488504
0.21619680656016482,0.21619680656016482
0.10139003487068098,0.10139003487068098
0.018254096750709926,0.018254096750709926
-0.036180148446890166,-0.036180148446890166
-0.06686126846735567,-0.06686126846735567
-0.09061439364449025,-0.09061439364449025
-0.12327494076305032,-0.12327494076305032
-0.1628634827249413,-0.1628634827249413
-0.17968861305874495,-0.17968861305874495
-0.17572975886255587,-0.17572975886255587
-0.17968861305874495,-0.17968861305874495
-0.20344173823587955,-0.20344173823587955
-0.2083903059811159,-0.2083903059811159
-0.1786988995096977,-0.1786988995096977
-0.150986920136374,-0.150986920136374
-0.1697914775682722,-0.1697914775682722
-0.2083903059811159,-0.2083903059811159
-0.22917429051110869,-0.22917429051110869
-0.2361022853544396,-0.2361022853544396
-0.2756908273163306,-0.2756908273163306
-0.34991934349487613,-0.34991934349487613
-0.42513757322246903,-0.42513757322246903
-0.46274668808626546,-0.46274668808626546
-0.46274668808626546,-0.46274668808626546
-0.4340449951638945,-0.4340449951638945
-0.3964358803000981,-0.3964358803000981
-0.34991934349487613,-0.34991934349487613
-0.30340280668965425,-0.30340280668965425
-0.26480397827681057,-0.26480397827681057
-0.251937702139196,-0.251937702139196
-0.26480397827681057,-0.26480397827681057
-0.28162910861061424,-0.28162910861061424
-0.26480397827681057,-0.26480397827681057
-0.2331331447072978,-0.2331331447072978
-0.2361022853544396,-0.2361022853544396
-0.30142337959155974,-0.30142337959155974
-0.37763132286819984,-0.37763132286819984
-0.41623015128104357,-0.41623015128104357
-0.4063330157905708,-0.4063330157905708
-0.36278561963249073,-0.36278561963249073
-0.2925159576501342,-0.2925159576501342
-0.22620514986396686,-0.22620514986396686
-0.2083903059811159,-0.2083903059811159
-0.2321434311582505,-0.2321434311582505
-0.2361022853544396,-0.2361022853544396
-0.19948288403969044,-0.19948288403969044
-0.17968861305874495,-0.17968861305874495
-0.212349160177305,-0.212349160177305
-0.2361022853544396,-0.2361022853544396
-0.18661660790207588,-0.18661660790207588
-0.09457324784067936,-0.09457324784067936
-0.029252153603559247,-0.029252153603559247
0.018254096750709926,0.018254096750709926
0.10732831616496462,0.10732831616496462
0.21619680656016482,0.21619680656016482
0.2201556607563539,0.2201556607563539
0.018254096750709926,0.018254096750709926
-0.3489296299458289,-0.3489296299458289
-0.745804763113786,-0.745804763113786
-1.1021016407708046,-1.1021016407708046
-1.453449950682587,-1.453449950682587
-1.8295410993205514,-1.8295410993205514
-2.160105424702341,-2.160105424702341
-2.3530995667665597,-2.3530995667665597
-2.386749827434167,-2.386749827434167
-2.3234081602951413,-2.3234081602951413
-2.2165190969980357,-2.2165190969980357
-2.1224963098385445,-2.1224963098385445
-2.1036917524066463,-2.1036917524066463
-2.202663107311374,-2.202663107311374
-2.358048134511796,-2.358048134511796
-2.456029775867476,-2.456029775867476
-2.415451520356538,-2.415451520356538
-2.256107638959927,-2.256107638959927
-2.0472780801109516,-2.0472780801109516
-1.8552736515957806,-1.8552736515957806
-1.6791046398653657,-1.6791046398653657
-1.4752236487616273,-1.4752236487616273
-1.1981038550283905,-1.1981038550283905
-0.8962412225689717,-0.8962412225689717
-0.6606893978957203,-0.6606893978957203
-0.543903199108142,-0.543903199108142
-0.4904586674595891,-0.4904586674595891
-0.43206556806579993,-0.43206556806579993
-0.34991934349487613,-0.34991934349487613
-0.2657936918258578,-0.2657936918258578
-0.17968861305874495,-0.17968861305874495
-0.08962468009544299,-0.08962468009544299
-0.009457882622613758,-0.009457882622613758
0.038048367731655416,0.038048367731655416
0.07466776904640457,0.07466776904640457
0.12415344649876829,0.12415344649876829
0.18848482718684112,0.18848482718684112
0.24687792658063032,0.24687792658063032
0.3013121717782304,0.3013121717782304
0.34782870858345233,0.34782870858345233
0.386427536996296,0.386427536996296
0.42403665186009243,0.42403665186009243
0.4992548815876853,0.4992548815876853
0.6120822261790746,0.6120822261790746
0.7258992843195111,0.7258992843195111
0.7951792327528203,0.7951792327528203
0.8387266289109004,0.8387266289109004
0.8862328792651696,0.8862328792651696
0.952543687051337,0.952543687051337
1.0109367864451262,1.0109367864451262
1.0653710316427263,1.0653710316427263
1.1237641310365154,1.1237641310365154
1.2069000691564866,1.2069000691564866
1.301912569865025,1.301912569865025
1.4048427789659415,1.4048427789659415
1.4889684306349598,1.4889684306349598
1.5463718164797016,1.5463718164797016
1.5661660874606471,1.5661660874606471
1.5750735094020727,1.5750735094020727
1.5988266345792073,1.5988266345792073
1.659199161071091,1.659199161071091
1.7255099688572584,1.7255099688572584
1.7730162192115275,1.7730162192115275
1.7957796308396148,1.7957796308396148
1.829429891507222,1.829429891507222
1.8601110115276875,1.8601110115276875
1.8581315844295931,1.8581315844295931
1.8175533289186547,1.8175533289186547
1.8007281985848511,1.8007281985848511
1.814584188271513,1.814584188271513
1.8007281985848511,1.8007281985848511
1.7007671301310765,1.7007671301310765
1.5750735094020727,1.5750735094020727
1.5097524151649524,1.5097524151649524
1.5176701235573307,1.5176701235573307
1.5038141338706688,1.5038141338706688
1.4048427789659415,1.4048427789659415
1.2395606162750465,1.2395606162750465
1.0940727245650972,1.0940727245650972
1.0000499374056062,1.0000499374056062
0.952543687051337,0.952543687051337
0.9109757179913515,0.9109757179913515
0.8674283218332713,0.8674283218332713
0.8070557953413876,0.8070557953413876
0.7258992843195111,0.7258992843195111
0.6120822261790746,0.6120822261790746
0.4992548815876853,0.4992548815876853
0.4210675112129506,0.4210675112129506
0.386427536996296,0.386427536996296
0.33892128664202686,0.33892128664202686
0.24489849948253578,0.24489849948253578
0.12217401940067374,0.12217401940067374
0.04695578967308089,0.04695578967308089
0.035079227084513595,0.035079227084513595
0.04695578967308089,0.04695578967308089
0.02617180514308812,0.02617180514308812
-0.009457882622613758,-0.009457882622613758
-0.04112871619212654,-0.04112871619212654
-0.06686126846735567,-0.06686126846735567
-0.11733665946876667,-0.11733665946876667
-0.17968861305874495,-0.17968861305874495
-0.2321434311582505,-0.2321434311582505
-0.26480397827681057,-0.26480397827681057
-0.2974645253953706,-0.2974645253953706
-0.3212176505725052,-0.3212176505725052
-0.3222073641215525,-0.3222073641215525
-0.2925159576501342,-0.2925159576501342
-0.2667834053749051,-0.2667834053749051
-0.26480397827681057,-0.26480397827681057
-0.2855879628068033,-0.2855879628068033
-0.2925159576501342,-0.2925159576501342
-0.28162910861061424,-0.28162910861061424
-0.26480397827681057,-0.26480397827681057
-0.262824551178716,-0.262824551178716
-0.26480397827681057,-0.26480397827681057
-0.27173197312014147,-0.27173197312014147
-0.2925159576501342,-0.2925159576501342
-0.32418679121964705,-0.32418679121964705
-0.3212176505725052,-0.3212176505725052
-0.27173197312014147,-0.27173197312014147
-0.2083903059811159,-0.2083903059811159
-0.17276061821541402,-0.17276061821541402
-0.150986920136374,-0.150986920136374
-0.1311926491554285,-0.1311926491554285
-0.12327494076305032,-0.12327494076305032
-0.14108978464590125,-0.14108978464590125
-0.150986920136374,-0.150986920136374
-0.13812064399875942,-0.13812064399875942
-0.12327494076305032,-0.12327494076305032
-0.13020293560638124,-0.13020293560638124
-0.12327494076305032,-0.12327494076305032
-0.06785098201640295,-0.06785098201640295
0.018254096750709926,0.018254096750709926
0.07763690969354639,0.07763690969354639
0.10336946196877553,0.10336946196877553
0.1310814413420992,0.1310814413420992
0.18848482718684112,0.18848482718684112
0.23401165044301575,0.23401165044301575
0.21619680656016482,0.21619680656016482
0.13405058198924102,0.13405058198924102
0.04695578967308089,0.04695578967308089
-0.008468169073566484,-0.008468169073566484
-0.03815957554498472,-0.03815957554498472
-0.06983040911449749,-0.06983040911449749
-0.09457324784067936,-0.09457324784067936
-0.11535723237067212,-0.11535723237067212
-0.150986920136374,-0.150986920136374
-0.22224629566777776,-0.22224629566777776
-0.2925159576501342,-0.2925159576501342
-0.3330942131610725,-0.3330942131610725
-0.34991934349487613,-0.34991934349487613
-0.3835696041624835,-0.3835696041624835
-0.4340449951638945,-0.4340449951638945
-0.4686849693805491,-0.4686849693805491
-0.46274668808626546,-0.46274668808626546
-0.4409729900072254,-0.4409729900072254
-0.4340449951638945,-0.4340449951638945
-0.4568084067919818,-0.4568084067919818
-0.4904586674595891,-0.4904586674595891
-0.5330163500686219,-0.5330163500686219
-0.5755740326776547,-0.5755740326776547
-0.6092242933452621,-0.6092242933452621
-0.6042757256000257,-0.6042757256000257
-0.5636974700890874,-0.5636974700890874
-0.5191603603819601,-0.5191603603819601
-0.5092632248914873,-0.5092632248914873
-0.5191603603819601,-0.5191603603819601
-0.5181706468329128,-0.5181706468329128
-0.4904586674595891,-0.4904586674595891
-0.46670554228245453,-0.46670554228245453
-0.46274668808626546,-0.46274668808626546
-0.46274668808626546,-0.46274668808626546
-0.4340449951638945,-0.4340449951638945
-0.39247702610390894,-0.39247702610390894
-0.37763132286819984,-0.37763132286819984
-0.414250724182949,-0.414250724182949
-0.46274668808626546,-0.46274668808626546
-0.4954072352048255,-0.4954072352048255
-0.5191603603819601,-0.5191603603819601
-0.5468723397552838,-0.5468723397552838
-0.547862053304331,-0.547862053304331
-0.48452038616530546,-0.48452038616530546
-0.37763132286819984,-0.37763132286819984
-0.29647481184632335,-0.29647481184632335
-0.2925159576501342,-0.2925159576501342
-0.3548679112401125,-0.3548679112401125
-0.4340449951638945,-0.4340449951638945
-0.4864998132634,-0.4864998132634
-0.4904586674595891,-0.4904586674595891
-0.4439421306543672,-0.4439421306543672
-0.34991934349487613,-0.34991934349487613
-0.21630801437349412,-0.21630801437349412
-0.06686126846735567,-0.06686126846735567
0.06180149290879,0.06180149290879
0.10336946196877553,0.10336946196877553
-0.01440645036785013,-0.01440645036785013
-0.3212176505725052,-0.3212176505725052
-0.7566916121533059,-0.7566916121533059
-1.1981038550283905,-1.1981038550283905
-1.5692464359211182,-1.5692464359211182
-1.8770473496748206,-1.8770473496748206
-2.167033419545672,-2.167033419545672
-2.415451520356538,-2.415451520356538
-2.5431245681836363,-2.5431245681836363
-2.4995771720255564,-2.4995771720255564
-2.3352847228837086,-2.3352847228837086
-2.160105424702341,-2.160105424702341
-2.07696948658237,-2.07696948658237
-2.1036917524066463,-2.1036917524066463
-2.202663107311374,-2.202663107311374
-2.3016344622161014,-2.3016344622161014
-2.347161285472276,-2.347161285472276
-2.3016344622161014,-2.3016344622161014
-2.1838585498794756,-2.1838585498794756
-2.0185763871885807,-2.0185763871885807
-1.8265719586734097,-1.8265719586734097
-1.5939892746473001,-1.5939892746473001
-1.3495300280326232,-1.3495300280326232
-1.1416901827326957,-1.1416901827326957
-1.0100582807094083,-1.0100582807094083
-0.9150457800008699,-0.9150457800008699
-0.8101361438018587,-0.8101361438018587
-0.6893910908180912,-0.6893910908180912
-0.5894300223643165,-0.5894300223643165
-0.5191603603819601,-0.5191603603819601
-0.44988041194865086,-0.44988041194865086
-0.34991934349487613,-0.34991934349487613
-0.23016400406015594,-0.23016400406015594
-0.12327494076305032,-0.12327494076305032
-0.05399499232974111,-0.05399499232974111
-0.009457882622613758,-0.009457882622613758
0.02815123224118267,0.02815123224118267
0.07466776904640457,0.07466776904640457
0.1360300090873356,0.1360300090873356
0.21619680656016482,0.21619680656016482
0.30329159887632495,0.30329159887632495
0.386427536996296,0.386427536996296
0.4715429022143616,0.4715429022143616
0.5843702468057509,0.5843702468057509
0.6882901694557148,0.6882901694557148
0.7258992843195111,0.7258992843195111
0.6863107423576201,0.6863107423576201
0.6694856120238165,0.6694856120238165
0.7387655604571257,0.7387655604571257
0.8674283218332713,0.8674283218332713
0.9683791038360934,0.9683791038360934
1.0366693387203554,1.0366693387203554
1.1019904329574755,1.1019904329574755
1.1781983762341155,1.1781983762341155
1.2385709027259992,1.2385709027259992
1.292015434374552,1.292015434374552
1.342490825375963,1.342490825375963
1.4048427789659415,1.4048427789659415
1.4820404357916288,1.4820404357916288
1.6027854887753963,1.6027854887753963
1.7443145262891566,1.7443145262891566
1.8581315844295931,1.8581315844295931
1.9175143973724296,1.9175143973724296
1.9709589290209824,1.9709589290209824
2.0174754658262044,2.0174754658262044
1.9996606219433533,1.9996606219433533
1.8620904386257822,1.8620904386257822
1.687900853993462,1.687900853993462
1.5889294990887344,1.5889294990887344
1.6027854887753963,1.6027854887753963
1.64138431718824,1.64138431718824
1.6314871816977672,1.6314871816977672
1.5701249416568361,1.5701249416568361
1.5176701235573307,1.5176701235573307
1.4820404357916288,1.4820404357916288
1.4335444718883124,1.4335444718883124
1.3395216847288214,1.3395216847288214
1.2356017620788575,1.2356017620788575
1.1574143917041229,1.1574143917041229
1.121784703938421,1.121784703938421
1.0891241568198609,1.0891241568198609
1.0366693387203554,1.0366693387203554
0.9495745464041951,0.9495745464041951
0.8387266289109004,0.8387266289109004
0.7080844404366602,0.7080844404366602
0.5843702468057509,0.5843702468057509
0.46461490737103067,0.46461490737103067
0.35772584407392505,0.35772584407392505
0.27261047885585943,0.27261047885585943
0.24489849948253578,0.24489849948253578
0.26073391626729214,0.26073391626729214
0.27261047885585943,0.27261047885585943
0.23005279624682665,0.23005279624682665
0.15978313426447016,0.15978313426447016
0.11029745681210645,0.11029745681210645
0.10336946196877553,0.10336946196877553
0.08258547743878276,0.08258547743878276
0.018254096750709926,0.018254096750709926
-0.06686126846735567,-0.06686126846735567
-0.09457324784067936,-0.09457324784067936
-0.05696413297688293,-0.05696413297688293
-0.009457882622613758,-0.009457882622613758
-0.02826244005451197,-0.02826244005451197
-0.09457324784067936,-0.09457324784067936
-0.15791491497970492,-0.15791491497970492
-0.17968861305874495,-0.17968861305874495
-0.1895857485492177,-0.1895857485492177
-0.2083903059811159,-0.2083903059811159
-0.23412285825634505,-0.23412285825634505
-0.2361022853544396,-0.2361022853544396
-0.2054211653339741,-0.2054211653339741
-0.150986920136374,-0.150986920136374
-0.11139837817448302,-0.11139837817448302
-0.09457324784067936,-0.09457324784067936
-0.09061439364449025,-0.09061439364449025
-0.06686126846735567,-0.06686126846735567
-0.03914928909403199,-0.03914928909403199
-0.03815957554498472,-0.03815957554498472
-0.07576869040878115,-0.07576869040878115
-0.09457324784067936,-0.09457324784067936
-0.04409785683926836,-0.04409785683926836
0.07466776904640457,0.07466776904640457
0.19541282203017205,0.19541282203017205
0.27261047885585943,0.27261047885585943
0.3131887343667977,0.3131887343667977
0.35772584407392505,0.35772584407392505
0.4022629537810524,0.4022629537810524
0.4141395163696197,0.4141395163696197
0.3686126931134451,0.3686126931134451
0.3013121717782304,0.3013121717782304
0.25380592142396124,0.25380592142396124
0.24489849948253578,0.24489849948253578
0.25380592142396124,0.25380592142396124
0.27261047885585943,0.27261047885585943
0.2924047498368049,0.2924047498368049
0.3013121717782304,0.3013121717782304
0.27557961950300125,0.27557961950300125
0.21619680656016482,0.21619680656016482
0.14097857683257195,0.14097857683257195
0.07466776904640457,0.07466776904640457
0.016274669652615377,0.016274669652615377
-0.03815957554498472,-0.03815957554498472
-0.09358353429163209,-0.09358353429163209
-0.12327494076305032,-0.12327494076305032
-0.1044703833311521,-0.1044703833311521
-0.03815957554498472,-0.03815957554498472
0.014295242554520828,0.014295242554520828
-0.009457882622613758,-0.009457882622613758
-0.11832637301781394,-0.11832637301781394
-0.2361022853544396,-0.2361022853544396
-0.313299942180127,-0.313299942180127
-0.34991934349487613,-0.34991934349487613
-0.37367246867201076,-0.37367246867201076
-0.37763132286819984,-0.37763132286819984
-0.36575476027963255,-0.36575476027963255
-0.34991934349487613,-0.34991934349487613
-0.3212176505725052,-0.3212176505725052
-0.2361022853544396,-0.2361022853544396
-0.12723379495923942,-0.12723379495923942
-0.09457324784067936,-0.09457324784067936
-0.19057546209826498,-0.19057546209826498
-0.3212176505725052,-0.3212176505725052
-0.3914873125548617,-0.3914873125548617
-0.4063330157905708,-0.4063330157905708
-0.42513757322246903,-0.42513757322246903
-0.4340449951638945,-0.4340449951638945
-0.3984153073981926,-0.3984153073981926
-0.3212176505725052,-0.3212176505725052
-0.2400611395506287,-0.2400611395506287
-0.150986920136374,-0.150986920136374
-0.0658715549183084,-0.0658715549183084
-0.03815957554498472,-0.03815957554498472
-0.11436751882162485,-0.11436751882162485
-0.2361022853544396,-0.2361022853544396
-0.3004336660425124,-0.3004336660425124
-0.26480397827681057,-0.26480397827681057
-0.1895857485492177,-0.1895857485492177
-0.150986920136374,-0.150986920136374
-0.17572975886255587,-0.17572975886255587
-0.2361022853544396,-0.2361022853544396
-0.2855879628068033,-0.2855879628068033
-0.2925159576501342,-0.2925159576501342
-0.27668054086537786,-0.27668054086537786
-0.26480397827681057,-0.26480397827681057
-0.22224629566777776,-0.22224629566777776
-0.09457324784067936,-0.09457324784067936
0.08753404518401914,0.08753404518401914
0.21619680656016482,0.21619680656016482
0.2547956349730085,0.2547956349730085
0.24489849948253578,0.24489849948253578
0.16077284781351744,0.16077284781351744
-0.09457324784067936,-0.09457324784067936
-0.47462325067483274,-0.47462325067483274
-0.745804763113786,-0.745804763113786
-0.8160744250961424,-0.8160744250961424
-0.9150457800008699,-0.9150457800008699
-1.3129106267178743,-1.3129106267178743
-1.9057490425971915,-1.9057490425971915
-2.310541884157527,-2.310541884157527
-2.3016344622161014,-2.3016344622161014
-2.070041491739039,-2.070041491739039
-1.9621627148928862,-1.9621627148928862
-2.1333831588780647,-2.1333831588780647
-2.4431634997298617,-2.4431634997298617
-2.697519881835011,-2.697519881835011
-2.8113369399754475,-2.8113369399754475
-2.8024295180340224,-2.8024295180340224
-2.669807902461687,-2.669807902461687
-2.434256077788436,-2.434256077788436
-2.160105424702341,-2.160105424702341
-1.911687323891475,-1.911687323891475
-1.651392660492042,-1.651392660492042
-1.3515094551307179,-1.3515094551307179
-1.0565748175146301,-1.0565748175146301
-0.8418069773713716,-0.8418069773713716
-0.6893910908180912,-0.6893910908180912
-0.5538003345986147,-0.5538003345986147
-0.4340449951638945,-0.4340449951638945
-0.3568473383382071,-0.3568473383382071
-0.2925159576501342,-0.2925159576501342
-0.212349160177305,-0.212349160177305
-0.12327494076305032,-0.12327494076305032
-0.04607728393736291,-0.04607728393736291
0.04695578967308089,0.04695578967308089
0.1706699833039902,0.1706699833039902
0.3013121717782304,0.3013121717782304
0.40721152152628876,0.40721152152628876
0.4992548815876853,0.4992548815876853
0.5695245435700418,0.5695245435700418
0.5843702468057509,0.5843702468057509
0.5517096996871909,0.5517096996871909
0.55566855388338,0.55566855388338
0.6338559242581147,0.6338559242581147
0.7258992843195111,0.7258992843195111
0.7536112636928348,0.7536112636928348
0.7546009772418821,0.7546009772418821
0.7803335295171112,0.7803335295171112
0.8387266289109004,0.8387266289109004
0.8892020199123114,0.8892020199123114
0.952543687051337,0.952543687051337
1.0376590522694027,1.0376590522694027
1.121784703938421,1.121784703938421
1.1663218136455482,1.1663218136455482
1.2069000691564866,1.2069000691564866
1.277169731138843,1.277169731138843
1.3771307995926176,1.3771307995926176
1.4701638732030615,1.4701638732030615
1.5750735094020727,1.5750735094020727
1.6829522862482256,1.6829522862482256
1.7730162192115275,1.7730162192115275
1.8244813237619857,1.8244813237619857
1.8858435638029167,1.8858435638029167
1.9679897883738406,1.9679897883738406
2.027372601316677,2.027372601316677
2.012526898080968,2.012526898080968
1.9709589290209824,1.9709589290209824
1.9640309341776514,1.9640309341776514
1.9996606219433533,1.9996606219433533
1.9937223406490696,1.9937223406490696
1.9145452567252876,1.9145452567252876
1.7947899172905675,1.7947899172905675
1.7166025469158328,1.7166025469158328
1.6839419997972729,1.6839419997972729
1.659199161071091,1.659199161071091
1.590908926186829,1.590908926186829
1.489958144184007,1.489958144184007
1.3731719453964286,1.3731719453964286
1.2633137414521811,1.2633137414521811
1.1683012407436428,1.1683012407436428
1.121784703938421,1.121784703938421
1.1118875684479481,1.1118875684479481
1.0940727245650972,1.0940727245650972
1.0049985051508425,1.0049985051508425
0.8674283218332713,0.8674283218332713
0.739755274006173,0.739755274006173
0.6694856120238165,0.6694856120238165
0.6130719397281219,0.6130719397281219
0.5279565745100563,0.5279565745100563
0.40424238087914693,0.40424238087914693
0.3013121717782304,0.3013121717782304
0.24192935883539396,0.24192935883539396
0.21619680656016482,0.21619680656016482
0.1855156865396993,0.1855156865396993
0.15978313426447016,0.15978313426447016
0.1360300090873356,0.1360300090873356
0.10336946196877553,0.10336946196877553
0.035079227084513595,0.035079227084513595
-0.03815957554498472,-0.03815957554498472
-0.0856658258992539,-0.0856658258992539
-0.09457324784067936,-0.09457324784067936
-0.11040866462543575,-0.11040866462543575
-0.150986920136374,-0.150986920136374
-0.20740059243206865,-0.20740059243206865
-0.2361022853544396,-0.2361022853544396
-0.24204056664872325,-0.24204056664872325
-0.2361022853544396,-0.2361022853544396
-0.2321434311582505,-0.2321434311582505
-0.2083903059811159,-0.2083903059811159
-0.17276061821541402,-0.17276061821541402
-0.150986920136374,-0.150986920136374
-0.16583262337208313,-0.16583262337208313
-0.17968861305874495,-0.17968861305874495
-0.1707811911173195,-0.1707811911173195
-0.150986920136374,-0.150986920136374
-0.16583262337208313,-0.16583262337208313
-0.2083903059811159,-0.2083903059811159
-0.24204056664872325,-0.24204056664872325
-0.2361022853544396,-0.2361022853544396
-0.2093800195301632,-0.2093800195301632
-0.17968861305874495,-0.17968861305874495
-0.14702806594018492,-0.14702806594018492
-0.09457324784067936,-0.09457324784067936
-0.054984705878788384,-0.054984705878788384
-0.06686126846735567,-0.06686126846735567
-0.1311926491554285,-0.1311926491554285
-0.17968861305874495,-0.17968861305874495
-0.1707811911173195,-0.1707811911173195
-0.12327494076305032,-0.12327494076305032
-0.07576869040878115,-0.07576869040878115
-0.009457882622613758,-0.009457882622613758
0.09545175357639733,0.09545175357639733
0.21619680656016482,0.21619680656016482
0.2894356091896631,0.2894356091896631
0.3013121717782304,0.3013121717782304
0.28448704144442677,0.28448704144442677
0.27261047885585943,0.27261047885585943
0.25677506207110307,0.25677506207110307
0.21619680656016482,0.21619680656016482
0.15384485297018652,0.15384485297018652
0.10336946196877553,0.10336946196877553
0.08852375873306641,0.08852375873306641
0.10336946196877553,0.10336946196877553
0.09941060777258642,0.09941060777258642
0.04695578967308089,0.04695578967308089
-0.036180148446890166,-0.036180148446890166
-0.09457324784067936,-0.09457324784067936
-0.12129551366495576,-0.12129551366495576
-0.150986920136374,-0.150986920136374
-0.2172977279225414,-0.2172977279225414
-0.2925159576501342,-0.2925159576501342
-0.3479399163967816,-0.3479399163967816
-0.37763132286819984,-0.37763132286819984
-0.40732272933961805,-0.40732272933961805
-0.4340449951638945,-0.4340449951638945
-0.45383926614484,-0.45383926614484
-0.46274668808626546,-0.46274668808626546
-0.46274668808626546,-0.46274668808626546
-0.4340449951638945,-0.4340449951638945
-0.3865387448096253,-0.3865387448096253
-0.34991934349487613,-0.34991934349487613
-0.3617959060834435,-0.3617959060834435
-0.4063330157905708,-0.4063330157905708
-0.4389935629091309,-0.4389935629091309
-0.4340449951638945,-0.4340449951638945
-0.4241478596734217,-0.4241478596734217
-0.4340449951638945,-0.4340449951638945
-0.44493184420341453,-0.44493184420341453
-0.4063330157905708,-0.4063330157905708
-0.33408392671011977,-0.33408392671011977
-0.2925159576501342,-0.2925159576501342
-0.30835137443489063,-0.30835137443489063
-0.3212176505725052,-0.3212176505725052
-0.302413093140607,-0.302413093140607
-0.2925159576501342,-0.2925159576501342
-0.3271559318667889,-0.3271559318667889
-0.34991934349487613,-0.34991934349487613
-0.3212176505725052,-0.3212176505725052
-0.2925159576501342,-0.2925159576501342
-0.31626908282726884,-0.31626908282726884
-0.34991934349487613,-0.34991934349487613
-0.335073640259167,-0.335073640259167
-0.2925159576501342,-0.2925159576501342
-0.2657936918258578,-0.2657936918258578
-0.2361022853544396,-0.2361022853544396
-0.19057546209826498,-0.19057546209826498
-0.17968861305874495,-0.17968861305874495
-0.2440199937468178,-0.2440199937468178
-0.3212176505725052,-0.3212176505725052
-0.3142896557291743,-0.3142896557291743
-0.2083903059811159,-0.2083903059811159
-0.05300527878069383,-0.05300527878069383
0.10336946196877553,0.10336946196877553
0.21025852526588115,0.21025852526588115
0.18848482718684112,0.18848482718684112
-0.0193550181130865,-0.0193550181130865
-0.37763132286819984,-0.37763132286819984
-0.8022184354094806,-0.8022184354094806
-1.2268055479507614,-1.2268055479507614
-1.6246703946677656,-1.6246703946677656
-1.9621627148928862,-1.9621627148928862
-2.206621961507563,-2.206621961507563
-2.3303361551384723,-2.3303361551384723
-2.3382538635308503,-2.3382538635308503
-2.2452207899204066,-2.2452207899204066
-2.09874318466141,-2.09874318466141
-1.9621627148928862,-1.9621627148928862
-1.9097078967933807,-1.9097078967933807
-1.9621627148928862,-1.9621627148928862
-2.0967637575633153,-2.0967637575633153
-2.2452207899204066,-2.2452207899204066
-2.3491407125703705,-2.3491407125703705
-2.358048134511796,-2.358048134511796
-2.265015060901352,-2.265015060901352
-2.075979773033323,-2.075979773033323
-1.8226131044772205,-1.8226131044772205
-1.5375756023516054,-1.5375756023516054
-1.2733220847559832,-1.2733220847559832
-1.0565748175146301,-1.0565748175146301
-0.883374946431357,-0.883374946431357
-0.717103070191415,-0.717103070191415
-0.5587489023438511,-0.5587489023438511
-0.4340449951638945,-0.4340449951638945
-0.34991934349487613,-0.34991934349487613
-0.26480397827681057,-0.26480397827681057
-0.15197663368542128,-0.15197663368542128
-0.03815957554498472,-0.03815957554498472
0.025182091594040848,0.025182091594040848
0.04695578967308089,0.04695578967308089
0.07862662324259366,0.07862662324259366
0.15978313426447016,0.15978313426447016
0.2508367807768194,0.2508367807768194
0.3013121717782304,0.3013121717782304
0.31615787501393955,0.31615787501393955
0.35772584407392505,0.35772584407392505
0.4408617821938961,0.4408617821938961
0.5279565745100563,0.5279565745100563
0.5942673822962237,0.5942673822962237
0.6694856120238165,0.6694856120238165
0.7318375656137948,0.7318375656137948
0.7258992843195111,0.7258992843195111
0.6595884765333437,0.6595884765333437
0.6694856120238165,0.6694856120238165
0.8090352224394822,0.8090352224394822
0.9802556664246607,0.9802556664246607
1.0525047555051117,1.0525047555051117
1.0653710316427263,1.0653710316427263
1.10396986005557,1.10396986005557
1.1781983762341155,1.1781983762341155
1.222735485941243,1.222735485941243
1.2633137414521811,1.2633137414521811
1.3593159557097667,1.3593159557097667
1.5176701235573307,1.5176701235573307
1.6582094475220437,1.6582094475220437
1.7443145262891566,1.7443145262891566
1.796769344388662,1.796769344388662
1.8581315844295931,1.8581315844295931
1.904648121234815,1.904648121234815
1.9145452567252876,1.9145452567252876
1.8818847096067277,1.8818847096067277
1.8581315844295931,1.8581315844295931
1.8561521573314985,1.8561521573314985
1.8581315844295931,1.8581315844295931
1.8155739018205603,1.8155739018205603
1.7443145262891566,1.7443145262891566
1.6819625726991783,1.6819625726991783
1.659199161071091,1.659199161071091
1.6423740307372872,1.6423740307372872
1.6027854887753963,1.6027854887753963
1.5325158267930399,1.5325158267930399
1.461256451261636,1.461256451261636
1.3929662163773742,1.3929662163773742
1.3197274137478758,1.3197274137478758
1.222735485941243,1.222735485941243
1.121784703938421,1.121784703938421
1.0297413438770244,1.0297413438770244
0.952543687051337,0.952543687051337
0.8575311863427987,0.8575311863427987
0.7546009772418821,0.7546009772418821
0.6615679036314382,0.6615679036314382
0.6130719397281219,0.6130719397281219
0.5715039706681363,0.5715039706681363
0.4992548815876853,0.4992548815876853
0.38840696409439057,0.38840696409439057
0.3013121717782304,0.3013121717782304
0.26172362981633945,0.26172362981633945
0.24489849948253578,0.24489849948253578
0.19640253557921933,0.19640253557921933
0.13207115489114649,0.13207115489114649
0.07466776904640457,0.07466776904640457
0.04695578967308089,0.04695578967308089
0.03408951353546632,0.03408951353546632
0.04695578967308089,0.04695578967308089
0.06180149290879,0.06180149290879
0.04695578967308089,0.04695578967308089
-0.02133444521118105,-0.02133444521118105
-0.09457324784067936,-0.09457324784067936
-0.13614121690066489,-0.13614121690066489
-0.150986920136374,-0.150986920136374
-0.18661660790207588,-0.18661660790207588
-0.2361022853544396,-0.2361022853544396
-0.27371140021823603,-0.27371140021823603
-0.26480397827681057,-0.26480397827681057
-0.21828744147158866,-0.21828744147158866
-0.150986920136374,-0.150986920136374
-0.10249095623305755,-0.10249095623305755
-0.09457324784067936,-0.09457324784067936
-0.1351515033516176,-0.1351515033516176
-0.17968861305874495,-0.17968861305874495
-0.19849317049064316,-0.19849317049064316
-0.17968861305874495,-0.17968861305874495
-0.15197663368542128,-0.15197663368542128
-0.12327494076305032,-0.12327494076305032
-0.08863496654639572,-0.08863496654639572
-0.03815957554498472,-0.03815957554498472
0.004398107064048085,0.004398107064048085
0.018254096750709926,0.018254096750709926
0.009346674809284456,0.009346674809284456
0.018254096750709926,0.018254096750709926
0.057842638712600904,0.057842638712600904
0.10336946196877553,0.10336946196877553
0.12118430585162647,0.12118430585162647
0.13207115489114649,0.13207115489114649
0.1706699833039902,0.1706699833039902
0.24489849948253578,0.24489849948253578
0.30824016662156134,0.30824016662156134
0.33001386470060134,0.33001386470060134
0.314178447915845,0.314178447915845
0.3013121717782304,0.3013121717782304
0.3023018853272777,0.3023018853272777
0.3013121717782304,0.3013121717782304
0.2716207653068122,0.2716207653068122
0.21619680656016482,0.21619680656016482
0.1548345665192338,0.1548345665192338
0.10336946196877553,0.10336946196877553
0.04299693547689179,0.04299693547689179
-0.03815957554498472,-0.03815957554498472
-0.11733665946876667,-0.11733665946876667
-0.150986920136374,-0.150986920136374
-0.16484290982303584,-0.16484290982303584
-0.2083903059811159,-0.2083903059811159
-0.26975254602204696,-0.26975254602204696
-0.26480397827681057,-0.26480397827681057
-0.20047259758873773,-0.20047259758873773
-0.17968861305874495,-0.17968861305874495
-0.23907142600158143,-0.23907142600158143
-0.26480397827681057,-0.26480397827681057
-0.20641087888302137,-0.20641087888302137
-0.17968861305874495,-0.17968861305874495
-0.2905365305520397,-0.2905365305520397
-0.4340449951638945,-0.4340449951638945
-0.4686849693805491,-0.4686849693805491
-0.4063330157905708,-0.4063330157905708
-0.3617959060834435,-0.3617959060834435
-0.34991934349487613,-0.34991934349487613
-0.32418679121964705,-0.32418679121964705
-0.2925159576501342,-0.2925159576501342
-0.3093410879839379,-0.3093410879839379
-0.34991934349487613,-0.34991934349487613
-0.363775333181538,-0.363775333181538
-0.34991934349487613,-0.34991934349487613
-0.35387819769106527,-0.35387819769106527
-0.37763132286819984,-0.37763132286819984
-0.4013844480453344,-0.4013844480453344
-0.4063330157905708,-0.4063330157905708
-0.39346673965295625,-0.39346673965295625
-0.34991934349487613,-0.34991934349487613
-0.30142337959155974,-0.30142337959155974
-0.2925159576501342,-0.2925159576501342
-0.33804278090630885,-0.33804278090630885
-0.37763132286819984,-0.37763132286819984
-0.3598164789853489,-0.3598164789853489
-0.2925159576501342,-0.2925159576501342
-0.2331331447072978,-0.2331331447072978
-0.2083903059811159,-0.2083903059811159
-0.19651374339254862,-0.19651374339254862
-0.17968861305874495,-0.17968861305874495
-0.18364746725493405,-0.18364746725493405
-0.2361022853544396,-0.2361022853544396
-0.29152624410108696,-0.29152624410108696
-0.26480397827681057,-0.26480397827681057
-0.15593548788161038,-0.15593548788161038
-0.03815957554498472,-0.03815957554498472
0.08555461808592459,0.08555461808592459
0.27261047885585943,0.27261047885585943
0.43888235509580154,0.43888235509580154
0.35772584407392505,0.35772584407392505
-0.043108143290221085,-0.043108143290221085
-0.547862053304331,-0.547862053304331
-0.9526548948646663,-0.9526548948646663
-1.311920913168827,-1.311920913168827
-1.7473948747496277,-1.7473948747496277
-2.160105424702341,-2.160105424702341
-2.354089280315607,-2.354089280315607
-2.3016344622161014,-2.3016344622161014
-2.1551568569571047,-2.1551568569571047
-2.0185763871885807,-2.0185763871885807
-1.9304918813233733,-1.9304918813233733
-1.9344507355195626,-1.9344507355195626
-2.0809283407785593,-2.0809283407785593
-2.3016344622161014,-2.3016344622161014
-2.4471223539260505,-2.4471223539260505
-2.415451520356538,-2.415451520356538
-2.2511590712146905,-2.2511590712146905
-2.0472780801109516,-2.0472780801109516
-1.8582427922429223,-1.8582427922429223
-1.651392660492042,-1.651392660492042
-1.4049539867792706,-1.4049539867792706
-1.1416901827326957,-1.1416901827326957
-0.9199943477461062,-0.9199943477461062
-0.745804763113786,-0.745804763113786
-0.5983374443057421,-0.5983374443057421
-0.46274668808626546,-0.46274668808626546
-0.35882676543630165,-0.35882676543630165
-0.2925159576501342,-0.2925159576501342
-0.2509479885901487,-0.2509479885901487
-0.2083903059811159,-0.2083903059811159
-0.15791491497970492,-0.15791491497970492
-0.09457324784067936,-0.09457324784067936
-0.012427023269755581,-0.012427023269755581
0.10336946196877553,0.10336946196877553
0.2389602181882521,0.2389602181882521
0.35772584407392505,0.35772584407392505
0.4180983705658088,0.4180983705658088
0.4141395163696197,0.4141395163696197
0.3765304015058233,0.3765304015058233
0.35772584407392505,0.35772584407392505
0.39533495893772147,0.39533495893772147
0.4992548815876853,0.4992548815876853
0.6249485023166892,0.6249485023166892
0.7258992843195111,0.7258992843195111
0.790230665007584,0.790230665007584
0.8674283218332713,0.8674283218332713
0.9673893902870461,0.9673893902870461
1.0653710316427263,1.0653710316427263
1.1306921258798464,1.1306921258798464
1.2069000691564866,1.2069000691564866
1.3296245492383485,1.3296245492383485
1.489958144184007,1.489958144184007
1.6097134836187272,1.6097134836187272
1.659199161071091,1.659199161071091
1.6572197339729964,1.6572197339729964
1.659199161071091,1.659199161071091
1.6789934320520363,1.6789934320520363
1.7166025469158328,1.7166025469158328
1.7542116617796293,1.7542116617796293
1.8007281985848511,1.8007281985848511
1.8383373134486476,1.8383373134486476
1.8581315844295931,1.8581315844295931
1.8521933031353095,1.8521933031353095
1.8581315844295931,1.8581315844295931
1.882874423155775,1.882874423155775
1.9145452567252876,1.9145452567252876
1.9125658296271932,1.9125658296271932
1.8858435638029167,1.8858435638029167
1.8521933031353095,1.8521933031353095
1.829429891507222,1.829429891507222
1.7868722088981894,1.7868722088981894
1.7166025469158328,1.7166025469158328
1.6245591868544362,1.6245591868544362
1.5463718164797016,1.5463718164797016
1.468184446104967,1.468184446104967
1.3771307995926176,1.3771307995926176
1.2722211633936067,1.2722211633936067
1.2069000691564866,1.2069000691564866
1.1880955117245884,1.1880955117245884
1.1781983762341155,1.1781983762341155
1.1138669955460427,1.1138669955460427
1.0089573593470316,1.0089573593470316
0.8981094418537369,0.8981094418537369
0.8110146495375767,0.8110146495375767
0.717981575927133,0.717981575927133
0.6130719397281219,0.6130719397281219
0.5002445951367326,0.5002445951367326
0.4141395163696197,0.4141395163696197
0.35772584407392505,0.35772584407392505
0.33001386470060134,0.33001386470060134
0.3102195937196559,0.3102195937196559
0.3013121717782304,0.3013121717782304
0.28151790079728495,0.28151790079728495
0.24489849948253578,0.24489849948253578
0.17660826459827383,0.17660826459827383
0.10336946196877553,0.10336946196877553
0.036068940633560864,0.036068940633560864
-0.009457882622613758,-0.009457882622613758
-0.03914928909403199,-0.03914928909403199
-0.03815957554498472,-0.03815957554498472
-0.02133444521118105,-0.02133444521118105
-0.009457882622613758,-0.009457882622613758
-0.022324158760228325,-0.022324158760228325
-0.03815957554498472,-0.03815957554498472
-0.06092298717307203,-0.06092298717307203
-0.09457324784067936,-0.09457324784067936
-0.12426465431209759,-0.12426465431209759
-0.09457324784067936,-0.09457324784067936
-0.031231580701653796,-0.031231580701653796
-0.009457882622613758,-0.009457882622613758
-0.0619127007221193,-0.0619127007221193
-0.09457324784067936,-0.09457324784067936
-0.05399499232974111,-0.05399499232974111
0.018254096750709926,0.018254096750709926
0.051904357418317254,0.051904357418317254
0.07466776904640457,0.07466776904640457
0.10930774326305917,0.10930774326305917
0.10336946196877553,0.10336946196877553
0.007367247711189908,0.007367247711189908
-0.09457324784067936,-0.09457324784067936
-0.100511529134963,-0.100511529134963
-0.009457882622613758,-0.009457882622613758
0.08753404518401914,0.08753404518401914
0.15978313426447016,0.15978313426447016
0.21817623365825936,0.21817623365825936
0.27261047885585943,0.27261047885585943
0.31615787501393955,0.31615787501393955
0.35772584407392505,0.35772584407392505
0.3785098286039178,0.3785098286039178
0.35772584407392505,0.35772584407392505
0.3339727188967905,0.3339727188967905
0.386427536996296,0.386427536996296
0.4705531886653143,0.4705531886653143
0.44284120929199067,0.44284120929199067
0.26370305691443396,0.26370305691443396
0.10336946196877553,0.10336946196877553
0.09545175357639733,0.09545175357639733
0.15978313426447016,0.15978313426447016
0.12613287359686284,0.12613287359686284
-0.009457882622613758,-0.009457882622613758
-0.13317207625352306,-0.13317207625352306
-0.17968861305874495,-0.17968861305874495
-0.20146231113778498,-0.20146231113778498
-0.2361022853544396,-0.2361022853544396
-0.2826188221596615,-0.2826188221596615
-0.3212176505725052,-0.3212176505725052
-0.35090905704392344,-0.35090905704392344
-0.34991934349487613,-0.34991934349487613
-0.32319707767059974,-0.32319707767059974
-0.2925159576501342,-0.2925159576501342
-0.2796496815125197,-0.2796496815125197
-0.26480397827681057,-0.26480397827681057
-0.26084512408062144,-0.26084512408062144
-0.2925159576501342,-0.2925159576501342
-0.34596048929868706,-0.34596048929868706
-0.34991934349487613,-0.34991934349487613
-0.30439252023870156,-0.30439252023870156
-0.2925159576501342,-0.2925159576501342
-0.36278561963249073,-0.36278561963249073
-0.4340449951638945,-0.4340449951638945
-0.4310758545167527,-0.4310758545167527
-0.37763132286819984,-0.37763132286819984
-0.352888484142018,-0.352888484142018
-0.34991934349487613,-0.34991934349487613
-0.32814564541583613,-0.32814564541583613
-0.2925159576501342,-0.2925159576501342
-0.2875673899048979,-0.2875673899048979
-0.2925159576501342,-0.2925159576501342
-0.2677731189239524,-0.2677731189239524
-0.2083903059811159,-0.2083903059811159
-0.16682233692113038,-0.16682233692113038
-0.17968861305874495,-0.17968861305874495
-0.24995827504110144,-0.24995827504110144
-0.34991934349487613,-0.34991934349487613
-0.4261272867715163,-0.4261272867715163
-0.4340449951638945,-0.4340449951638945
-0.3875284583586726,-0.3875284583586726
-0.34991934349487613,-0.34991934349487613
-0.34299134865154524,-0.34299134865154524
-0.3212176505725052,-0.3212176505725052
-0.2529274156882433,-0.2529274156882433
-0.17968861305874495,-0.17968861305874495
-0.1391103575478067,-0.1391103575478067
-0.09457324784067936,-0.09457324784067936
0.009346674809284456,0.009346674809284456
0.15978313426447016,0.15978313426447016
0.28052818724823764,0.28052818724823764
0.3013121717782304,0.3013121717782304
0.18056711879446294,0.18056711879446294
-0.09457324784067936,-0.09457324784067936
-0.49738666230292006,-0.49738666230292006
-0.9437474729232408,-0.9437474729232408
-1.3544785957778598,-1.3544785957778598
-1.7078063327877366,-1.7078063327877366
-2.0354015175223843,-2.0354015175223843
-2.3303361551384723,-2.3303361551384723
-2.5114537346141237,-2.5114537346141237
-2.4995771720255564,-2.4995771720255564
-2.351120139668465,-2.351120139668465
-2.2165190969980357,-2.2165190969980357
-2.202663107311374,-2.202663107311374
-2.2739224828427775,-2.2739224828427775
-2.3699246971003634,-2.3699246971003634
-2.4718651926522326,-2.4718651926522326
-2.5490628494779197,-2.5490628494779197
-2.4995771720255564,-2.4995771720255564
-2.2848093318822977,-2.2848093318822977
-1.990864407815257,-1.990864407815257
-1.7355183121610605,-1.7355183121610605
-1.5098636229782818,-1.5098636229782818
-1.261445522167416,-1.261445522167416
-1.0001611452189354,-1.0001611452189354
-0.7972698676642442,-0.7972698676642442
-0.6606893978957203,-0.6606893978957203
-0.5557797616967093,-0.5557797616967093
-0.46274668808626546,-0.46274668808626546
-0.39742559384914533,-0.39742559384914533
-0.34991934349487613,-0.34991934349487613
-0.28459824925775606,-0.28459824925775606
-0.17968861305874495,-0.17968861305874495
-0.06488184136926113,-0.06488184136926113
0.018254096750709926,0.018254096750709926
0.05586321161450635,0.05586321161450635
0.07466776904640457,0.07466776904640457
0.09842089422353915,0.09842089422353915
0.13207115489114649,0.13207115489114649
0.17660826459827383,0.17660826459827383
0.24489849948253578,0.24489849948253578
0.32308586985727045,0.32308586985727045
0.386427536996296,0.386427536996296
0.4289852196053288,0.4289852196053288
0.4992548815876853,0.4992548815876853
0.6031748042376491,0.6031748042376491
0.6971975913971402,0.6971975913971402
0.7328272791628421,0.7328272791628421
0.7546009772418821,0.7546009772418821
0.8149735037337659,0.8149735037337659
0.9238419941289661,0.9238419941289661
1.0148956406413152,1.0148956406413152
1.0653710316427263,1.0653710316427263
1.0940727245650972,1.0940727245650972
1.150486396860792,1.150486396860792
1.2306531943336212,1.2306531943336212
1.3197274137478758,1.3197274137478758
1.3919765028283269,1.3919765028283269
1.461256451261636,1.461256451261636
1.5384541080873235,1.5384541080873235
1.6314871816977672,1.6314871816977672
1.713633406268691,1.713633406268691
1.7730162192115275,1.7730162192115275
1.7888516359962838,1.7888516359962838
1.7730162192115275,1.7730162192115275
1.7373865314458257,1.7373865314458257
1.7166025469158328,1.7166025469158328
1.7106642656215492,1.7106642656215492
1.7166025469158328,1.7166025469158328
1.7076951249744075,1.7076951249744075
1.687900853993462,1.687900853993462
1.6433637442863345,1.6433637442863345
1.5750735094020727,1.5750735094020727
1.4830301493406761,1.4830301493406761
1.4048427789659415,1.4048427789659415
1.3543673879645304,1.3543673879645304
1.3197274137478758,1.3197274137478758
1.2613343143540865,1.2613343143540865
1.1781983762341155,1.1781983762341155
1.0930830110160499,1.0930830110160499
1.0366693387203554,1.0366693387203554
0.9990602238565589,0.9990602238565589
0.952543687051337,0.952543687051337
0.8575311863427987,0.8575311863427987
0.7258992843195111,0.7258992843195111
0.5903085281000345,0.5903085281000345
0.4992548815876853,0.4992548815876853
0.44185149574294336,0.44185149574294336
0.386427536996296,0.386427536996296
0.3023018853272777,0.3023018853272777
0.21619680656016482,0.21619680656016482
0.14889628522495016,0.14889628522495016
0.10336946196877553,0.10336946196877553
0.05487349806545908,0.05487349806545908
0.018254096750709926,0.018254096750709926
0.015284956103568103,0.015284956103568103
0.04695578967308089,0.04695578967308089
0.03705865418260814,0.03705865418260814
-0.06686126846735567,-0.06686126846735567
-0.2361022853544396,-0.2361022853544396
-0.34991934349487613,-0.34991934349487613
-0.3449707757496398,-0.3449707757496398
-0.26480397827681057,-0.26480397827681057
-0.2172977279225414,-0.2172977279225414
-0.2361022853544396,-0.2361022853544396
-0.28855710345394514,-0.28855710345394514
-0.3212176505725052,-0.3212176505725052
-0.3370530673572616,-0.3370530673572616
-0.34991934349487613,-0.34991934349487613
-0.3598164789853489,-0.3598164789853489
-0.34991934349487613,-0.34991934349487613
-0.34101192155345067,-0.34101192155345067
-0.34991934349487613,-0.34991934349487613
-0.3518987705929707,-0.3518987705929707
-0.2925159576501342,-0.2925159576501342
-0.20443145178492683,-0.20443145178492683
-0.17968861305874495,-0.17968861305874495
-0.2549068427863378,-0.2549068427863378
-0.3212176505725052,-0.3212176505725052
-0.2855879628068033,-0.2855879628068033
-0.17968861305874495,-0.17968861305874495
-0.10941895107638848,-0.10941895107638848
-0.09457324784067936,-0.09457324784067936
-0.09754238848782118,-0.09754238848782118
-0.09457324784067936,-0.09457324784067936
-0.1084292375273412,-0.1084292375273412
-0.12327494076305032,-0.12327494076305032
-0.1123880917235303,-0.1123880917235303
-0.06686126846735567,-0.06686126846735567
-0.009457882622613758,-0.009457882622613758
0.04695578967308089,0.04695578967308089
0.08654433163497185,0.08654433163497185
0.10336946196877553,0.10336946196877553
0.1043591755178228,0.1043591755178228
0.13207115489114649,0.13207115489114649
0.19838196267731387,0.19838196267731387
0.27261047885585943,0.27261047885585943
0.30032245822918313,0.30032245822918313
0.27261047885585943,0.27261047885585943
0.21619680656016482,0.21619680656016482
0.15978313426447016,0.15978313426447016
0.1043591755178228,0.1043591755178228
0.04695578967308089,0.04695578967308089
-0.024303585858322874,-0.024303585858322874
-0.09457324784067936,-0.09457324784067936
-0.13614121690066489,-0.13614121690066489
-0.12327494076305032,-0.12327494076305032
-0.08962468009544299,-0.08962468009544299
-0.09457324784067936,-0.09457324784067936
-0.1628634827249413,-0.1628634827249413
-0.2361022853544396,-0.2361022853544396
-0.2677731189239524,-0.2677731189239524
-0.26480397827681057,-0.26480397827681057
-0.2786599679634724,-0.2786599679634724
-0.3212176505725052,-0.3212176505725052
-0.3716930415739162,-0.3716930415739162
-0.4063330157905708,-0.4063330157905708
-0.4290964274186581,-0.4290964274186581
-0.4340449951638945,-0.4340449951638945
-0.40831244288866536,-0.40831244288866536
-0.34991934349487613,-0.34991934349487613
-0.31527936927822153,-0.31527936927822153
-0.34991934349487613,-0.34991934349487613
-0.4221684325753272,-0.4221684325753272
-0.4340449951638945,-0.4340449951638945
-0.36575476027963255,-0.36575476027963255
-0.2925159576501342,-0.2925159576501342
-0.2984542389444179,-0.2984542389444179
-0.34991934349487613,-0.34991934349487613
-0.38060046351534166,-0.38060046351534166
-0.37763132286819984,-0.37763132286819984
-0.3796107499662944,-0.3796107499662944
-0.37763132286819984,-0.37763132286819984
-0.3469502028477343,-0.3469502028477343
-0.2925159576501342,-0.2925159576501342
-0.26183483762966875,-0.26183483762966875
-0.26480397827681057,-0.26480397827681057
-0.28459824925775606,-0.28459824925775606
-0.2925159576501342,-0.2925159576501342
-0.28459824925775606,-0.28459824925775606
-0.26480397827681057,-0.26480397827681057
-0.2598554105315742,-0.2598554105315742
-0.2925159576501342,-0.2925159576501342
-0.34101192155345067,-0.34101192155345067
-0.34991934349487613,-0.34991934349487613
-0.3073616608858434,-0.3073616608858434
-0.26480397827681057,-0.26480397827681057
-0.2509479885901487,-0.2509479885901487
-0.2361022853544396,-0.2361022853544396
-0.18760632145112316,-0.18760632145112316
-0.12327494076305032,-0.12327494076305032
-0.06389212782021385,-0.06389212782021385
0.018254096750709926,0.018254096750709926
0.14295800393066652,0.14295800393066652
0.24489849948253578,0.24489849948253578
0.21718652010921208,0.21718652010921208
0.018254096750709926,0.018254096750709926
-0.3073616608858434,-0.3073616608858434
-0.6893910908180912,-0.6893910908180912
-1.0793382291427174,-1.0793382291427174
-1.453449950682587,-1.453449950682587
-1.8117262554377005,-1.8117262554377005
-2.132393445329017,-2.132393445329017
-2.351120139668465,-2.351120139668465
-2.386749827434167,-2.386749827434167
-2.263035633803258,-2.263035633803258
-2.1036917524066463,-2.1036917524066463
-2.029463236228101,-2.029463236228101
-2.0472780801109516,-2.0472780801109516
-2.12051688274045,-2.12051688274045
-2.2165190969980357,-2.2165190969980357
-2.311531597706574,-2.311531597706574
-2.3303361551384723,-2.3303361551384723
-2.235323654429934,-2.235323654429934
-2.0472780801109516,-2.0472780801109516
-1.8216233909281732,-1.8216233909281732
-1.5662772952739765,-1.5662772952739765
-1.298064923482165,-1.298064923482165
-1.0565748175146301,-1.0565748175146301
-0.8764469515880261,-0.8764469515880261
-0.717103070191415,-0.717103070191415
-0.5498414804024256,-0.5498414804024256
-0.4063330157905708,-0.4063330157905708
-0.3439810622005925,-0.3439810622005925
-0.34991934349487613,-0.34991934349487613
-0.34991934349487613,-0.34991934349487613
-0.2925159576501342,-0.2925159576501342
-0.19651374339254862,-0.19651374339254862
-0.09457324784067936,-0.09457324784067936
-0.001540174230235562,-0.001540174230235562
0.10336946196877553,0.10336946196877553
0.22213508785444847,0.22213508785444847
0.33001386470060134,0.33001386470060134
0.38543782344724875,0.38543782344724875
0.386427536996296,0.386427536996296
0.3587155576229723,0.3587155576229723
0.35772584407392505,0.35772584407392505
0.4210675112129506,0.4210675112129506
0.55566855388338,0.55566855388338
0.6912593101028566,0.6912593101028566
0.7546009772418821,0.7546009772418821
0.7348067062609366,0.7348067062609366
0.7258992843195111,0.7258992843195111
0.7763746753209222,0.7763746753209222
0.8674283218332713,0.8674283218332713
0.9396774109137224,0.9396774109137224
1.0089573593470316,1.0089573593470316
1.0911035839179555,1.0911035839179555
1.1781983762341155,1.1781983762341155
1.2435194704712356,1.2435194704712356
1.3197274137478758,1.3197274137478758
1.435523898986407,1.435523898986407
1.5750735094020727,1.5750735094020727
1.6710757236596583,1.6710757236596583
1.7166025469158328,1.7166025469158328
1.7453042398382037,1.7453042398382037
1.8007281985848511,1.8007281985848511
1.8571418708805458,1.8571418708805458
1.8858435638029167,1.8858435638029167
1.8947509857443423,1.8947509857443423
1.9422572360986115,1.9422572360986115
2.034300596160008,2.034300596160008
2.1124879665347427,2.1124879665347427
2.088734841357608,2.088734841357608
1.9709589290209824,1.9709589290209824
1.8234916102129384,1.8234916102129384
1.7166025469158328,1.7166025469158328
1.6334666087958618,1.6334666087958618
1.5463718164797016,1.5463718164797016
1.4454210344768796,1.4454210344768796
1.3771307995926176,1.3771307995926176
1.353377674415483,1.353377674415483
1.3484291066702467,1.3484291066702467
1.3009228563159776,1.3009228563159776
1.2069000691564866,1.2069000691564866
1.0950624381141445,1.0950624381141445
1.0089573593470316,1.0089573593470316
0.9386876973646752,0.9386876973646752
0.8674283218332713,0.8674283218332713
0.7714261075756857,0.7714261075756857
0.6694856120238165,0.6694856120238165
0.5705142571190891,0.5705142571190891
0.4992548815876853,0.4992548815876853
0.4685737615672198,0.4685737615672198
0.4992548815876853,0.4992548815876853
0.5477508454910017,0.5477508454910017
0.55566855388338,0.55566855388338
0.47946061060673983,0.47946061060673983
0.35772584407392505,0.35772584407392505
0.22609394205063757,0.22609394205063757
0.10336946196877553,0.10336946196877553
-0.00549902842642466,-0.00549902842642466
-0.06686126846735567,-0.06686126846735567
-0.09061439364449025,-0.09061439364449025
-0.12327494076305032,-0.12327494076305032
-0.19948288403969044,-0.19948288403969044
-0.26480397827681057,-0.26480397827681057
-0.28063939506156693,-0.28063939506156693
-0.26480397827681057,-0.26480397827681057
-0.27371140021823603,-0.27371140021823603
-0.2925159576501342,-0.2925159576501342
-0.28459824925775606,-0.28459824925775606
-0.2361022853544396,-0.2361022853544396
-0.19453431629445408,-0.19453431629445408
-0.17968861305874495,-0.17968861305874495
-0.18364746725493405,-0.18364746725493405
-0.17968861305874495,-0.17968861305874495
-0.17671947241160313,-0.17671947241160313
-0.17968861305874495,-0.17968861305874495
-0.1895857485492177,-0.1895857485492177
-0.17968861305874495,-0.17968861305874495
-0.16187376917589402,-0.16187376917589402
-0.150986920136374,-0.150986920136374
-0.150986920136374,-0.150986920136374
-0.12327494076305032,-0.12327494076305032
-0.07082012266354477,-0.07082012266354477
-0.03815957554498472,-0.03815957554498472
-0.05300527878069383,-0.05300527878069383
-0.06686126846735567,-0.06686126846735567
-0.029252153603559247,-0.029252153603559247
0.04695578967308089,0.04695578967308089
0.11128717036115372,0.11128717036115372
0.15978313426447016,0.15978313426447016
0.21223795236397572,0.21223795236397572
0.27261047885585943,0.27261047885585943
0.3211064427591759,0.3211064427591759
0.35772584407392505,0.35772584407392505
0.38246868280010693,0.38246868280010693
0.386427536996296,0.386427536996296
0.35376698987773597,0.35376698987773597
0.3013121717782304,0.3013121717782304
0.23698079109015757,0.23698079109015757
0.15978313426447016,0.15978313426447016
0.06773977420307364,0.06773977420307364
-0.009457882622613758,-0.009457882622613758
-0.05894356007497748,-0.05894356007497748
-0.09457324784067936,-0.09457324784067936
-0.1391103575478067,-0.1391103575478067
-0.17968861305874495,-0.17968861305874495
-0.2083903059811159,-0.2083903059811159
-0.2361022853544396,-0.2361022853544396
-0.28162910861061424,-0.28162910861061424
-0.3212176505725052,-0.3212176505725052
-0.33408392671011977,-0.33408392671011977
-0.3212176505725052,-0.3212176505725052
-0.3142896557291743,-0.3142896557291743
-0.3212176505725052,-0.3212176505725052
-0.3449707757496398,-0.3449707757496398
-0.37763132286819984,-0.37763132286819984
-0.41524043773199626,-0.41524043773199626
-0.4340449951638945,-0.4340449951638945
-0.4370141358110363,-0.4370141358110363
-0.4340449951638945,-0.4340449951638945
-0.4488906983996036,-0.4488906983996036
-0.46274668808626546,-0.46274668808626546
-0.4518598390467454,-0.4518598390467454
-0.4063330157905708,-0.4063330157905708
-0.36080619253439616,-0.36080619253439616
-0.34991934349487613,-0.34991934349487613
-0.3835696041624835,-0.3835696041624835
-0.4340449951638945,-0.4340449951638945
-0.4835306726162582,-0.4835306726162582
-0.5191603603819601,-0.5191603603819601
-0.5379649178138582,-0.5379649178138582
-0.5191603603819601,-0.5191603603819601
-0.46670554228245453,-0.46670554228245453
-0.4063330157905708,-0.4063330157905708
-0.3677341873777271,-0.3677341873777271
-0.34991934349487613,-0.34991934349487613
-0.35090905704392344,-0.35090905704392344
-0.37763132286819984,-0.37763132286819984
-0.4182095783791381,-0.4182095783791381
-0.4340449951638945,-0.4340449951638945
-0.4172198648300908,-0.4172198648300908
-0.4063330157905708,-0.4063330157905708
-0.4221684325753272,-0.4221684325753272
-0.4340449951638945,-0.4340449951638945
-0.4112815835358072,-0.4112815835358072
-0.37763132286819984,-0.37763132286819984
-0.363775333181538,-0.363775333181538
-0.34991934349487613,-0.34991934349487613
-0.30439252023870156,-0.30439252023870156
-0.2361022853544396,-0.2361022853544396
-0.1589046285287522,-0.1589046285287522
-0.06686126846735567,-0.06686126846735567
0.013305529005473554,0.013305529005473554
-0.009457882622613758,-0.009457882622613758
-0.20047259758873773,-0.20047259758873773
-0.5191603603819601,-0.5191603603819601
-0.8932720819218298,-0.8932720819218298
-1.2832192202464558,-1.2832192202464558
-1.6652486501787038,-1.6652486501787038
-1.990864407815257,-1.990864407815257
-2.2442310763713595,-2.2442310763713595
-2.4431634997298617,-2.4431634997298617
-2.5579702714193453,-2.5579702714193453
-2.4995771720255564,-2.4995771720255564
-2.289757899627534,-2.289757899627534
-2.1036917524066463,-2.1036917524066463
-2.1036917524066463,-2.1036917524066463
-2.2452207899204066,-2.2452207899204066
-2.3827909732379777,-2.3827909732379777
-2.4431634997298617,-2.4431634997298617
-2.4679063384560433,-2.4679063384560433
-2.4718651926522326,-2.4718651926522326
-2.4134720932584433,-2.4134720932584433
-2.2452207899204066,-2.2452207899204066
-1.993833548462399,-1.993833548462399
-1.7078063327877366,-1.7078063327877366
-1.4376145338978308,-1.4376145338978308
-1.1981038550283905,-1.1981038550283905
-1.006099426513219,-1.006099426513219
-0.8586321077051752,-0.8586321077051752
-0.7349179140742659,-0.7349179140742659
-0.6042757256000257,-0.6042757256000257
-0.47957181842006913,-0.47957181842006913
-0.4063330157905708,-0.4063330157905708
-0.3835696041624835,-0.3835696041624835
-0.34991934349487613,-0.34991934349487613
-0.26975254602204696,-0.26975254602204696
-0.17968861305874495,-0.17968861305874495
-0.11535723237067212,-0.11535723237067212
-0.03815957554498472,-0.03815957554498472
0.06872948775212093,0.06872948775212093
0.15978313426447016,0.15978313426447016
0.19442310848112476,0.19442310848112476
0.21619680656016482,0.21619680656016482
0.26172362981633945,0.26172362981633945
0.3013121717782304,0.3013121717782304
0.31120930726870316,0.31120930726870316
0.35772584407392505,0.35772584407392505
0.4784708970576925,0.4784708970576925
0.6130719397281219,0.6130719397281219
0.6684958984747692,0.6684958984747692
0.6694856120238165,0.6694856120238165
0.6873004559066674,0.6873004559066674
0.7546009772418821,0.7546009772418821
0.8258603527732858,0.8258603527732858
0.895140301206595,0.895140301206595
0.9733276715813297,0.9733276715813297
1.0653710316427263,1.0653710316427263
1.1425686884684136,1.1425686884684136
1.2069000691564866,1.2069000691564866
1.277169731138843,1.277169731138843
1.3771307995926176,1.3771307995926176
1.4840198628897234,1.4840198628897234
1.5750735094020727,1.5750735094020727
1.6265386139525309,1.6265386139525309
1.659199161071091,1.659199161071091
1.6948288488367929,1.6948288488367929
1.7443145262891566,1.7443145262891566
1.7769750734077165,1.7769750734077165
1.7730162192115275,1.7730162192115275
1.731448250151542,1.731448250151542
1.687900853993462,1.687900853993462
1.6394048900901455,1.6394048900901455
1.5750735094020727,1.5750735094020727
1.4919375712821015,1.4919375712821015
1.4335444718883124,1.4335444718883124
1.4038530654168941,1.4038530654168941
1.3771307995926176,1.3771307995926176
1.3207171272969231,1.3207171272969231
1.2633137414521811,1.2633137414521811
1.2217457723921956,1.2217457723921956
1.1781983762341155,1.1781983762341155
1.0841755890746245,1.0841755890746245
0.952543687051337,0.952543687051337
0.8278397798713804,0.8278397798713804
0.7546009772418821,0.7546009772418821
0.7080844404366602,0.7080844404366602
0.6694856120238165,0.6694856120238165
0.6239587887676419,0.6239587887676419
0.5843702468057509,0.5843702468057509
0.5220182932157726,0.5220182932157726
0.4141395163696197,0.4141395163696197
0.2716207653068122,0.2716207653068122
0.15978313426447016,0.15978313426447016
0.10237974841972826,0.10237974841972826
0.07466776904640457,0.07466776904640457
0.04002779482974996,0.04002779482974996
0.018254096750709926,0.018254096750709926
0.005387820613095359,0.005387820613095359
-0.03815957554498472,-0.03815957554498472
-0.14108978464590125,-0.14108978464590125
-0.2361022853544396,-0.2361022853544396
-0.25688626988443236,-0.25688626988443236
-0.2083903059811159,-0.2083903059811159
-0.1707811911173195,-0.1707811911173195
-0.17968861305874495,-0.17968861305874495
-0.23016400406015594,-0.23016400406015594
-0.2925159576501342,-0.2925159576501342
-0.36080619253439616,-0.36080619253439616
-0.4063330157905708,-0.4063330157905708
-0.41227129708485444,-0.41227129708485444
-0.37763132286819984,-0.37763132286819984
-0.3489296299458289,-0.3489296299458289
-0.34991934349487613,-0.34991934349487613
-0.3667444738286798,-0.3667444738286798
-0.34991934349487613,-0.34991934349487613
-0.3004336660425124,-0.3004336660425124
-0.26480397827681057,-0.26480397827681057
-0.2905365305520397,-0.2905365305520397
-0.34991934349487613,-0.34991934349487613
-0.38060046351534166,-0.38060046351534166
-0.34991934349487613,-0.34991934349487613
-0.2984542389444179,-0.2984542389444179
-0.26480397827681057,-0.26480397827681057
-0.23907142600158143,-0.23907142600158143
-0.17968861305874495,-0.17968861305874495
-0.10546009688019937,-0.10546009688019937
-0.06686126846735567,-0.06686126846735567
-0.08269668525211206,-0.08269668525211206
-0.09457324784067936,-0.09457324784067936
-0.0619127007221193,-0.0619127007221193
-0.009457882622613758,-0.009457882622613758
0.019243810299757202,0.019243810299757202
0.04695578967308089,0.04695578967308089
0.09941060777258642,0.09941060777258642
0.15978313426447016,0.15978313426447016
0.17858769169636837,0.17858769169636837
0.15978313426447016,0.15978313426447016
0.13800943618543013,0.13800943618543013
0.13207115489114649,0.13207115489114649
0.12118430585162647,0.12118430585162647
0.10336946196877553,0.10336946196877553
0.07763690969354639,0.07763690969354639
0.04695578967308089,0.04695578967308089
0.0034083935150008102,0.0034083935150008102
-0.03815957554498472,-0.03815957554498472
-0.06983040911449749,-0.06983040911449749
-0.09457324784067936,-0.09457324784067936
-0.13218236270447578,-0.13218236270447578
-0.17968861305874495,-0.17968861305874495
-0.23511257180539233,-0.23511257180539233
-0.2925159576501342,-0.2925159576501342
-0.35585762478915983,-0.35585762478915983
-0.4063330157905708,-0.4063330157905708
-0.4340449951638945,-0.4340449951638945
-0.4340449951638945,-0.4340449951638945
-0.4211787190262799,-0.4211787190262799
-0.4063330157905708,-0.4063330157905708
-0.41326101063390175,-0.41326101063390175
-0.4340449951638945,-0.4340449951638945
-0.43503470871294175,-0.43503470871294175
-0.37763132286819984,-0.37763132286819984
-0.3123102286310797,-0.3123102286310797
-0.3212176505725052,-0.3212176505725052
-0.40831244288866536,-0.40831244288866536
-0.46274668808626546,-0.46274668808626546
-0.4221684325753272,-0.4221684325753272
-0.34991934349487613,-0.34991934349487613
-0.3489296299458289,-0.3489296299458289
-0.4063330157905708,-0.4063330157905708
-0.44493184420341453,-0.44493184420341453
-0.4340449951638945,-0.4340449951638945
-0.42315814612437447,-0.42315814612437447
-0.4340449951638945,-0.4340449951638945
-0.4409729900072254,-0.4409729900072254
-0.4063330157905708,-0.4063330157905708
-0.3370530673572616,-0.3370530673572616
-0.26480397827681057,-0.26480397827681057
-0.22620514986396686,-0.22620514986396686
-0.2361022853544396,-0.2361022853544396
-0.2707422595710942,-0.2707422595710942
-0.2925159576501342,-0.2925159576501342
-0.28459824925775606,-0.28459824925775606
-0.26480397827681057,-0.26480397827681057
-0.24599942084491236,-0.24599942084491236
-0.2361022853544396,-0.2361022853544396
-0.2479788479430069,-0.2479788479430069
-0.2925159576501342,-0.2925159576501342
-0.3667444738286798,-0.3667444738286798
-0.4340449951638945,-0.4340449951638945
-0.47066439647864367,-0.47066439647864367
-0.4904586674595891,-0.4904586674595891
-0.5587489023438511,-0.5587489023438511
-0.6893910908180912,-0.6893910908180912
-0.8239921334885206,-0.8239921334885206
-0.9437474729232408,-0.9437474729232408
-1.2119598447150521,-1.2119598447150521
-1.7929216980058023,-1.7929216980058023
-2.5550011307722036,-2.5550011307722036
-3.094395015002968,-3.094395015002968
-3.2042532189472155,-3.2042532189472155
-3.094395015002968,-3.094395015002968
-3.0706418898258336,-3.0706418898258336
-3.094395015002968,-3.094395015002968
-2.906349440683986,-2.906349440683986
-2.415451520356538,-2.415451520356538
-1.8236028180262678,-1.8236028180262678
-1.3396328925421506,-1.3396328925421506
-0.9922434368265572,-0.9922434368265572
-0.6893910908180912,-0.6893910908180912
-0.403363875143429,-0.403363875143429
-0.17968861305874495,-0.17968861305874495
-0.06884069556545022,-0.06884069556545022
-0.03815957554498472,-0.03815957554498472
-0.015396163916897404,-0.015396163916897404
0.04695578967308089,0.04695578967308089
0.11821516520448465,0.11821516520448465
0.15978313426447016,0.15978313426447016
0.15681399361732834,0.15681399361732834
0.13207115489114649,0.13207115489114649
0.10237974841972826,0.10237974841972826
0.07466776904640457,0.07466776904640457
0.05289407096736453,0.05289407096736453
0.04695578967308089,0.04695578967308089
0.057842638712600904,0.057842638712600904
0.07466776904640457,0.07466776904640457
0.08951347228211369,0.08951347228211369
0.10336946196877553,0.10336946196877553
0.09941060777258642,0.09941060777258642
0.07466776904640457,0.07466776904640457
0.05883235226164818,0.05883235226164818
0.10336946196877553,0.10336946196877553
0.16275227491161198,0.16275227491161198
0.15978313426447016,0.15978313426447016
0.11029745681210645,0.11029745681210645
0.15978313426447016,0.15978313426447016
0.32803443760250683,0.32803443760250683
0.4715429022143616,0.4715429022143616
0.487378318999118,0.487378318999118
0.4992548815876853,0.4992548815876853
0.6120822261790746,0.6120822261790746
0.7546009772418821,0.7546009772418821
0.8149735037337659,0.8149735037337659
0.8674283218332713,0.8674283218332713
1.0069779322489372,1.0069779322489372
1.1781983762341155,1.1781983762341155
1.2563857466088502,1.2563857466088502
1.2633137414521811,1.2633137414521811
1.2870668666293157,1.2870668666293157
1.3484291066702467,1.3484291066702467
1.4157296280054614,1.4157296280054614
1.5176701235573307,1.5176701235573307
1.6463328849334764,1.6463328849334764
1.7166025469158328,1.7166025469158328
1.6641477288163273,1.6641477288163273
1.5750735094020727,1.5750735094020727
1.5344952538911343,1.5344952538911343
1.5176701235573307,1.5176701235573307
1.4563078835163996,1.4563078835163996
1.3771307995926176,1.3771307995926176
1.3187377001988285,1.3187377001988285
1.2633137414521811,1.2633137414521811
1.1663218136455482,1.1663218136455482
1.0653710316427263,1.0653710316427263
0.992132229013228,0.992132229013228
0.9238419941289661,0.9238419941289661
0.8288294934204277,0.8288294934204277
0.7546009772418821,0.7546009772418821
0.717981575927133,0.717981575927133
0.6694856120238165,0.6694856120238165
0.5586376945305218,0.5586376945305218
0.44284120929199067,0.44284120929199067
0.3666332660153505,0.3666332660153505
0.3013121717782304,0.3013121717782304
0.19541282203017205,0.19541282203017205
0.10336946196877553,0.10336946196877553
0.07169862839926275,0.07169862839926275
0.07466776904640457,0.07466776904640457
0.042007221927844514,0.042007221927844514
-0.009457882622613758,-0.009457882622613758
-0.03914928909403199,-0.03914928909403199
-0.03815957554498472,-0.03815957554498472
-0.04805671103545746,-0.04805671103545746
-0.06686126846735567,-0.06686126846735567
-0.09061439364449025,-0.09061439364449025
-0.12327494076305032,-0.12327494076305032
-0.1589046285287522,-0.1589046285287522
-0.150986920136374,-0.150986920136374
-0.11040866462543575,-0.11040866462543575
-0.09457324784067936,-0.09457324784067936
-0.13317207625352306,-0.13317207625352306
-0.150986920136374,-0.150986920136374
-0.10644981042924666,-0.10644981042924666
-0.03815957554498472,-0.03815957554498472
-0.00549902842642466,-0.00549902842642466
0.018254096750709926,0.018254096750709926
0.04992493032022271,0.04992493032022271
0.04695578967308089,0.04695578967308089
-0.04112871619212654,-0.04112871619212654
-0.150986920136374,-0.150986920136374
-0.19948288403969044,-0.19948288403969044
-0.17968861305874495,-0.17968861305874495
-0.16484290982303584,-0.16484290982303584
-0.17968861305874495,-0.17968861305874495
-0.18760632145112316,-0.18760632145112316
-0.150986920136374,-0.150986920136374
-0.1044703833311521,-0.1044703833311521
-0.09457324784067936,-0.09457324784067936
-0.1430692117439958,-0.1430692117439958
-0.2083903059811159,-0.2083903059811159
-0.24599942084491236,-0.24599942084491236
-0.2361022853544396,-0.2361022853544396
-0.20641087888302137,-0.20641087888302137
-0.17968861305874495,-0.17968861305874495
-0.16682233692113038,-0.16682233692113038
-0.150986920136374,-0.150986920136374
-0.13020293560638124,-0.13020293560638124
-0.09457324784067936,-0.09457324784067936
-0.04508757038831564,-0.04508757038831564
0.018254096750709926,0.018254096750709926
0.06675006065402637,0.06675006065402637
0.07466776904640457,0.07466776904640457
0.042007221927844514,0.042007221927844514
0.018254096750709926,0.018254096750709926
0.05586321161450635,0.05586321161450635
0.15978313426447016,0.15978313426447016
0.26865162465967035,0.26865162465967035
0.33001386470060134,0.33001386470060134
0.34980813568154684,0.34980813568154684
0.386427536996296,0.386427536996296
0.4438309228410379,0.4438309228410379
0.4715429022143616,0.4715429022143616
0.4131498028205724,0.4131498028205724
0.3013121717782304,0.3013121717782304
0.20333053042255025,0.20333053042255025
0.15978313426447016,0.15978313426447016
0.1389991497344774,0.1389991497344774
0.10336946196877553,0.10336946196877553
0.038048367731655416,0.038048367731655416
-0.03815957554498472,-0.03815957554498472
-0.11535723237067212,-0.11535723237067212
-0.17968861305874495,-0.17968861305874495
-0.21630801437349412,-0.21630801437349412
-0.2083903059811159,-0.2083903059811159
-0.17276061821541402,-0.17276061821541402
-0.150986920136374,-0.150986920136374
-0.18760632145112316,-0.18760632145112316
-0.26480397827681057,-0.26480397827681057
-0.31923822347441067,-0.31923822347441067
-0.2925159576501342,-0.2925159576501342
-0.2172977279225414,-0.2172977279225414
-0.150986920136374,-0.150986920136374
-0.09952181558591573,-0.09952181558591573
-0.009457882622613758,-0.009457882622613758
0.06872948775212093,0.06872948775212093
0.018254096750709926,0.018254096750709926
-0.19057546209826498,-0.19057546209826498
-0.4063330157905708,-0.4063330157905708
-0.4954072352048255,-0.4954072352048255
-0.4904586674595891,-0.4904586674595891
-0.5033249435972037,-0.5033249435972037
-0.5191603603819601,-0.5191603603819601
-0.46670554228245453,-0.46670554228245453
-0.34991934349487613,-0.34991934349487613
-0.2747011137672833,-0.2747011137672833
-0.2925159576501342,-0.2925159576501342
-0.352888484142018,-0.352888484142018
-0.37763132286819984,-0.37763132286819984
-0.36575476027963255,-0.36575476027963255
-0.34991934349487613,-0.34991934349487613
-0.3449707757496398,-0.3449707757496398
-0.3212176505725052,-0.3212176505725052
-0.27371140021823603,-0.27371140021823603
-0.2361022853544396,-0.2361022853544396
-0.2509479885901487,-0.2509479885901487
-0.2925159576501342,-0.2925159576501342
-0.2974645253953706,-0.2974645253953706
-0.2361022853544396,-0.2361022853544396
-0.14900749303827945,-0.14900749303827945
-0.09457324784067936,-0.09457324784067936
-0.0925938207425848,-0.0925938207425848
-0.12327494076305032,-0.12327494076305032
-0.15791491497970492,-0.15791491497970492
-0.17968861305874495,-0.17968861305874495
-0.16682233692113038,-0.16682233692113038
-0.09457324784067936,-0.09457324784067936
0.038048367731655416,0.038048367731655416
0.18848482718684112,0.18848482718684112
0.285476754993474,0.285476754993474
0.27261047885585943,0.27261047885585943
0.14097857683257195,0.14097857683257195
-0.09457324784067936,-0.09457324784067936
-0.4241478596734217,-0.4241478596734217
-0.8309201283318516,-0.8309201283318516
-1.2713426576578886,-1.2713426576578886
-1.6791046398653657,-1.6791046398653657
-2.026494095580959,-2.026494095580959
-2.3016344622161014,-2.3016344622161014
-2.4659269113579487,-2.4659269113579487
-2.4431634997298617,-2.4431634997298617
-2.2551179254108793,-2.2551179254108793
-2.0472780801109516,-2.0472780801109516
-1.9730495639324062,-1.9730495639324062
-2.0472780801109516,-2.0472780801109516
-2.2016733937623267,-2.2016733937623267
-2.358048134511796,-2.358048134511796
-2.448112067475098,-2.448112067475098
-2.386749827434167,-2.386749827434167
-2.172971700839956,-2.172971700839956
-1.9057490425971915,-1.9057490425971915
-1.690981202453933,-1.690981202453933
-1.5098636229782818,-1.5098636229782818
-1.3030134912274014,-1.3030134912274014
-1.0565748175146301,-1.0565748175146301
-0.8190435657432842,-0.8190435657432842
-0.6042757256000257,-0.6042757256000257
-0.4221684325753272,-0.4221684325753272
-0.2925159576501342,-0.2925159576501342
-0.2400611395506287,-0.2400611395506287
-0.2361022853544396,-0.2361022853544396
-0.2430302801977705,-0.2430302801977705
-0.2361022853544396,-0.2361022853544396
-0.2054211653339741,-0.2054211653339741
-0.12327494076305032,-0.12327494076305032
0.002418679965953536,0.002418679965953536
0.13207115489114649,0.13207115489114649
0.2251042285015903,0.2251042285015903
0.3013121717782304,0.3013121717782304
0.3785098286039178,0.3785098286039178
0.44284120929199067,0.44284120929199067
0.4725326157634089,0.4725326157634089
0.4992548815876853,0.4992548815876853
0.5546788403343327,0.5546788403343327
0.6407839191014455,0.6407839191014455
0.7278787114176057,0.7278787114176057
0.8110146495375767,0.8110146495375767
0.8763357437746968,0.8763357437746968
0.9238419941289661,0.9238419941289661
0.963430536090857,0.963430536090857
1.0366693387203554,1.0366693387203554
1.1108978548989008,1.1108978548989008
1.121784703938421,1.121784703938421
1.0742784535841516,1.0742784535841516
1.0940727245650972,1.0940727245650972
1.2464886111183775,1.2464886111183775
1.461256451261636,1.461256451261636
1.612682624265869,1.612682624265869
1.687900853993462,1.687900853993462
1.7185819740139274,1.7185819740139274
1.7166025469158328,1.7166025469158328
1.6681065830125164,1.6681065830125164
1.6314871816977672,1.6314871816977672
1.65227116622776,1.65227116622776
1.7166025469158328,1.7166025469158328
1.7552013753286766,1.7552013753286766
1.7730162192115275,1.7730162192115275
1.8096356205262767,1.8096356205262767
1.8858435638029167,1.8858435638029167
1.9373086683533751,1.9373086683533751
1.9145452567252876,1.9145452567252876
1.818543042467702,1.818543042467702
1.7166025469158328,1.7166025469158328
1.6364357494430035,1.6364357494430035
1.5750735094020727,1.5750735094020727
1.500844993223527,1.500844993223527
1.4335444718883124,1.4335444718883124
1.3771307995926176,1.3771307995926176
1.3197274137478758,1.3197274137478758
1.2128383504507703,1.2128383504507703
1.0653710316427263,1.0653710316427263
0.9218625670308714,0.9218625670308714
0.8387266289109004,0.8387266289109004
0.8030969411451986,0.8030969411451986
0.7823129566152058,0.7823129566152058
0.7357964198099839,0.7357964198099839
0.6694856120238165,0.6694856120238165
0.5843702468057509,0.5843702468057509
0.4992548815876853,0.4992548815876853
0.4161189434677142,0.4161189434677142
0.35772584407392505,0.35772584407392505
0.31615787501393955,0.31615787501393955
0.27261047885585943,0.27261047885585943
0.17858769169636837,0.17858769169636837
0.04695578967308089,0.04695578967308089
-0.05993327362402475,-0.05993327362402475
-0.06686126846735567,-0.06686126846735567
-0.018365304564039227,-0.018365304564039227
-0.009457882622613758,-0.009457882622613758
-0.07477897685973386,-0.07477897685973386
-0.12327494076305032,-0.12327494076305032
-0.1123880917235303,-0.1123880917235303
-0.09457324784067936,-0.09457324784067936
-0.13416178980257035,-0.13416178980257035
-0.17968861305874495,-0.17968861305874495
-0.18463718080398134,-0.18463718080398134
-0.17968861305874495,-0.17968861305874495
-0.23016400406015594,-0.23016400406015594
-0.2925159576501342,-0.2925159576501342
-0.29647481184632335,-0.29647481184632335
-0.2361022853544396,-0.2361022853544396
-0.19651374339254862,-0.19651374339254862
-0.2083903059811159,-0.2083903059811159
-0.24698913439395961,-0.24698913439395961
-0.26480397827681057,-0.26480397827681057
-0.2598554105315742,-0.2598554105315742
-0.2361022853544396,-0.2361022853544396
-0.21036973307921047,-0.21036973307921047
-0.17968861305874495,-0.17968861305874495
-0.14405892529304307,-0.14405892529304307
-0.09457324784067936,-0.09457324784067936
-0.05300527878069383,-0.05300527878069383
-0.03815957554498472,-0.03815957554498472
-0.04805671103545746,-0.04805671103545746
-0.03815957554498472,-0.03815957554498472
0.008356961260237182,0.008356961260237182
0.07466776904640457,0.07466776904640457
0.12514316004781556,0.12514316004781556
0.15978313426447016,0.15978313426447016
0.18056711879446294,0.18056711879446294
0.18848482718684112,0.18848482718684112
0.1894745407358884,0.1894745407358884
0.21619680656016482,0.21619680656016482
0.2666721975615758,0.2666721975615758
0.3013121717782304,0.3013121717782304
0.28448704144442677,0.28448704144442677
0.24489849948253578,0.24489849948253578
0.213227665913023,0.213227665913023
0.18848482718684112,0.18848482718684112
0.1469168581268556,0.1469168581268556
0.10336946196877553,0.10336946196877553
0.07169862839926275,0.07169862839926275
0.04695578967308089,0.04695578967308089
0.005387820613095359,0.005387820613095359
-0.03815957554498472,-0.03815957554498472
-0.07180983621259204,-0.07180983621259204
-0.09457324784067936,-0.09457324784067936
-0.1311926491554285,-0.1311926491554285
-0.17968861305874495,-0.17968861305874495
-0.2361022853544396,-0.2361022853544396
-0.2925159576501342,-0.2925159576501342
-0.3548679112401125,-0.3548679112401125
-0.4063330157905708,-0.4063330157905708
-0.43503470871294175,-0.43503470871294175
-0.4340449951638945,-0.4340449951638945
-0.4290964274186581,-0.4290964274186581
-0.4340449951638945,-0.4340449951638945
-0.44493184420341453,-0.44493184420341453
-0.4340449951638945,-0.4340449951638945
-0.4211787190262799,-0.4211787190262799
-0.4340449951638945,-0.4340449951638945
-0.46670554228245453,-0.46670554228245453
-0.46274668808626546,-0.46274668808626546
-0.4310758545167527,-0.4310758545167527
-0.4340449951638945,-0.4340449951638945
-0.4904586674595891,-0.4904586674595891
-0.5191603603819601,-0.5191603603819601
-0.4874895268124473,-0.4874895268124473
-0.46274668808626546,-0.46274668808626546
-0.4904586674595891,-0.4904586674595891
-0.4904586674595891,-0.4904586674595891
-0.4093021564377126,-0.4093021564377126
-0.3212176505725052,-0.3212176505725052
-0.3330942131610725,-0.3330942131610725
-0.4063330157905708,-0.4063330157905708
-0.44493184420341453,-0.44493184420341453
-0.4340449951638945,-0.4340449951638945
-0.42810671386961086,-0.42810671386961086
-0.4340449951638945,-0.4340449951638945
-0.4241478596734217,-0.4241478596734217
-0.4063330157905708,-0.4063330157905708
-0.4112815835358072,-0.4112815835358072
-0.4340449951638945,-0.4340449951638945
-0.44295241710531996,-0.44295241710531996
-0.4340449951638945,-0.4340449951638945
-0.43008614096770537,-0.43008614096770537
-0.4340449951638945,-0.4340449951638945
-0.41623015128104357,-0.41623015128104357
-0.34991934349487613,-0.34991934349487613
-0.24204056664872325,-0.24204056664872325
-0.12327494076305032,-0.12327494076305032
-0.009457882622613758,-0.009457882622613758
0.07466776904640457,0.07466776904640457
0.05685292516355363,0.05685292516355363
-0.150986920136374,-0.150986920136374
-0.543903199108142,-0.543903199108142
-1.0001611452189354,-1.0001611452189354
-1.4178202629168852,-1.4178202629168852
-1.7929216980058023,-1.7929216980058023
-2.1511980027609154,-2.1511980027609154
-2.4431634997298617,-2.4431634997298617
-2.584692537243622,-2.584692537243622
-2.556980557870298,-2.556980557870298
-2.434256077788436,-2.434256077788436
-2.3016344622161014,-2.3016344622161014
-2.221467664743272,-2.221467664743272
-2.2165190969980357,-2.2165190969980357
-2.2808504776861085,-2.2808504776861085
-2.358048134511796,-2.358048134511796
-2.400605817120829,-2.400605817120829
-2.386749827434167,-2.386749827434167
-2.336274436432756,-2.336274436432756
-2.2452207899204066,-2.2452207899204066
-2.0898357627199844,-2.0898357627199844
-1.849335370301497,-1.849335370301497
-1.5672670088230236,-1.5672670088230236
-1.311920913168827,-1.311920913168827
-1.1169473440065139,-1.1169473440065139
-0.9437474729232408,-0.9437474729232408
-0.7566916121533059,-0.7566916121533059
-0.5755740326776547,-0.5755740326776547
-0.46274668808626546,-0.46274668808626546
-0.4340449951638945,-0.4340449951638945
-0.44493184420341453,-0.44493184420341453
-0.4340449951638945,-0.4340449951638945
-0.39544616675105076,-0.39544616675105076
-0.34991934349487613,-0.34991934349487613
-0.2974645253953706,-0.2974645253953706
-0.2083903059811159,-0.2083903059811159
-0.0856658258992539,-0.0856658258992539
0.018254096750709926,0.018254096750709926
0.06180149290879,0.06180149290879
0.07466776904640457,0.07466776904640457
0.10237974841972826,0.10237974841972826
0.15978313426447016,0.15978313426447016
0.2320322233449212,0.2320322233449212
0.33001386470060134,0.33001386470060134
0.44680006348817974,0.44680006348817974
0.55566855388338,0.55566855388338
0.6150513668262164,0.6150513668262164
0.6407839191014455,0.6407839191014455
0.6694856120238165,0.6694856120238165
0.7258992843195111,0.7258992843195111
0.7941895192037731,0.7941895192037731
0.8674283218332713,0.8674283218332713
0.9287905618742024,0.9287905618742024
0.9802556664246607,0.9802556664246607
1.024792776131788,1.024792776131788
1.0940727245650972,1.0940727245650972
1.1801778033322101,1.1801778033322101
1.2633137414521811,1.2633137414521811
1.3197274137478758,1.3197274137478758
1.3771307995926176,1.3771307995926176
1.4454210344768796,1.4454210344768796
1.5176701235573307,1.5176701235573307
1.5661660874606471,1.5661660874606471
1.6027854887753963,1.6027854887753963
1.6334666087958618,1.6334666087958618
1.659199161071091,1.659199161071091
1.6780037185029892,1.6780037185029892
1.7166025469158328,1.7166025469158328
1.7621293701720075,1.7621293701720075
1.7730162192115275,1.7730162192115275
1.6987877030329819,1.6987877030329819
1.5750735094020727,1.5750735094020727
1.4642255919087779,1.4642255919087779
1.4048427789659415,1.4048427789659415
1.3513982473173887,1.3513982473173887
1.2633137414521811,1.2633137414521811
1.1485069697626973,1.1485069697626973
1.0653710316427263,1.0653710316427263
1.013905927092268,1.013905927092268
0.952543687051337,0.952543687051337
0.8506031914994677,0.8506031914994677
0.7546009772418821,0.7546009772418821
0.6902695965538093,0.6902695965538093
0.6407839191014455,0.6407839191014455
0.5586376945305218,0.5586376945305218
0.4715429022143616,0.4715429022143616
0.4131498028205724,0.4131498028205724
0.386427536996296,0.386427536996296
0.3339727188967905,0.3339727188967905
0.24489849948253578,0.24489849948253578
0.14295800393066652,0.14295800393066652
0.07466776904640457,0.07466776904640457
0.031120372888324494,0.031120372888324494
-0.009457882622613758,-0.009457882622613758
-0.05993327362402475,-0.05993327362402475
-0.09457324784067936,-0.09457324784067936
-0.11931608656686121,-0.11931608656686121
-0.150986920136374,-0.150986920136374
-0.20146231113778498,-0.20146231113778498
-0.2361022853544396,-0.2361022853544396
-0.25688626988443236,-0.25688626988443236
-0.2925159576501342,-0.2925159576501342
-0.3617959060834435,-0.3617959060834435
-0.4063330157905708,-0.4063330157905708
-0.4013844480453344,-0.4013844480453344
-0.37763132286819984,-0.37763132286819984
-0.37268275512296345,-0.37268275512296345
-0.34991934349487613,-0.34991934349487613
-0.29647481184632335,-0.29647481184632335
-0.26480397827681057,-0.26480397827681057
-0.30835137443489063,-0.30835137443489063
-0.37763132286819984,-0.37763132286819984
-0.4112815835358072,-0.4112815835358072
-0.4063330157905708,-0.4063330157905708
-0.40732272933961805,-0.40732272933961805
-0.4063330157905708,-0.4063330157905708
-0.3845593177115308,-0.3845593177115308
-0.34991934349487613,-0.34991934349487613
-0.3251765047686943,-0.3251765047686943
-0.2925159576501342,-0.2925159576501342
-0.24698913439395961,-0.24698913439395961
-0.2083903059811159,-0.2083903059811159
-0.19453431629445408,-0.19453431629445408
-0.17968861305874495,-0.17968861305874495
-0.15593548788161038,-0.15593548788161038
-0.150986920136374,-0.150986920136374
-0.1786988995096977,-0.1786988995096977
-0.17968861305874495,-0.17968861305874495
-0.1123880917235303,-0.1123880917235303
-0.009457882622613758,-0.009457882622613758
0.05487349806545908,0.05487349806545908
0.07466776904640457,0.07466776904640457
0.08357519098783003,0.08357519098783003
0.10336946196877553,0.10336946196877553
0.11227688391020099,0.11227688391020099
0.10336946196877553,0.10336946196877553
0.08555461808592459,0.08555461808592459
0.07466776904640457,0.07466776904640457
0.0657603471049791,0.0657603471049791
0.04695578967308089,0.04695578967308089
0.0004392528678589868,0.0004392528678589868
-0.06686126846735567,-0.06686126846735567
-0.13614121690066489,-0.13614121690066489
-0.17968861305874495,-0.17968861305874495
-0.2054211653339741,-0.2054211653339741
-0.2361022853544396,-0.2361022853544396
-0.29152624410108696,-0.29152624410108696
-0.34991934349487613,-0.34991934349487613
-0.3875284583586726,-0.3875284583586726
-0.4063330157905708,-0.4063330157905708
-0.4380038493600836,-0.4380038493600836
-0.4904586674595891,-0.4904586674595891
-0.5409340584610002,-0.5409340584610002
-0.547862053304331,-0.547862053304331
-0.5270780687743383,-0.5270780687743383
-0.5191603603819601,-0.5191603603819601
-0.5409340584610002,-0.5409340584610002
-0.547862053304331,-0.547862053304331
-0.5221295010291019,-0.5221295010291019
-0.4904586674595891,-0.4904586674595891
-0.4864998132634,-0.4864998132634
-0.4904586674595891,-0.4904586674595891
-0.4954072352048255,-0.4954072352048255
-0.5191603603819601,-0.5191603603819601
-0.5745843191286074,-0.5745843191286074
-0.6042757256000257,-0.6042757256000257
-0.5577591887948038,-0.5577591887948038
-0.46274668808626546,-0.46274668808626546
-0.4112815835358072,-0.4112815835358072
-0.4340449951638945,-0.4340449951638945
-0.4864998132634,-0.4864998132634
-0.4904586674595891,-0.4904586674595891
-0.4389935629091309,-0.4389935629091309
-0.37763132286819984,-0.37763132286819984
-0.37367246867201076,-0.37367246867201076
-0.4340449951638945,-0.4340449951638945
-0.504314657146251,-0.504314657146251
-0.5191603603819601,-0.5191603603819601
-0.4864998132634,-0.4864998132634
-0.46274668808626546,-0.46274668808626546
-0.47759239132197456,-0.47759239132197456
-0.4904586674595891,-0.4904586674595891
-0.4439421306543672,-0.4439421306543672
-0.34991934349487613,-0.34991934349487613
-0.28162910861061424,-0.28162910861061424
-0.2925159576501342,-0.2925159576501342
-0.34596048929868706,-0.34596048929868706
-0.34991934349487613,-0.34991934349487613
-0.25391712923729054,-0.25391712923729054
-0.09457324784067936,-0.09457324784067936
0.05982206581069545,0.05982206581069545
