ECG,PPG
-1.3346293330059127,-1.3346293330059127
-1.2890337290741254,-1.2890337290741254
-0.9525934394562401,-0.9525934394562401
-0.954665966907685,-0.954665966907685
-0.919433000233122,-0.919433000233122
-0.8842000335585591,-0.8842000335585591
-0.8620930740764804,-0.8620930740764804
-0.8731465538175198,-0.8731465538175198
-0.8759099237527797,-0.8759099237527797
-0.8475853819163662,-0.8475853819163662
-0.8130432577256184,-0.8130432577256184
-0.7950813531464294,-0.7950813531464294
-0.7791919760186853,-0.7791919760186853
-0.7536308041175318,-0.7536308041175318
-0.7266879472487484,-0.7266879472487484
-0.7052718302504848,-0.7052718302504848
-0.6817831858007761,-0.6817831858007761
-0.6569128563834375,-0.6569128563834375
-0.6361875818689888,-0.6361875818689888
-0.6272066295793943,-0.6272066295793943
-0.6237524171603195,-0.6237524171603195
-0.6278974720632093,-0.6278974720632093
-0.6361875818689888,-0.6361875818689888
-0.6403326367718786,-0.6403326367718786
-0.6361875818689888,-0.6361875818689888
-0.6202982047412448,-0.6202982047412448
-0.5926645053886463,-0.5926645053886463
-0.5574315387140835,-0.5574315387140835
-0.5159809896851859,-0.5159809896851859
-0.4731487556886584,-0.4731487556886584
-0.4275531517568711,-0.4275531517568711
-0.37850333540600894,-0.37850333540600894
-0.32323593670081224,-0.32323593670081224
-0.2603692706736509,-0.2603692706736509
-0.18713996738926522,-0.18713996738926522
-0.10562055429910003,-0.10562055429910003
-0.017192716370785222,-0.017192716370785222
0.07054427907371462,0.07054427907371462
0.15344537713150974,0.15344537713150974
0.22252962551300567,0.22252962551300567
0.27710618173438745,0.27710618173438745
0.31786588827947004,0.31786588827947004
0.35033548501877315,0.35033548501877315
0.3828050817580762,0.3828050817580762
0.41803804843263914,0.41803804843263914
0.45879775497772174,0.45879775497772174
0.5009391464904343,0.5009391464904343
0.5430805380031468,0.5430805380031468
0.5817677170967845,0.5817677170967845
0.6170006837713474,0.6170006837713474
0.6473977530592057,0.6473977530592057
0.6771039798632489,0.6771039798632489
0.7033559942482174,0.7033559942482174
0.7296080086331859,0.7296080086331859
0.7544783380505244,0.7544783380505244
0.7807303524354929,0.7807303524354929
0.8035281544013866,0.8035281544013866
0.8180358465615007,0.8180358465615007
0.8194175315291307,0.8194175315291307
0.8049098393690165,0.8049098393690165
0.7738219275973433,0.7738219275973433
0.7302988511170009,0.7302988511170009
0.6819398772499536,0.6819398772499536
0.6335809033829065,0.6335809033829065
0.5859127719996743,0.5859127719996743
0.5361721131649972,0.5361721131649972
0.48297724191124536,0.48297724191124536
0.4242556307869738,0.4242556307869738
0.3627706497274424,0.3627706497274424
0.3026673536355409,0.3026673536355409
0.24809079741415915,0.24809079741415915
0.199731823547112,0.199731823547112
0.15828127451821444,0.15828127451821444
0.1216666228760216,0.1216666228760216
0.09126955358816338,0.09126955358816338
0.06501753920319495,0.06501753920319495
0.04636479214019104,0.04636479214019104
0.03185709998007689,0.03185709998007689
0.02218530520666746,0.02218530520666746
0.010440982981813151,0.010440982981813151
0.0014600306922186793,0.0014600306922186793
-0.006139236629745874,-0.006139236629745874
-0.003375866694486036,-0.003375866694486036
0.00975014049799819,0.00975014049799819
0.03876552481822648,0.03876552481822648
0.07399849149278942,0.07399849149278942
0.11268567058642713,0.11268567058642713
0.14446442484191527,0.14446442484191527
0.1707164392268837,0.1707164392268837
0.19006002877370257,0.19006002877370257
0.20871277583670647,0.20871277583670647
0.2239113104806356,0.2239113104806356
0.23496479022167494,0.23496479022167494
0.23634647518930485,0.23634647518930485
0.22805636538352533,0.22805636538352533
0.21078530328815134,0.21078530328815134
0.19075087125751752,0.19075087125751752
0.1727889666783286,0.1727889666783286
0.1589721170020294,0.1589721170020294
0.1472277947771751,0.1472277947771751
0.13410178758469088,0.13410178758469088
0.11752156797313185,0.11752156797313185
0.09541460849105314,0.09541460849105314
0.0657083816870099,0.0657083816870099
0.03116625749626193,0.03116625749626193
-0.00959344904882067,-0.00959344904882067
-0.043444730755753676,-0.043444730755753676
-0.07591432749505676,-0.07591432749505676
-0.08765864971991107,-0.08765864971991107
-0.09940297194476538,-0.09940297194476538
-0.10700223926672994,-0.10700223926672994
-0.13049088371643855,-0.13049088371643855
-0.17677733013204083,-0.17677733013204083
-0.2320447288372376,-0.2320447288372376
-0.30458318963780834,-0.30458318963780834
-0.3557055334401153,-0.3557055334401153
-0.40061029488808764,-0.40061029488808764
-0.4151179870482018,-0.4151179870482018
-0.4178813569834616,-0.4178813569834616
-0.39715608246901285,-0.39715608246901285
-0.35501469095630034,-0.35501469095630034
-0.26313264060891073,-0.26313264060891073
-0.09180370462280084,-0.09180370462280084
0.20871277583670647,0.20871277583670647
0.6722680824765442,0.6722680824765442
1.3106065375215668,1.3106065375215668
2.071914954685652,2.071914954685652
2.8435860091069616,2.8435860091069616
3.4425464425745314,3.4425464425745314
3.682959626942137,3.682959626942137
3.4232028530277123,3.4232028530277123
2.648077586187328,2.648077586187328
1.4764087336371567,1.4764087336371567
0.14446442484191527,0.14446442484191527
-1.0831626688972673,-1.0831626688972673
-1.991620535113939,-1.991620535113939
-2.4910996509121546,-2.4910996509121546
-2.6133787705474023,-2.6133787705474023
-2.4765919587520404,-2.4765919587520404
-2.211999287450911,-2.211999287450911
-1.925990499151518,-1.925990499151518
-1.6669245677209081,-1.6669245677209081
-1.450690870286826,-1.450690870286826
-1.2689992970434916,-1.2689992970434916
-1.124613217926165,-1.124613217926165
-1.0133875780319566,-1.0133875780319566
-0.9443033296504606,-0.9443033296504606
-0.902161938137748,-0.902161938137748
-0.8835091910747441,-0.8835091910747441
-0.8717648688498899,-0.8717648688498899
-0.8558754917221458,-0.8558754917221458
-0.8413677995620317,-0.8413677995620317
-0.8158066276608782,-0.8158066276608782
-0.7964630381140593,-0.7964630381140593
-0.7715927086967207,-0.7715927086967207
-0.7522491191499019,-0.7522491191499019
-0.7363597420221578,-0.7363597420221578
-0.7211612073782288,-0.7211612073782288
-0.7135619400562642,-0.7135619400562642
-0.7038901452828548,-0.7038901452828548
-0.6956000354770753,-0.6956000354770753
-0.6797106583493312,-0.6797106583493312
-0.6596762263186974,-0.6596762263186974
-0.632733369449914,-0.632733369449914
-0.6064813550649455,-0.6064813550649455
-0.5823018681314219,-0.5823018681314219
-0.5650308060360479,-0.5650308060360479
-0.5519047988435638,-0.5519047988435638
-0.5387787916510796,-0.5387787916510796
-0.5166718321690008,-0.5166718321690008
-0.48074802301062297,-0.48074802301062297
-0.42478978182161126,-0.42478978182161126
-0.3508696360534106,-0.3508696360534106
-0.25967842818983594,-0.25967842818983594
-0.1622696379719267,-0.1622696379719267
-0.06486084775401742,-0.06486084775401742
0.02425783265811234,0.02425783265811234
0.10439556078064761,0.10439556078064761
0.17417065164595852,0.17417065164595852
0.23910984512456468,0.23910984512456468
0.3033581961193559,0.3033581961193559
0.369679074565592,0.369679074565592
0.43530911052801313,0.43530911052801313
0.49748493407135946,0.49748493407135946
0.5499889628412964,0.5499889628412964
0.5928211968378239,0.5928211968378239
0.624599951093312,0.624599951093312
0.6501611229944655,0.6501611229944655
0.6729589249603591,0.6729589249603591
0.6964475694100678,0.6964475694100678
0.7185545288921465,0.7185545288921465
0.7392798034065954,0.7392798034065954
0.7579325504695993,0.7579325504695993
0.7765852975326031,0.7765852975326031
0.7980014145308669,0.7980014145308669
0.8249442713996503,0.8249442713996503
0.8560321831713235,0.8560321831713235
0.8864292524591817,0.8864292524591817
0.9106087393927053,0.9106087393927053
0.9230439041013745,0.9230439041013745
0.9202805341661147,0.9202805341661147
0.9009369446192959,0.9009369446192959
0.862940608009473,0.862940608009473
0.8069823668204613,0.8069823668204613
0.7399706458904103,0.7399706458904103
0.6681230275736545,0.6681230275736545
0.6038746765788632,0.6038746765788632
0.5499889628412964,0.5499889628412964
0.5133743111991036,0.5133743111991036
0.4843589268788753,0.4843589268788753
0.4594885974615367,0.4594885974615367
0.42563731575460373,0.42563731575460373
0.3828050817580762,0.3828050817580762
0.32684684056906455,0.32684684056906455
0.2653618595095331,0.2653618595095331
0.19765929609566713,0.19765929609566713
0.13410178758469088,0.13410178758469088
0.07538017646041933,0.07538017646041933
0.029784572528632012,0.029784572528632012
-0.0047575516621159546,-0.0047575516621159546
-0.023410298725119856,-0.023410298725119856
-0.02962788107945449,-0.02962788107945449
-0.019956086306045062,-0.019956086306045062
0.00076918820840372,0.00076918820840372
0.03392962743152177,0.03392962743152177
0.07123512155752958,0.07123512155752958
0.11061314313498224,0.11061314313498224
0.14446442484191527,0.14446442484191527
0.17140728171069866,0.17140728171069866
0.19420508367659234,0.19420508367659234
0.217002885642486,0.217002885642486
0.24118237257600958,0.24118237257600958
0.26881607192860796,0.26881607192860796
0.29575892879739135,0.29575892879739135
0.31786588827947004,0.31786588827947004
0.33168273795576925,0.33168273795576925
0.3337552654072141,0.3337552654072141
0.32408347063380466,0.32408347063380466
0.29921314121646614,0.29921314121646614
0.25983511963901346,0.25983511963901346
0.21078530328815134,0.21078530328815134
0.16518969935636404,0.16518969935636404
0.13410178758469088,0.13410178758469088
0.12788420523035623,0.12788420523035623
0.1437735823581003,0.1437735823581003
0.16726222680780892,0.16726222680780892
0.1810790764841081,0.1810790764841081
0.165880541840179,0.165880541840179
0.1354834725523208,0.1354834725523208
0.08643365620145868,0.08643365620145868
0.059490799332675266,0.059490799332675266
0.030475415012446973,0.030475415012446973
0.02218530520666746,0.02218530520666746
-0.013047661467895467,-0.013047661467895467
-0.06762421768927725,-0.06762421768927725
-0.15467037064996214,-0.15467037064996214
-0.2534608458355013,-0.2534608458355013
-0.33428941644185156,-0.33428941644185156
-0.3867934452117885,-0.3867934452117885
-0.39853776743664276,-0.39853776743664276
-0.3812667053412688,-0.3812667053412688
-0.3398161563123712,-0.3398161563123712
-0.27556780531758,-0.27556780531758
-0.17125059026152117,-0.17125059026152117
0.0035325581436635575,0.0035325581436635575
0.29092303141068665,0.29092303141068665
0.7226995837950363,0.7226995837950363
1.304388955167232,1.304388955167232
2.000067336368896,2.000067336368896
2.713016779665934,2.713016779665934
3.29470615103813,3.29470615103813
3.5751881994670036,3.5751881994670036
3.418366955641008,3.418366955641008
2.7834827130150597,2.7834827130150597
1.7499823572278808,1.7499823572278808
0.5126834687152886,0.5126834687152886
-0.6838557132522209,-0.6838557132522209
-1.6240923337243807,-1.6240923337243807
-2.1947282253555374,-2.1947282253555374
-2.399217600564765,-2.399217600564765
-2.334969249569974,-2.334969249569974
-2.128407346909301,-2.128407346909301
-1.8893758475093252,-1.8893758475093252
-1.671760465107613,-1.671760465107613
-1.4900688918642786,-1.4900688918642786
-1.3318659630706529,-1.3318659630706529
-1.1916249388562161,-1.1916249388562161
-1.0652007643180785,-1.0652007643180785
-0.9601927067782047,-0.9601927067782047
-0.886272561010004,-0.886272561010004
-0.835841059691512,-0.835841059691512
-0.8158066276608782,-0.8158066276608782
-0.7978447230816892,-0.7978447230816892
-0.7985355655655042,-0.7985355655655042
-0.783337030921575,-0.783337030921575
-0.7757377635996106,-0.7757377635996106
-0.7584667015042366,-0.7584667015042366
-0.7474132217631971,-0.7474132217631971
-0.7446498518279373,-0.7446498518279373
-0.7398139544412327,-0.7398139544412327
-0.7411956394088626,-0.7411956394088626
-0.7280696322163783,-0.7280696322163783
-0.7094168851533744,-0.7094168851533744
-0.6769472884140714,-0.6769472884140714
-0.6458593766423982,-0.6458593766423982
-0.6147714648707251,-0.6147714648707251
-0.5947370328400913,-0.5947370328400913
-0.5795384981961621,-0.5795384981961621
-0.5691758609389378,-0.5691758609389378
-0.5539773262950086,-0.5539773262950086
-0.5332520517805599,-0.5332520517805599
-0.5035458249765166,-0.5035458249765166
-0.4662403308505088,-0.4662403308505088
-0.4227172543701664,-0.4227172543701664
-0.3729765955354893,-0.3729765955354893
-0.31425498441121774,-0.31425498441121774
-0.2382623111915722,-0.2382623111915722
-0.14223520594129288,-0.14223520594129288
-0.024791983692749774,-0.024791983692749774
0.10163219084538778,0.10163219084538778
0.2252929954482655,0.2252929954482655
0.3289193680205094,0.3289193680205094
0.4069845686915998,0.4069845686915998
0.45879775497772174,0.45879775497772174
0.4988666190389894,0.4988666190389894
0.5382446406164421,0.5382446406164421
0.5852219295158593,0.5852219295158593
0.6370351158019812,0.6370351158019812
0.6853940896690284,0.6853940896690284
0.7206270563435915,0.7206270563435915
0.7385889609227804,0.7385889609227804
0.7420431733418552,0.7420431733418552
0.7385889609227804,0.7385889609227804
0.7399706458904103,0.7399706458904103
0.7496424406638197,0.7496424406638197
0.7696768726944535,0.7696768726944535
0.7945472021117921,0.7945472021117921
0.8221809014643905,0.8221809014643905
0.847051230881729,0.847051230881729
0.8684673478799927,0.8684673478799927
0.8836658825239219,0.8836658825239219
0.8926468348135163,0.8926468348135163
0.8933376772973313,0.8933376772973313
0.8829750400401069,0.8829750400401069
0.864322292977103,0.864322292977103
0.8359977511406896,0.8359977511406896
0.8028373119175716,0.8028373119175716
0.7641501328239338,0.7641501328239338
0.7213178988274064,0.7213178988274064
0.6695047125412844,0.6695047125412844
0.607328888997938,0.607328888997938
0.5327179007459224,0.5327179007459224
0.4525801726233871,0.4525801726233871
0.3731332869846668,0.3731332869846668
0.3033581961193559,0.3033581961193559
0.24601826996271428,0.24601826996271428
0.20249519348237185,0.20249519348237185
0.16795306929162387,0.16795306929162387
0.14101021242284045,0.14101021242284045
0.11613988300550193,0.11613988300550193
0.09334208103960827,0.09334208103960827
0.07399849149278942,0.07399849149278942
0.061563326784120145,0.061563326784120145
0.05810911436504535,0.05810911436504535
0.06847175162226975,0.06847175162226975
0.08919702613671851,0.08919702613671851
0.12028493790839168,0.12028493790839168
0.15482706209913966,0.15482706209913966
0.18867834380607265,0.18867834380607265
0.21493035819104112,0.21493035819104112
0.23289226277023006,0.23289226277023006
0.24187321505982454,0.24187321505982454
0.24532742747889932,0.24532742747889932
0.24532742747889932,0.24532742747889932
0.24670911244652924,0.24670911244652924
0.24947248238178907,0.24947248238178907
0.2522358523170489,0.2522358523170489
0.25016332486560405,0.25016332486560405
0.23910984512456468,0.23910984512456468
0.22045709806156077,0.22045709806156077
0.19213255622514747,0.19213255622514747
0.15966295948584436,0.15966295948584436
0.12788420523035623,0.12788420523035623
0.10439556078064761,0.10439556078064761
0.08850618365290355,0.08850618365290355
0.08021607384712405,0.08021607384712405
0.07261680652515949,0.07261680652515949
0.05810911436504535,0.05810911436504535
0.027021202593372175,0.027021202593372175
-0.024101141208934817,-0.024101141208934817
-0.08351359481702132,-0.08351359481702132
-0.14430773339273775,-0.14430773339273775
-0.18713996738926522,-0.18713996738926522
-0.2216820915800132,-0.2216820915800132
-0.24793410596498164,-0.24793410596498164
-0.2845487576071745,-0.2845487576071745
-0.34672458115052085,-0.34672458115052085
-0.42133556940253647,-0.42133556940253647
-0.5159809896851859,-0.5159809896851859
-0.5919736629048314,-0.5919736629048314
-0.6596762263186974,-0.6596762263186974
-0.6969817204447052,-0.6969817204447052
-0.717016152475339,-0.717016152475339
-0.7114894126048192,-0.7114894126048192
-0.6804015008331462,-0.6804015008331462
-0.6009546151944258,-0.6009546151944258
-0.44689674130368995,-0.44689674130368995
-0.17194143274533613,-0.17194143274533613
0.25638090721993867,0.25638090721993867
0.8567230256551385,0.8567230256551385
1.5876343735313652,1.5876343735313652
2.3482519482116353,2.3482519482116353
2.9644834437745797,2.9644834437745797
3.2518739170416024,3.2518739170416024
3.053602124186709,3.053602124186709
2.338580153438226,2.338580153438226
1.2007625825949881,1.2007625825949881
-0.12772751378117872,-0.12772751378117872
-1.3829883068729598,-1.3829883068729598
-2.328751667215639,-2.328751667215639
-2.8627729072046026,-2.8627729072046026
-2.9988688765161493,-2.9988688765161493
-2.8641545921722322,-2.8641545921722322
-2.5933443385167685,-2.5933443385167685
-2.3087172351850054,-2.3087172351850054
-2.0572505710763602,-2.0572505710763602
-1.8541428808347622,-1.8541428808347622
-1.6765963624943176,-1.6765963624943176
-1.5266835435064714,-1.5266835435064714
-1.397495999033074,-1.397495999033074
-1.3076864761371292,-1.3076864761371292
-1.2489648650128578,-1.2489648650128578
-1.2206403231764442,-1.2206403231764442
-1.208205158467775,-1.208205158467775
-1.1916249388562161,-1.1916249388562161
-1.177117246696102,-1.177117246696102
-1.1446476499567988,-1.1446476499567988
-1.1190864780556453,-1.1190864780556453
-1.0790176139943777,-1.0790176139943777
-1.0424029623521849,-1.0424029623521849
-0.9995707283556573,-0.9995707283556573
-0.9581201793267597,-0.9581201793267597
-0.9228872126521969,-0.9228872126521969
-0.8938718283319685,-0.8938718283319685
-0.8745282387851497,-0.8745282387851497
-0.8607113891088505,-0.8607113891088505
-0.8475853819163662,-0.8475853819163662
-0.8289326348533623,-0.8289326348533623
-0.8054439904036538,-0.8054439904036538
-0.7764286060834255,-0.7764286060834255
-0.7432681668603074,-0.7432681668603074
-0.7080352001857445,-0.7080352001857445
-0.6714205485435517,-0.6714205485435517
-0.632733369449914,-0.632733369449914
-0.5933553478724614,-0.5933553478724614
-0.549141428908304,-0.549141428908304
-0.49870992758981186,-0.49870992758981186
-0.4372249465302805,-0.4372249465302805
-0.3633048007620799,-0.3633048007620799
-0.27694949028520993,-0.27694949028520993
-0.18368575497019043,-0.18368575497019043
-0.09042201965517092,-0.09042201965517092
-0.0047575516621159546,-0.0047575516621159546
0.07054427907371462,0.07054427907371462
0.1354834725523208,0.1354834725523208
0.19696845361185217,0.19696845361185217
0.2556900647361237,0.2556900647361237
0.3151025183442102,0.3151025183442102
0.37106075953322193,0.37106075953322193
0.42356478830315886,0.42356478830315886
0.46570617981587137,0.46570617981587137
0.5009391464904343,0.5009391464904343
0.5278820033592176,0.5278820033592176
0.5520614902927413,0.5520614902927413
0.57416844977482,0.57416844977482
0.5990387791921585,0.5990387791921585
0.6280541635123867,0.6280541635123867
0.6646688151545797,0.6646688151545797
0.7047376792158473,0.7047376792158473
0.746188228244745,0.746188228244745
0.7807303524354929,0.7807303524354929
0.8042189968852015,0.8042189968852015
0.8118182642071661,0.8118182642071661
0.8049098393690165,0.8049098393690165
0.7897113047250873,0.7897113047250873
0.7724402426297133,0.7724402426297133
0.7558600230181544,0.7558600230181544
0.7406614883742253,0.7406614883742253
0.7226995837950363,0.7226995837950363
0.6978292543776977,0.6978292543776977
0.6660505001222096,0.6660505001222096
0.6252907935771269,0.6252907935771269
0.5810768746129695,0.5810768746129695
0.5327179007459224,0.5327179007459224
0.488503981781765,0.488503981781765
0.4463625902690525,0.4463625902690525
0.41112962359448957,0.41112962359448957
0.3779691843713715,0.3779691843713715
0.35033548501877315,0.35033548501877315
0.31924757324709996,0.31924757324709996
0.2881596614754268,0.2881596614754268
0.25154500983323397,0.25154500983323397
0.2183845706101159,0.2183845706101159
0.1879875013222577,0.1879875013222577
0.1727889666783286,0.1727889666783286
0.17002559674306875,0.17002559674306875
0.18591497387081282,0.18591497387081282
0.2114761457719663,0.2114761457719663
0.24809079741415915,0.24809079741415915
0.28608713402398195,0.28608713402398195
0.3247743131176197,0.3247743131176197
0.3572439098569227,0.3572439098569227
0.3841867667257062,0.3841867667257062
0.40353035627252504,0.40353035627252504
0.420110575884084,0.420110575884084
0.43185489810893835,0.43185489810893835
0.4429083778499777,0.4429083778499777
0.4498168026881273,0.4498168026881273
0.44912596020431234,0.44912596020431234
0.43669079549564305,0.43669079549564305
0.40836625365922974,0.40836625365922974
0.36760654711414714,0.36760654711414714
0.31648420331184013,0.31648420331184013
0.2625984895742733,0.2625984895742733
0.21562120067485607,0.21562120067485607
0.18176991896792305,0.18176991896792305
0.16311717190491917,0.16311717190491917
0.1541362196153247,0.1541362196153247
0.148609479744805,0.148609479744805
0.13341094510087592,0.13341094510087592
0.10992230065116729,0.10992230065116729
0.06847175162226975,0.06847175162226975
0.03462046991533673,0.03462046991533673
-0.007520921597375793,-0.007520921597375793
-0.02962788107945449,-0.02962788107945449
-0.06624253272164733,-0.06624253272164733
-0.10562055429910003,-0.10562055429910003
-0.16917806281007627,-0.16917806281007627
-0.25622421577076115,-0.25622421577076115
-0.3508696360534106,-0.3508696360534106
-0.4558776935932844,-0.4558776935932844
-0.5367062641996346,-0.5367062641996346
-0.6050996700973156,-0.6050996700973156
-0.6389509518042487,-0.6389509518042487
-0.650695274029103,-0.650695274029103
-0.6202982047412448,-0.6202982047412448
-0.5394696341348945,-0.5394696341348945
-0.36675901318115467,-0.36675901318115467
-0.06278832030257253,-0.06278832030257253
0.41320215104593444,0.41320215104593444
1.065357455767256,1.065357455767256
1.8425552500590852,1.8425552500590852
2.6218255718023595,2.6218255718023595
3.225621902656634,3.225621902656634
3.462580874605165,3.462580874605165
3.2028241006907403,3.2028241006907403
2.4283896763341706,2.4283896763341706
1.2608658786868896,1.2608658786868896
-0.06762421768927725,-0.06762421768927725
-1.2917970990093852,-1.2917970990093852
-2.200254965226057,-2.200254965226057
-2.6969707110890124,-2.6969707110890124
-2.812341405886111,-2.812341405886111
-2.661046901930635,-2.661046901930635
-2.3805648535017614,-2.3805648535017614
-2.072449105720289,-2.072449105720289
-1.7926578997752307,-1.7926578997752307
-1.5529355578914399,-1.5529355578914399
-1.3553546075203613,-1.3553546075203613
-1.1964608362429208,-1.1964608362429208
-1.0859260388325274,-1.0859260388325274
-1.0182234754186612,-1.0182234754186612
-0.988517248614618,-0.988517248614618
-0.9747003989383188,-0.9747003989383188
-0.9608835492620196,-0.9608835492620196
-0.9443033296504606,-0.9443033296504606
-0.9180513152654921,-0.9180513152654921
-0.9014710956539331,-0.9014710956539331
-0.8876542459776339,-0.8876542459776339
-0.8835091910747441,-0.8835091910747441
-0.8835091910747441,-0.8835091910747441
-0.869692341398445,-0.869692341398445
-0.8551846492383308,-0.8551846492383308
-0.8213333675313979,-0.8213333675313979
-0.7916271407273546,-0.7916271407273546
-0.7536308041175318,-0.7536308041175318
-0.7246154197973035,-0.7246154197973035
-0.6928366655418154,-0.6928366655418154
-0.667275493640662,-0.667275493640662
-0.6375692668366187,-0.6375692668366187
-0.6085538825163904,-0.6085538825163904
-0.5740117583256424,-0.5740117583256424
-0.5367062641996346,-0.5367062641996346
-0.49249234523547725,-0.49249234523547725
-0.4413700014331703,-0.4413700014331703
-0.37988502037363886,-0.37988502037363886
-0.3114916144759579,-0.3114916144759579
-0.23895315367538716,-0.23895315367538716
-0.1671055353586314,-0.1671055353586314
-0.09663960200950555,-0.09663960200950555
-0.02962788107945449,-0.02962788107945449
0.0366929973667816,0.0366929973667816
0.1064680882320925,0.1064680882320925
0.183151603935553,0.183151603935553
0.2653618595095331,0.2653618595095331
0.3475721150835133,0.3475721150835133
0.4263281582384187,0.4263281582384187
0.4933398791684697,0.4933398791684697
0.5472255929060366,0.5472255929060366
0.5866036144834892,0.5866036144834892
0.6176915262551624,0.6176915262551624
0.6446343831239458,0.6446343831239458
0.6729589249603591,0.6729589249603591
0.7005926243129575,0.7005926243129575
0.7296080086331859,0.7296080086331859
0.7572417079857843,0.7572417079857843
0.7855662498221976,0.7855662498221976
0.8194175315291307,0.8194175315291307
0.8698490328476226,0.8698490328476226
0.9458417060672681,0.9458417060672681
1.0473955511880673,1.0473955511880673
1.1662204584042402,1.1662204584042402
1.287117893071858,1.287117893071858
1.391435108127917,1.391435108127917
1.4646644114123024,1.4646644114123024
1.5012790630544954,1.5012790630544954
1.50473327547357,1.50473327547357
1.4805537885400466,1.4805537885400466
1.4370307120597041,1.4370307120597041
1.374164046032543,1.374164046032543
1.305079797651047,1.305079797651047
1.2194153296579922,1.2194153296579922
1.136514231600197,1.136514231600197
1.032887859027953,1.032887859027953
0.9334065413585989,0.9334065413585989
0.813199949174796,0.813199949174796
0.692993356990993,0.692993356990993
0.5658783399690405,0.5658783399690405
0.44014500791471783,0.44014500791471783
0.3289193680205094,0.3289193680205094
0.2252929954482655,0.2252929954482655
0.13893768497139558,0.13893768497139558
0.06363585423556503,0.06363585423556503
0.005605085595108435,0.005605085595108435
-0.023410298725119856,-0.023410298725119856
0.004914243111293477,0.004914243111293477
0.14308273987428535,0.14308273987428535
0.4525801726233871,0.4525801726233871
0.9921281524828705,0.9921281524828705
1.781761111483369,1.781761111483369
2.7890094528855793,2.7890094528855793
3.8978116394085895,3.8978116394085895
4.916804303035654,4.916804303035654
5.6117918417535035,5.6117918417535035
5.760322975773719,5.760322975773719
5.235282688074351,5.235282688074351
4.054632883234586,4.054632883234586
2.410427771754982,2.410427771754982
0.6114739439008278,0.6114739439008278
-1.0002615708394722,-1.0002615708394722
-2.178148005743978,-2.178148005743978
-2.8192498307242606,-2.8192498307242606
-2.992651294161815,-2.992651294161815
-2.8482652150444885,-2.8482652150444885
-2.567783166615615,-2.567783166615615
-2.263121631253218,-2.263121631253218
-1.9971472749844588,-1.9971472749844588
-1.7691692553255223,-1.7691692553255223
-1.5826417846954832,-1.5826417846954832
-1.4299655957723771,-1.4299655957723771
-1.327030065683948,-1.327030065683948
-1.2745260369140112,-1.2745260369140112
-1.2607091872377119,-1.2607091872377119
-1.2814344617521607,-1.2814344617521607
-1.2952513114284598,-1.2952513114284598
-1.3221941682972433,-1.3221941682972433
-1.3194307983619835,-1.3194307983619835
-1.3373927029411725,-1.3373927029411725
-1.3401560728764323,-1.3401560728764323
-1.3698622996804755,-1.3698622996804755
-1.4009502114521488,-1.4009502114521488
-1.4361831781267118,-1.4361831781267118
-1.4589809800926055,-1.4589809800926055
-1.450000027803011,-1.450000027803011
-1.412694533677003,-1.412694533677003
-1.344301127779322,-1.344301127779322
-1.2683084545596766,-1.2683084545596766
-1.193006623823846,-1.193006623823846
-1.1329033277319445,-1.1329033277319445
-1.0803992989620075,-1.0803992989620075
-1.0299677976435155,-1.0299677976435155
-0.9740095564545038,-0.9740095564545038
-0.9104520479435276,-0.9104520479435276
-0.8468945394325513,-0.8468945394325513
-0.7888637707920947,-0.7888637707920947
-0.7405047969250476,-0.7405047969250476
-0.6956000354770753,-0.6956000354770753
-0.6437868491909533,-0.6437868491909533
-0.5705575459065677,-0.5705575459065677
-0.47038538575339855,-0.47038538575339855
-0.344652053699076,-0.344652053699076
-0.207865241903714,-0.207865241903714
-0.07798685494650164,-0.07798685494650164
0.03116625749626193,0.03116625749626193
0.10923145816735233,0.10923145816735233
0.16035380196965932,0.16035380196965932
0.19144171374133248,0.19144171374133248
0.21769372812630094,0.21769372812630094
0.2487816398979741,0.2487816398979741
0.29575892879739135,0.29575892879739135
0.3558622248892928,0.3558622248892928
0.43047321314130843,0.43047321314130843
0.5085384138123988,0.5085384138123988
0.590748669386379,0.590748669386379
0.6667413426060245,0.6667413426060245
0.7392798034065954,0.7392798034065954
0.8007647844661268,0.8007647844661268
0.8518871282684337,0.8518871282684337
0.8836658825239219,0.8836658825239219
0.8961010472325911,0.8961010472325911
0.8829750400401069,0.8829750400401069
0.8511962857846187,0.8511962857846187
0.8028373119175716,0.8028373119175716
0.7468790707285599,0.7468790707285599
0.6881574596042883,0.6881574596042883
0.6315083759314616,0.6315083759314616
0.5776226621938948,0.5776226621938948
0.5251186334239578,0.5251186334239578
0.47399628962165086,0.47399628962165086
0.4228739458193439,0.4228739458193439
0.3717516020170369,0.3717516020170369
0.32270178566617475,0.32270178566617475
0.2791787091858323,0.2791787091858323
0.24809079741415915,0.24809079741415915
0.23081973531878516,0.23081973531878516
0.22805636538352533,0.22805636538352533
0.23358310525404502,0.23358310525404502
0.23841900264074972,0.23841900264074972
0.2370373176731198,0.2370373176731198
0.22598383793208046,0.22598383793208046
0.21285783073959624,0.21285783073959624
0.2018043509985569,0.2018043509985569
0.199731823547112,0.199731823547112
0.20456772093381673,0.20456772093381673
0.2114761457719663,0.2114761457719663
0.2135486732234112,0.2135486732234112
0.20871277583670647,0.20871277583670647
0.19765929609566713,0.19765929609566713
0.18867834380607265,0.18867834380607265
0.183151603935553,0.183151603935553
0.1845332889031829,0.1845332889031829
0.1845332889031829,0.1845332889031829
0.1776248640650333,0.1776248640650333
0.15482706209913966,0.15482706209913966
0.11613988300550193,0.11613988300550193
0.06639922417082486,0.06639922417082486
0.018731092787592662,0.018731092787592662
-0.015120188919340345,-0.015120188919340345
-0.025482826176564735,-0.025482826176564735
-0.013738503951710427,-0.013738503951710427
0.00975014049799819,0.00975014049799819
0.02909373004481705,0.02909373004481705
0.03392962743152177,0.03392962743152177
0.019421935271407623,0.019421935271407623
-0.00959344904882067,-0.00959344904882067
-0.041372203304308804,-0.041372203304308804
-0.06900590265690718,-0.06900590265690718
-0.08765864971991107,-0.08765864971991107
-0.10216634188002523,-0.10216634188002523
-0.11667403404013937,-0.11667403404013937
-0.13532678110314328,-0.13532678110314328
-0.15467037064996214,-0.15467037064996214
-0.1657238503910015,-0.1657238503910015
-0.16365132293955661,-0.16365132293955661
-0.14568941836036767,-0.14568941836036767
-0.12012824645921417,-0.12012824645921417
-0.09871212946095043,-0.09871212946095043
-0.09456707455806067,-0.09456707455806067
-0.1111472941696197,-0.1111472941696197
-0.1436168909089228,-0.1436168909089228
-0.17954070006730066,-0.17954070006730066
-0.20855608438752896,-0.20855608438752896
-0.22306377654764312,-0.22306377654764312
-0.22928135890197773,-0.22928135890197773
-0.2320447288372376,-0.2320447288372376
-0.24309820857827694,-0.24309820857827694
-0.2569150582545761,-0.2569150582545761
-0.26865938047943044,-0.26865938047943044
-0.26865938047943044,-0.26865938047943044
-0.25277000335168637,-0.25277000335168637
-0.2216820915800132,-0.2216820915800132
-0.18644912490545026,-0.18644912490545026
-0.15881542555285189,-0.15881542555285189
-0.14707110332799758,-0.14707110332799758
-0.15052531574707237,-0.15052531574707237
-0.16088795300429676,-0.16088795300429676
-0.16434216542337157,-0.16434216542337157
-0.1484527882956275,-0.1484527882956275
-0.10700223926672994,-0.10700223926672994
-0.04068136082049384,-0.04068136082049384
0.04152889475348632,0.04152889475348632
0.12926589019798615,0.12926589019798615
0.21216698825578129,0.21216698825578129
0.284705449056352,0.284705449056352
0.33790032031010386,0.33790032031010386
0.3682973895979621,0.3682973895979621
0.3731332869846668,0.3731332869846668
0.3579347523407377,0.3579347523407377
0.32822852553669446,0.32822852553669446
0.29575892879739135,0.29575892879739135
0.268125229444793,0.268125229444793
0.25016332486560405,0.25016332486560405
0.23980068760837964,0.23980068760837964
0.23358310525404502,0.23358310525404502
0.2287472078673403,0.2287472078673403
0.22045709806156077,0.22045709806156077
0.21009446080433639,0.21009446080433639
0.1893691862898876,0.1893691862898876
0.1693347542592538,0.1693347542592538
0.13893768497139558,0.13893768497139558
0.12028493790839168,0.12028493790839168
0.09057871110434842,0.09057871110434842
0.07192596404134453,0.07192596404134453
0.03462046991533673,0.03462046991533673
-0.01166597650026555,-0.01166597650026555
-0.07384180004361189,-0.07384180004361189
-0.1498344732632574,-0.1498344732632574
-0.21201029680660377,-0.21201029680660377
-0.2714227504146903,-0.2714227504146903
-0.2997472922511036,-0.2997472922511036
-0.31909088179792244,-0.31909088179792244
-0.310109929508328,-0.310109929508328
-0.2845487576071745,-0.2845487576071745
-0.2099377693551589,-0.2099377693551589
-0.07038758762453709,-0.07038758762453709
0.183151603935553,0.183151603935553
0.5776226621938948,0.5776226621938948
1.1420409714707167,1.1420409714707167
1.8598263121544591,1.8598263121544591
2.6694937031855916,2.6694937031855916
3.4418556000907166,3.4418556000907166
4.005583066883723,4.005583066883723
4.179675372805093,4.179675372805093
3.8432350831872077,3.8432350831872077
2.9852087182890283,2.9852087182890283
1.7361655075515816,1.7361655075515816
0.3296102105043244,0.3296102105043244
-0.9671011316163542,-0.9671011316163542
-1.943261561246892,-1.943261561246892
-2.504916500588454,-2.504916500588454
-2.687298916315603,-2.687298916315603
-2.608542873160698,-2.608542873160698
-2.40405349795147,-2.40405349795147
-2.1726212658734583,-2.1726212658734583
-1.9639868357613408,-1.9639868357613408
-1.7767685226474867,-1.7767685226474867
-1.6075121141128217,-1.6075121141128217
-1.4424007604810465,-1.4424007604810465
-1.2993963663313497,-1.2993963663313497
-1.1833348290504364,-1.1833348290504364
-1.1094146832822358,-1.1094146832822358
-1.0700366617047832,-1.0700366617047832
-1.0610557094151887,-1.0610557094151887
-1.073490874123858,-1.073490874123858
-1.090071093735417,-1.090071093735417
-1.1121780532174956,-1.1121780532174956
-1.1273765878614248,-1.1273765878614248
-1.1391209100862791,-1.1391209100862791
-1.1460293349244288,-1.1460293349244288
-1.140502595053909,-1.140502595053909
-1.1384300676024641,-1.1384300676024641
-1.124613217926165,-1.124613217926165
-1.1163231081203855,-1.1163231081203855
-1.1011245734764563,-1.1011245734764563
-1.091452778703047,-1.091452778703047
-1.0776359290267477,-1.0776359290267477
-1.0693458192209682,-1.0693458192209682
-1.055528969544669,-1.055528969544669
-1.0424029623521849,-1.0424029623521849
-1.0189143179024762,-1.0189143179024762
-0.988517248614618,-0.988517248614618
-0.9470666995857204,-0.9470666995857204
-0.902161938137748,-0.902161938137748
-0.8538029642707009,-0.8538029642707009
-0.8082073603389136,-0.8082073603389136
-0.7619209139233113,-0.7619209139233113
-0.7149436250238941,-0.7149436250238941
-0.6589853838348825,-0.6589853838348825
-0.5926645053886463,-0.5926645053886463
-0.5132176197499261,-0.5132176197499261
-0.4240989393377963,-0.4240989393377963
-0.3259993066360721,-0.3259993066360721
-0.225136303999088,-0.225136303999088
-0.12496414384591889,-0.12496414384591889
-0.02824619611182457,-0.02824619611182457
0.06432669671937999,0.06432669671937999
0.15068200719624988,0.15068200719624988
0.23081973531878516,0.23081973531878516
0.3075032510222457,0.3075032510222457
0.3841867667257062,0.3841867667257062
0.4608702824291666,0.4608702824291666
0.5334087432297374,0.5334087432297374
0.5983479367083435,0.5983479367083435
0.6522336504459104,0.6522336504459104
0.692993356990993,0.692993356990993
0.7233904262788513,0.7233904262788513
0.7517149681152646,0.7517149681152646
0.7848754073383827,0.7848754073383827
0.8270167988510951,0.8270167988510951
0.8788299851372171,0.8788299851372171
0.9361699112938587,0.9361699112938587
0.9942006799343154,0.9942006799343154
1.0473955511880673,1.0473955511880673
1.0909186276684097,1.0909186276684097
1.1226973819238977,1.1226973819238977
1.1406592865030867,1.1406592865030867
1.1454951838897913,1.1454951838897913
1.1372050740840118,1.1372050740840118
1.1199340119886378,1.1199340119886378
1.0957545250551144,1.0957545250551144
1.0688116681863309,1.0688116681863309
1.0370329139308427,1.0370329139308427
0.999727419804835,0.999727419804835
0.9506776034539729,0.9506776034539729
0.8891926223944415,0.8891926223944415
0.812509106690981,0.812509106690981
0.727535481181741,0.727535481181741
0.6370351158019812,0.6370351158019812
0.5513706478089263,0.5513706478089263
0.471923762170206,0.471923762170206
0.40422119875634,0.40422119875634
0.3434270601806235,0.3434270601806235
0.2902321889268717,0.2902321889268717
0.2425640575436395,0.2425640575436395
0.2011135085147419,0.2011135085147419
0.16380801438873413,0.16380801438873413
0.13272010261706094,0.13272010261706094
0.10508640326446257,0.10508640326446257
0.07952523136330909,0.07952523136330909
0.051891532010710714,0.051891532010710714
0.0214944627228525,0.0214944627228525
-0.01028429153263563,-0.01028429153263563
-0.037227148401419045,-0.037227148401419045
-0.05311652552916311,-0.05311652552916311
-0.05104399807771823,-0.05104399807771823
-0.03100956604708441,-0.03100956604708441
0.005605085595108435,0.005605085595108435
0.04636479214019104,0.04636479214019104
0.08574281371764372,0.08574281371764372
0.11544904052168696,0.11544904052168696
0.1354834725523208,0.1354834725523208
0.148609479744805,0.148609479744805
0.15759043203439949,0.15759043203439949
0.16380801438873413,0.16380801438873413
0.16657138432399396,0.16657138432399396
0.16380801438873413,0.16380801438873413
0.15344537713150974,0.15344537713150974
0.13893768497139558,0.13893768497139558
0.11959409542457672,0.11959409542457672
0.09886882091012794,0.09886882091012794
0.07538017646041933,0.07538017646041933
0.0505098470430808,0.0505098470430808
0.02425783265811234,0.02425783265811234
0.0035325581436635575,0.0035325581436635575
-0.00959344904882067,-0.00959344904882067
-0.007520921597375793,-0.007520921597375793
0.0028417156598485984,0.0028417156598485984
0.014586037884702906,0.014586037884702906
0.019421935271407623,0.019421935271407623
0.00975014049799819,0.00975014049799819
-0.005448394145930914,-0.005448394145930914
-0.03239125101471433,-0.03239125101471433
-0.05449821049679302,-0.05449821049679302
-0.08282275233320635,-0.08282275233320635
-0.11874656149158425,-0.11874656149158425
-0.16503300790718653,-0.16503300790718653
-0.22997220138579272,-0.22997220138579272
-0.29076633996150913,-0.29076633996150913
-0.35156047853722555,-0.35156047853722555
-0.3916293425984932,-0.3916293425984932
-0.41926304195109154,-0.41926304195109154
-0.42962567920831596,-0.42962567920831596
-0.42340809685398134,-0.42340809685398134
-0.38403007527652866,-0.38403007527652866
-0.2776403327690249,-0.2776403327690249
-0.05587989546442294,-0.05587989546442294
0.3309918954719543,0.3309918954719543
0.9112995818765202,0.9112995818765202
1.6663904166862706,1.6663904166862706
2.5168175142624856,2.5168175142624856
3.3092138431982443,3.3092138431982443
3.8535977204444323,3.8535977204444323
3.964132517854826,3.964132517854826
3.539955232792441,3.539955232792441
2.599718612320281,2.599718612320281
1.3112973800053818,1.3112973800053818
-0.07246011507598196,-0.07246011507598196
-1.2779802493330858,-1.2779802493330858
-2.123571449522596,-2.123571449522596
-2.5415311522306467,-2.5415311522306467
-2.600252763354918,-2.600252763354918
-2.420633717563029,-2.420633717563029
-2.14498756652086,-2.14498756652086
-1.856215408286207,-1.856215408286207
-1.601294531758487,-1.601294531758487
-1.37884325197007,-1.37884325197007
-1.1992242061781806,-1.1992242061781806
-1.0576014969961138,-1.0576014969961138
-0.9698645015516141,-0.9698645015516141
-0.9291047950065315,-0.9291047950065315
-0.9277231100389015,-0.9277231100389015
-0.9470666995857204,-0.9470666995857204
-0.9595018642943897,-0.9595018642943897
-0.971246186519244,-0.971246186519244
-0.9574293368429448,-0.9574293368429448
-0.95397512442387,-0.95397512442387
-0.937394904812311,-0.937394904812311
-0.9339406923932362,-0.9339406923932362
-0.9263414250712716,-0.9263414250712716
-0.919433000233122,-0.919433000233122
-0.9104520479435276,-0.9104520479435276
-0.8959443557834135,-0.8959443557834135
-0.8821275061071142,-0.8821275061071142
-0.8662381289793701,-0.8662381289793701
-0.8510395943354411,-0.8510395943354411
-0.835150217207697,-0.835150217207697
-0.8206425250475828,-0.8206425250475828
-0.8088982028227285,-0.8088982028227285
-0.802680620468394,-0.802680620468394
-0.8019897779845789,-0.8019897779845789
-0.8033714629522088,-0.8033714629522088
-0.802680620468394,-0.802680620468394
-0.7943905106626145,-0.7943905106626145
-0.7743560786319806,-0.7743560786319806
-0.7425773243764925,-0.7425773243764925
-0.6983634054123351,-0.6983634054123351
-0.6437868491909533,-0.6437868491909533
-0.5802293406799771,-0.5802293406799771
-0.5090725648470363,-0.5090725648470363
-0.4310073641759459,-0.4310073641759459
-0.3487971086019657,-0.3487971086019657
-0.2645143255765407,-0.2645143255765407
-0.1809223850349306,-0.1809223850349306
-0.10078465691239531,-0.10078465691239531
-0.025482826176564735,-0.025482826176564735
0.0436014222049312,0.0436014222049312
0.10715893071590746,0.10715893071590746
0.16795306929162387,0.16795306929162387
0.22460215296445055,0.22460215296445055
0.27848786670201736,0.27848786670201736
0.32408347063380466,0.32408347063380466
0.3620798072436274,0.3620798072436274
0.3890226641124109,0.3890226641124109
0.41112962359448957,0.41112962359448957
0.4311640556251234,0.4311640556251234
0.4581069124939068,0.4581069124939068
0.4919581942008398,0.4919581942008398
0.5340995857135523,0.5340995857135523
0.5769318197100798,0.5769318197100798
0.6190732112227924,0.6190732112227924
0.6529244929297253,0.6529244929297253
0.6805581922823237,0.6805581922823237
0.7005926243129575,0.7005926243129575
0.7192453713759616,0.7192453713759616
0.7344439060198906,0.7344439060198906
0.7468790707285599,0.7468790707285599
0.7503332831476347,0.7503332831476347
0.7392798034065954,0.7392798034065954
0.709573576602552,0.709573576602552
0.6632871301869497,0.6632871301869497
0.6059472040303081,0.6059472040303081
0.5458439079384066,0.5458439079384066
0.49126735171702485,0.49126735171702485
0.4435992203337927,0.4435992203337927
0.40422119875634,0.40422119875634
0.3669157046303322,0.3669157046303322
0.33306442292339916,0.33306442292339916
0.29921314121646614,0.29921314121646614
0.2695069144124229,0.2695069144124229
0.2425640575436395,0.2425640575436395
0.22322046799682063,0.22322046799682063
0.20594940590144664,0.20594940590144664
0.19213255622514747,0.19213255622514747
0.17693402158121835,0.17693402158121835
0.16380801438873413,0.16380801438873413
0.14791863726099005,0.14791863726099005
0.13755600000376567,0.13755600000376567
0.1285750477141712,0.1285750477141712
0.12926589019798615,0.12926589019798615
0.13479263006850584,0.13479263006850584
0.15068200719624988,0.15068200719624988
0.1707164392268837,0.1707164392268837
0.19696845361185217,0.19696845361185217
0.2239113104806356,0.2239113104806356
0.2529266948008639,0.2529266948008639
0.2791787091858323,0.2791787091858323
0.3033581961193559,0.3033581961193559
0.32132010069854483,0.32132010069854483
0.3323735804395842,0.3323735804395842
0.33306442292339916,0.33306442292339916
0.31924757324709996,0.31924757324709996
0.29092303141068665,0.29092303141068665
0.24670911244652924,0.24670911244652924
0.19351424119277738,0.19351424119277738
0.13893768497139558,0.13893768497139558
0.09196039607197835,0.09196039607197835
0.059490799332675266,0.059490799332675266
0.04083805226967136,0.04083805226967136
0.02909373004481705,0.02909373004481705
0.00975014049799819,0.00975014049799819
-0.017883558854600183,-0.017883558854600183
-0.06071579285112766,-0.06071579285112766
-0.09180370462280084,-0.09180370462280084
-0.12012824645921417,-0.12012824645921417
-0.11667403404013937,-0.11667403404013937
-0.11321982162106457,-0.11321982162106457
-0.1042388693314701,-0.1042388693314701
-0.11943740397539922,-0.11943740397539922
-0.1622696379719267,-0.1622696379719267
-0.2203004066123833,-0.2203004066123833
-0.29560223734821384,-0.29560223734821384
-0.35501469095630034,-0.35501469095630034
-0.41442714456438684,-0.41442714456438684
-0.45311432365802456,-0.45311432365802456
-0.4869656053649576,-0.4869656053649576
-0.4945648726869221,-0.4945648726869221
-0.46693117333432377,-0.46693117333432377
-0.3584689033753751,-0.3584689033753751
-0.1332542536516984,-0.1332542536516984
0.2570717497037536,0.2570717497037536
0.829780168786355,0.829780168786355
1.5675999415007313,1.5675999415007313
2.3869391273052734,2.3869391273052734
3.1399574346635792,3.1399574346635792
3.63874570797798,3.63874570797798
3.7119750112623655,3.7119750112623655
3.264309081750272,3.264309081750272
2.336507625986781,2.336507625986781
1.0985178949903742,1.0985178949903742
-0.19681176216267465,-0.19681176216267465
-1.3007780512989795,-1.3007780512989795
-2.0510329887220258,-2.0510329887220258
-2.4109619227896193,-2.4109619227896193
-2.447576574431812,-2.447576574431812
-2.2852285907352967,-2.2852285907352967
-2.0372161390457264,-2.0372161390457264
-1.7760776801636717,-1.7760776801636717
-1.5273743859902864,-1.5273743859902864
-1.3014688937827945,-1.3014688937827945
-1.0990520460250115,-1.0990520460250115
-0.937394904812311,-0.937394904812311
-0.8199516825637679,-0.8199516825637679
-0.7570850165366066,-0.7570850165366066
-0.7301421596678231,-0.7301421596678231
-0.7246154197973035,-0.7246154197973035
-0.7239245773134886,-0.7239245773134886
-0.7177069949591539,-0.7177069949591539
-0.7183978374429689,-0.7183978374429689
-0.7211612073782288,-0.7211612073782288
-0.7391231119574176,-0.7391231119574176
-0.7605392289556814,-0.7605392289556814
-0.7729743936643507,-0.7729743936643507
-0.7743560786319806,-0.7743560786319806
-0.7467223792793822,-0.7467223792793822
-0.7094168851533744,-0.7094168851533744
-0.6589853838348825,-0.6589853838348825
-0.6209890472250597,-0.6209890472250597
-0.5933553478724614,-0.5933553478724614
-0.5878286080019417,-0.5878286080019417
-0.5919736629048314,-0.5919736629048314
-0.6030271426458708,-0.6030271426458708
-0.6085538825163904,-0.6085538825163904
-0.6071721975487605,-0.6071721975487605
-0.5933553478724614,-0.5933553478724614
-0.5719392308741976,-0.5719392308741976
-0.5415421615863394,-0.5415421615863394
-0.5035458249765166,-0.5035458249765166
-0.4538051661418395,-0.4538051661418395
-0.39370187004993806,-0.39370187004993806
-0.3239267791846272,-0.3239267791846272
-0.24793410596498164,-0.24793410596498164
-0.17125059026152117,-0.17125059026152117
-0.09733044449332051,-0.09733044449332051
-0.026173668660379696,-0.026173668660379696
0.045673949656376084,0.045673949656376084
0.12304830784365152,0.12304830784365152
0.20594940590144664,0.20594940590144664
0.28954134644305674,0.28954134644305674
0.3648431771788873,0.3648431771788873
0.4242556307869738,0.4242556307869738
0.4622519673967966,0.4622519673967966
0.4795230294921705,0.4795230294921705
0.48643145433032015,0.48643145433032015
0.4940307216522847,0.4940307216522847
0.5092292562962137,0.5092292562962137
0.5340995857135523,0.5340995857135523
0.5658783399690405,0.5658783399690405
0.6011113066436033,0.6011113066436033
0.6391076432534262,0.6391076432534262
0.6819398772499536,0.6819398772499536
0.7344439060198906,0.7344439060198906
0.795238044595607,0.795238044595607
0.8581047106227684,0.8581047106227684
0.9099178969088902,0.9099178969088902
0.9410058086805635,0.9410058086805635
0.9430783361320083,0.9430783361320083
0.9209713766499297,0.9209713766499297
0.882284197556292,0.882284197556292
0.8373794361083196,0.8373794361083196
0.7890204622412724,0.7890204622412724
0.7399706458904103,0.7399706458904103
0.6833215622175836,0.6833215622175836
0.6211457386742372,0.6211457386742372
0.5492981203574814,0.5492981203574814
0.4781413445245406,0.4781413445245406
0.41112962359448957,0.41112962359448957
0.3572439098569227,0.3572439098569227
0.31579336082802517,0.31579336082802517
0.2916138738945016,0.2916138738945016
0.2791787091858323,0.2791787091858323
0.27848786670201736,0.27848786670201736
0.27848786670201736,0.27848786670201736
0.27572449676675753,0.27572449676675753
0.26121680460664337,0.26121680460664337
0.23496479022167494,0.23496479022167494
0.19835013857948208,0.19835013857948208
0.16380801438873413,0.16380801438873413
0.14101021242284045,0.14101021242284045
0.13962852745521054,0.13962852745521054
0.1589721170020294,0.1589721170020294
0.19420508367659234,0.19420508367659234
0.23634647518930485,0.23634647518930485
0.284014606572537,0.284014606572537
0.34135453272917865,0.34135453272917865
0.4138929935297494,0.4138929935297494
0.505775043877139,0.505775043877139
0.609401416449383,0.609401416449383
0.7130277890216269,0.7130277890216269
0.796619729563237,0.796619729563237
0.8525779707522486,0.8525779707522486
0.8753757727181424,0.8753757727181424
0.8705398753314376,0.8705398753314376
0.8380702785921346,0.8380702785921346
0.7821120374031229,0.7821120374031229
0.7040468367320323,0.7040468367320323
0.6114739439008278,0.6114739439008278
0.5175193661019933,0.5175193661019933
0.4311640556251234,0.4311640556251234
0.36760654711414714,0.36760654711414714
0.3123391484089504,0.3123391484089504
0.2701977568962379,0.2701977568962379
0.20594940590144664,0.20594940590144664
0.13617431503613575,0.13617431503613575
0.036002154882966646,0.036002154882966646
-0.06347916278638749,-0.06347916278638749
-0.16986890529389123,-0.16986890529389123
-0.2693502229632454,-0.2693502229632454
-0.3591597458591901,-0.3591597458591901
-0.44551505633606003,-0.44551505633606003
-0.5201260445880757,-0.5201260445880757
-0.5823018681314219,-0.5823018681314219
-0.6168439923221699,-0.6168439923221699
-0.6071721975487605,-0.6071721975487605
-0.5380879491672645,-0.5380879491672645
-0.38886597266323336,-0.38886597266323336
-0.14776194581181254,-0.14776194581181254
0.20387687845000177,0.20387687845000177
0.6729589249603591,0.6729589249603591
1.256720823784,1.256720823784
1.9123303409243961,1.9123303409243961
2.554123008388493,2.554123008388493
3.04669369934856,3.04669369934856
3.2387479098491183,3.2387479098491183
3.010769890190182,3.010769890190182
2.3323625710838916,2.3323625710838916
1.291262947974748,1.291262947974748
0.07952523136330909,0.07952523136330909
-1.0658916068018935,-1.0658916068018935
-1.9453340886983368,-1.9453340886983368
-2.455175841753777,-2.455175841753777
-2.609924558128328,-2.609924558128328
-2.506298185556084,-2.506298185556084
-2.2769384809295174,-2.2769384809295174
-2.0206359194341674,-2.0206359194341674
-1.7940395847428607,-1.7940395847428607
-1.5957677918879674,-1.5957677918879674
-1.4196029585151528,-1.4196029585151528
-1.2531099199157474,-1.2531099199157474
-1.1031971009279011,-1.1031971009279011
-0.9857538786793582,-0.9857538786793582
-0.9097612054597126,-0.9097612054597126
-0.8842000335585591,-0.8842000335585591
-0.884890876042374,-0.884890876042374
-0.9132154178787875,-0.9132154178787875
-0.9277231100389015,-0.9277231100389015
-0.9456850146180905,-0.9456850146180905
-0.9387765897799409,-0.9387765897799409
-0.9263414250712716,-0.9263414250712716
-0.904234465589193,-0.904234465589193
-0.8745282387851497,-0.8745282387851497
-0.8496579093678112,-0.8496579093678112
-0.8164974701446931,-0.8164974701446931
-0.7909362982435396,-0.7909362982435396
-0.7584667015042366,-0.7584667015042366
-0.7308330021516382,-0.7308330021516382
-0.6956000354770753,-0.6956000354770753
-0.6603670688025124,-0.6603670688025124
-0.6175348348059849,-0.6175348348059849
-0.5760842857770874,-0.5760842857770874
-0.5353245792320047,-0.5353245792320047
-0.5014732975250717,-0.5014732975250717
-0.47176707072102847,-0.47176707072102847
-0.4427516864008002,-0.4427516864008002
-0.4082095622100522,-0.4082095622100522
-0.3633048007620799,-0.3633048007620799
-0.30458318963780834,-0.30458318963780834
-0.2334264138048675,-0.2334264138048675
-0.15467037064996214,-0.15467037064996214
-0.071769272592167,-0.071769272592167
0.01113182546562811,0.01113182546562811
0.09334208103960827,0.09334208103960827
0.17209812419451362,0.17209812419451362
0.24947248238178907,0.24947248238178907
0.32408347063380466,0.32408347063380466
0.3966219314343754,0.3966219314343754
0.4650153373320564,0.4650153373320564
0.5251186334239578,0.5251186334239578
0.5720959223233751,0.5720959223233751
0.6018021491274184,0.6018021491274184
0.6142373138360876,0.6142373138360876
0.6114739439008278,0.6114739439008278
0.6011113066436033,0.6011113066436033
0.5886761419349341,0.5886761419349341
0.5817677170967845,0.5817677170967845
0.5783135046777097,0.5783135046777097
0.5803860321291546,0.5803860321291546
0.5817677170967845,0.5817677170967845
0.5845310870320444,0.5845310870320444
0.5845310870320444,0.5845310870320444
0.5866036144834892,0.5866036144834892
0.5859127719996743,0.5859127719996743
0.5838402445482294,0.5838402445482294
0.5762409772262649,0.5762409772262649
0.5617332850661507,0.5617332850661507
0.5389354831002571,0.5389354831002571
0.5106109412638438,0.5106109412638438
0.47883218700835556,0.47883218700835556
0.4435992203337927,0.4435992203337927
0.40491204124015495,0.40491204124015495
0.3593164373083676,0.3593164373083676
0.3033581961193559,0.3033581961193559
0.23496479022167494,0.23496479022167494
0.15759043203439949,0.15759043203439949
0.07676186142804925,0.07676186142804925
0.0014600306922186793,0.0014600306922186793
-0.06417000527020246,-0.06417000527020246
-0.11598319155632442,-0.11598319155632442
-0.1553612131337771,-0.1553612131337771
-0.1857582824216353,-0.1857582824216353
-0.2113194543227888,-0.2113194543227888
-0.23273557132105255,-0.23273557132105255
-0.2506974759002415,-0.2506974759002415
-0.2645143255765407,-0.2645143255765407
-0.27694949028520993,-0.27694949028520993
-0.28593044257480443,-0.28593044257480443
-0.292838867412954,-0.292838867412954
-0.2949113948643989,-0.2949113948643989
-0.29352970989676896,-0.29352970989676896
-0.28731212754243435,-0.28731212754243435
-0.27833117525283985,-0.27833117525283985
-0.2679685379956155,-0.2679685379956155
-0.25622421577076115,-0.25622421577076115
-0.2382623111915722,-0.2382623111915722
-0.21201029680660377,-0.21201029680660377
-0.17677733013204083,-0.17677733013204083
-0.13601762358695824,-0.13601762358695824
-0.09733044449332051,-0.09733044449332051
-0.06347916278638749,-0.06347916278638749
-0.037227148401419045,-0.037227148401419045
-0.015120188919340345,-0.015120188919340345
0.004223400627478517,0.004223400627478517
0.023566990174297378,0.023566990174297378
0.03738383985059657,0.03738383985059657
0.04429226468874616,0.04429226468874616
0.04152889475348632,0.04152889475348632
0.03323878494770681,0.03323878494770681
0.018731092787592662,0.018731092787592662
0.002150873176033639,0.002150873176033639
-0.01857440133841514,-0.01857440133841514
-0.039299675852863925,-0.039299675852863925
-0.05933410788349774,-0.05933410788349774
-0.07384180004361189,-0.07384180004361189
-0.08420443730083628,-0.08420443730083628
-0.09387623207424571,-0.09387623207424571
-0.10631139678291499,-0.10631139678291499
-0.13049088371643855,-0.13049088371643855
-0.15397952816614718,-0.15397952816614718
-0.1843765974540054,-0.1843765974540054
-0.2044110294846392,-0.2044110294846392
-0.23273557132105255,-0.23273557132105255
-0.26865938047943044,-0.26865938047943044
-0.3197817242817374,-0.3197817242817374
-0.3964652399851979,-0.3964652399851979
-0.4710762282372135,-0.4710762282372135
-0.5519047988435638,-0.5519047988435638
-0.6009546151944258,-0.6009546151944258
-0.6361875818689888,-0.6361875818689888
-0.6430960067071384,-0.6430960067071384
-0.6389509518042487,-0.6389509518042487
-0.6126989374192802,-0.6126989374192802
-0.5588132236817134,-0.5588132236817134
-0.43653410404646553,-0.43653410404646553
-0.20372018700082425,-0.20372018700082425
0.19835013857948208,0.19835013857948208
0.7910929896927172,0.7910929896927172
1.556546461759692,1.556546461759692
2.393156709659608,2.393156709659608
3.138575749695949,3.138575749695949
3.585550836724228,3.585550836724228
3.568279774628854,3.568279774628854
3.005933992803477,3.005933992803477
1.9689794245972227,1.9689794245972227
0.6529244929297253,0.6529244929297253
-0.6686571786082919,-0.6686571786082919
-1.7491348232948885,-1.7491348232948885
-2.432378039787883,-2.432378039787883
-2.7011157659919025,-2.7011157659919025
-2.641703312383816,-2.641703312383816
-2.397835915597135,-2.397835915597135
-2.092483537750923,-2.092483537750923
-1.8078564344191599,-1.8078564344191599
-1.5660615650839242,-1.5660615650839242
-1.3705531421642905,-1.3705531421642905
-1.206823473500145,-1.206823473500145
-1.0810901414458225,-1.0810901414458225
-0.9857538786793582,-0.9857538786793582
-0.9297956374903464,-0.9297956374903464
-0.8966351982672284,-0.8966351982672284
-0.8793641361718544,-0.8793641361718544
-0.8683106564308151,-0.8683106564308151
-0.8496579093678112,-0.8496579093678112
-0.8330776897562522,-0.8330776897562522
-0.8047531479198388,-0.8047531479198388
-0.783337030921575,-0.783337030921575
-0.7557033315689767,-0.7557033315689767
-0.7315238446354531,-0.7315238446354531
-0.7087260426695594,-0.7087260426695594
-0.684546555736036,-0.684546555736036
-0.6617487537701423,-0.6617487537701423
-0.633424211933729,-0.633424211933729
-0.6037179851296857,-0.6037179851296857
-0.5733209158418275,-0.5733209158418275
-0.546378058973044,-0.546378058973044
-0.5263436269424102,-0.5263436269424102
-0.5132176197499261,-0.5132176197499261
-0.5049275099441465,-0.5049275099441465
-0.4952557151707371,-0.4952557151707371
-0.47867549555917804,-0.47867549555917804
-0.45311432365802456,-0.45311432365802456
-0.41580882953201675,-0.41580882953201675
-0.3709040680840444,-0.3709040680840444
-0.3197817242817374,-0.3197817242817374
-0.2645143255765407,-0.2645143255765407
-0.20233850203319434,-0.20233850203319434
-0.13256341116788345,-0.13256341116788345
-0.05449821049679302,-0.05449821049679302
0.029784572528632012,0.029784572528632012
0.11959409542457672,0.11959409542457672
0.20940361832052143,0.20940361832052143
0.2985222987326512,0.2985222987326512
0.3828050817580762,0.3828050817580762
0.4608702824291666,0.4608702824291666
0.5278820033592176,0.5278820033592176
0.5817677170967845,0.5817677170967845
0.6197640537066073,0.6197640537066073
0.6446343831239458,0.6446343831239458
0.6612146027355048,0.6612146027355048
0.6777948223470639,0.6777948223470639
0.6971384118938827,0.6971384118938827
0.7226995837950363,0.7226995837950363
0.7524058105990795,0.7524058105990795
0.7848754073383827,0.7848754073383827
0.8166541615938708,0.8166541615938708
0.847051230881729,0.847051230881729
0.8753757727181424,0.8753757727181424
0.9016277871031108,0.9016277871031108
0.9230439041013745,0.9230439041013745
0.9396241237129336,0.9396241237129336
0.948605076002528,0.948605076002528
0.9527501309054177,0.9527501309054177
0.9534409733892327,0.9534409733892327
0.9506776034539729,0.9506776034539729
0.9430783361320083,0.9430783361320083
0.9237347465851895,0.9237347465851895
0.8885017799106265,0.8885017799106265
0.8311618537539849,0.8311618537539849
0.7572417079857843,0.7572417079857843
0.6715772399927292,0.6715772399927292
0.5893669844187491,0.5893669844187491
0.5126834687152886,0.5126834687152886
0.4511984876557572,0.4511984876557572
0.3952402464667455,0.3952402464667455
0.3482629575673283,0.3482629575673283
0.2985222987326512,0.2985222987326512
0.25154500983323397,0.25154500983323397
0.2011135085147419,0.2011135085147419
0.1555179045829546,0.1555179045829546
0.11199482810261217,0.11199482810261217
0.07883438887949414,0.07883438887949414
0.05396405946215559,0.05396405946215559
0.04221973723730128,0.04221973723730128
0.03876552481822648,0.03876552481822648
0.04429226468874616,0.04429226468874616
0.0505098470430808,0.0505098470430808
0.06087248430030519,0.06087248430030519
0.07054427907371462,0.07054427907371462
0.08367028626619885,0.08367028626619885
0.09886882091012794,0.09886882091012794
0.11683072548931689,0.11683072548931689
0.13341094510087592,0.13341094510087592
0.14930032222861997,0.14930032222861997
0.1624263294211042,0.1624263294211042
0.17347980916214356,0.17347980916214356
0.18038823400029314,0.18038823400029314
0.18038823400029314,0.18038823400029314
0.17209812419451362,0.17209812419451362
0.15275453464769478,0.15275453464769478
0.12581167777891136,0.12581167777891136
0.09403292352342323,0.09403292352342323
0.0657083816870099,0.0657083816870099
0.045673949656376084,0.045673949656376084
0.0366929973667816,0.0366929973667816
0.03531131239915169,0.03531131239915169
0.03392962743152177,0.03392962743152177
0.02218530520666746,0.02218530520666746
-0.01028429153263563,-0.01028429153263563
-0.05242568304534814,-0.05242568304534814
-0.10700223926672994,-0.10700223926672994
-0.14016267848984798,-0.14016267848984798
-0.174013960196781,-0.174013960196781
-0.18161322751874556,-0.18161322751874556
-0.20579271445226913,-0.20579271445226913
-0.2368806262239423,-0.2368806262239423
-0.29560223734821384,-0.29560223734821384
-0.37228575305167433,-0.37228575305167433
-0.44551505633606003,-0.44551505633606003
-0.5125267772661111,-0.5125267772661111
-0.5512139563597488,-0.5512139563597488
-0.5719392308741976,-0.5719392308741976
-0.5664124910036779,-0.5664124910036779
-0.5408513191025244,-0.5408513191025244
-0.47867549555917804,-0.47867549555917804
-0.35639637592393025,-0.35639637592393025
-0.13256341116788345,-0.13256341116788345
0.23289226277023006,0.23289226277023006
0.7676043452430087,0.7676043452430087
1.4598285140255978,1.4598285140255978
2.234953780865982,2.234953780865982
2.952739121549725,2.952739121549725
3.429420435382047,3.429420435382047
3.4909054164415787,3.4909054164415787
3.0425486444456697,3.0425486444456697
2.1154380311659944,2.1154380311659944
0.8753757727181424,0.8753757727181424
-0.4254806243054262,-0.4254806243054262
-1.5294469134417312,-1.5294469134417312
-2.2686483711237377,-2.2686483711237377
-2.5947260234843985,-2.5947260234843985
-2.5809091738080996,-2.5809091738080996
-2.3556945240844227,-2.3556945240844227
-2.0496513037543957,-2.0496513037543957
-1.7456806108758136,-1.7456806108758136
-1.481778782058499,-1.481778782058499
-1.258636659786267,-1.258636659786267
-1.0797084564781927,-1.0797084564781927
-0.9443033296504606,-0.9443033296504606
-0.8607113891088505,-0.8607113891088505
-0.8240967374666577,-0.8240967374666577
-0.8213333675313979,-0.8213333675313979
-0.8399861145944018,-0.8399861145944018
-0.8565663342059607,-0.8565663342059607
-0.8814366636232993,-0.8814366636232993
-0.8945626708157836,-0.8945626708157836
-0.9159787878140473,-0.9159787878140473
-0.9256505825874567,-0.9256505825874567
-0.9242688976198268,-0.9242688976198268
-0.9090703629758977,-0.9090703629758977
-0.8669289714631851,-0.8669289714631851
-0.8247875799504726,-0.8247875799504726
-0.7729743936643507,-0.7729743936643507
-0.7370505845059728,-0.7370505845059728
-0.7045809877666698,-0.7045809877666698
-0.6873099256712958,-0.6873099256712958
-0.6714205485435517,-0.6714205485435517
-0.6631304387377722,-0.6631304387377722
-0.6513861165129179,-0.6513861165129179
-0.6403326367718786,-0.6403326367718786
-0.6216798897088747,-0.6216798897088747
-0.5954278753239062,-0.5954278753239062
-0.5574315387140835,-0.5574315387140835
-0.5118359347822962,-0.5118359347822962
-0.462786118431434,-0.462786118431434
-0.41442714456438684,-0.41442714456438684
-0.36675901318115467,-0.36675901318115467
-0.31563666937884766,-0.31563666937884766
-0.25484253080313124,-0.25484253080313124
-0.17815901509967075,-0.17815901509967075
-0.08489527978465124,-0.08489527978465124
0.02218530520666746,0.02218530520666746
0.13410178758469088,0.13410178758469088
0.24463658499508437,0.24463658499508437
0.3475721150835133,0.3475721150835133
0.4435992203337927,0.4435992203337927
0.5292636883268476,0.5292636883268476
0.6059472040303081,0.6059472040303081
0.6695047125412844,0.6695047125412844
0.7178636864083315,0.7178636864083315
0.746188228244745,0.746188228244745
0.7551691805343393,0.7551691805343393
0.7489515981800048,0.7489515981800048
0.7372072759551505,0.7372072759551505
0.7296080086331859,0.7296080086331859
0.7365164334713354,0.7365164334713354
0.7606959204048591,0.7606959204048591
0.8000739419823117,0.8000739419823117
0.847742073365544,0.847742073365544
0.8940285197811462,0.8940285197811462
0.9327156988747839,0.9327156988747839
0.9617310831950122,0.9617310831950122
0.982456357709461,0.982456357709461
0.99903657732102,0.99903657732102
1.0114717420296893,1.0114717420296893
1.0163076394163941,1.0163076394163941
1.0059450021591696,1.0059450021591696
0.9734754054198665,0.9734754054198665
0.9161354792632249,0.9161354792632249
0.8366885936245047,0.8366885936245047
0.7406614883742253,0.7406614883742253
0.6425618556725009,0.6425618556725009
0.5492981203574814,0.5492981203574814
0.471923762170206,0.471923762170206
0.41112962359448957,0.41112962359448957
0.36760654711414714,0.36760654711414714
0.3323735804395842,0.3323735804395842
0.2999039837002811,0.2999039837002811
0.26467101702571816,0.26467101702571816
0.2252929954482655,0.2252929954482655
0.18384244641936795,0.18384244641936795
0.14446442484191527,0.14446442484191527
0.10784977319972242,0.10784977319972242
0.07814354639567916,0.07814354639567916
0.053273216978340636,0.053273216978340636
0.03462046991533673,0.03462046991533673
0.0214944627228525,0.0214944627228525
0.016658565336147783,0.016658565336147783
0.019421935271407623,0.019421935271407623
0.03185709998007689,0.03185709998007689
0.0505098470430808,0.0505098470430808
0.07607101894423429,0.07607101894423429
0.10439556078064761,0.10439556078064761
0.13202926013324598,0.13202926013324598
0.1555179045829546,0.1555179045829546
0.17140728171069866,0.17140728171069866
0.17831570654884826,0.17831570654884826
0.1776248640650333,0.1776248640650333
0.17347980916214356,0.17347980916214356
0.16864391177543883,0.16864391177543883
0.1644988568725491,0.1644988568725491
0.16035380196965932,0.16035380196965932
0.1555179045829546,0.1555179045829546
0.14653695229336014,0.14653695229336014
0.1354834725523208,0.1354834725523208
0.1251208352950964,0.1251208352950964
0.12097578039220665,0.12097578039220665
0.12097578039220665,0.12097578039220665
0.1182124104569468,0.1182124104569468
0.10232303332920274,0.10232303332920274
0.0657083816870099,0.0657083816870099
0.01113182546562811,0.01113182546562811
-0.05311652552916311,-0.05311652552916311
-0.10631139678291499,-0.10631139678291499
-0.1484527882956275,-0.1484527882956275
-0.17539564516441092,-0.17539564516441092
-0.20579271445226913,-0.20579271445226913
-0.25138831838405645,-0.25138831838405645
-0.3087282445406981,-0.3087282445406981
-0.3805758628574538,-0.3805758628574538
-0.43307989162739075,-0.43307989162739075
-0.47038538575339855,-0.47038538575339855
-0.47522128314010326,-0.47522128314010326
-0.463476960915249,-0.463476960915249
-0.43929747398172536,-0.43929747398172536
-0.4040645073071625,-0.4040645073071625
-0.33912531382855626,-0.33912531382855626
-0.2147736667418636,-0.2147736667418636
0.013204352917072988,0.013204352917072988
0.38487760920952113,0.38487760920952113
0.9237347465851895,0.9237347465851895
1.609741333013444,1.609741333013444
2.368286380242269,2.368286380242269
3.059128864057229,3.059128864057229
3.5074856360531377,3.5074856360531377
3.5427186027277004,3.5427186027277004
3.0784724536040478,3.0784724536040478
2.1458351004538523,2.1458351004538523
0.91544463677941,0.91544463677941
-0.3674498556649696,-0.3674498556649696
-1.450000027803011,-1.450000027803011
-2.1753846358087183,-2.1753846358087183
-2.4959355482988594,-2.4959355482988594
-2.4952447058150447,-2.4952447058150447
-2.296282070476336,-2.296282070476336
-2.030998556691392,-2.030998556691392
-1.771932625260782,-1.771932625260782
-1.55431724285907,-1.55431724285907
-1.3698622996804755,-1.3698622996804755
-1.2151135833059246,-1.2151135833059246
-1.0797084564781927,-1.0797084564781927
-0.9740095564545038,-0.9740095564545038
-0.8938718283319685,-0.8938718283319685
-0.8413677995620317,-0.8413677995620317
-0.8116615727579884,-0.8116615727579884
-0.7888637707920947,-0.7888637707920947
-0.7812645034701302,-0.7812645034701302
-0.7626117564071263,-0.7626117564071263
-0.7598483864718665,-0.7598483864718665
-0.7460315367955672,-0.7460315367955672
-0.7446498518279373,-0.7446498518279373
-0.7411956394088626,-0.7411956394088626
-0.7411956394088626,-0.7411956394088626
-0.7398139544412327,-0.7398139544412327
-0.7280696322163783,-0.7280696322163783
-0.7059626727342997,-0.7059626727342997
-0.665202966189217,-0.665202966189217
-0.6120080949354653,-0.6120080949354653
-0.5512139563597488,-0.5512139563597488
-0.49732824262218195,-0.49732824262218195
-0.46071359097998915,-0.46071359097998915
-0.4475875837875049,-0.4475875837875049
-0.4544960086256545,-0.4544960086256545
-0.4662403308505088,-0.4662403308505088
-0.46900370078576864,-0.46900370078576864
-0.44689674130368995,-0.44689674130368995
-0.39715608246901285,-0.39715608246901285
-0.3211634092493673,-0.3211634092493673
-0.22720883145053286,-0.22720883145053286
-0.12427330136210393,-0.12427330136210393
-0.02133777127367498,-0.02133777127367498
0.07468933397660438,0.07468933397660438
0.1589721170020294,0.1589721170020294
0.22667468041589542,0.22667468041589542
0.2764153392505725,0.2764153392505725
0.3088849359898756,0.3088849359898756
0.32684684056906455,0.32684684056906455
0.3392820052777338,0.3392820052777338
0.3558622248892928,0.3558622248892928
0.38764097914478096,0.38764097914478096
0.44221753536616276,0.44221753536616276
0.5182102085858082,0.5182102085858082
0.607328888997938,0.607328888997938
0.6950658844424379,0.6950658844424379
0.7682951877268236,0.7682951877268236
0.8187266890453156,0.8187266890453156
0.8498146008169888,0.8498146008169888
0.8615589230418431,0.8615589230418431
0.8601772380742132,0.8601772380742132
0.8449787034302841,0.8449787034302841
0.8228717439482054,0.8228717439482054
0.8000739419823117,0.8000739419823117
0.7910929896927172,0.7910929896927172
0.8014556269499417,0.8014556269499417
0.8325435387216148,0.8325435387216148
0.8739940877505123,0.8739940877505123
0.9099178969088902,0.9099178969088902
0.9264981165204493,0.9264981165204493
0.91544463677941,0.91544463677941
0.8795208276210321,0.8795208276210321
0.8249442713996503,0.8249442713996503
0.7586233929534142,0.7586233929534142
0.6833215622175836,0.6833215622175836
0.6059472040303081,0.6059472040303081
0.5306453732944776,0.5306453732944776
0.4622519673967966,0.4622519673967966
0.4000761438534502,0.4000761438534502
0.3461904301158834,0.3461904301158834
0.2929955588621315,0.2929955588621315
0.24118237257600958,0.24118237257600958
0.1845332889031829,0.1845332889031829
0.13272010261706094,0.13272010261706094
0.08367028626619885,0.08367028626619885
0.04843731959163592,0.04843731959163592
0.02080362023903754,0.02080362023903754
0.006295928078923395,0.006295928078923395
-0.0006124967592261986,-0.0006124967592261986
0.005605085595108435,0.005605085595108435
0.019421935271407623,0.019421935271407623
0.04843731959163592,0.04843731959163592
0.08574281371764372,0.08574281371764372
0.13272010261706094,0.13272010261706094
0.17831570654884826,0.17831570654884826
0.22252962551300567,0.22252962551300567
0.25499922225230875,0.25499922225230875
0.2826329216049071,0.2826329216049071
0.3054307235708008,0.3054307235708008
0.3289193680205094,0.3289193680205094
0.3510263275025881,0.3510263275025881
0.369679074565592,0.369679074565592
0.3779691843713715,0.3779691843713715
0.369679074565592,0.369679074565592
0.3448087451482535,0.3448087451482535
0.30957577847369055,0.30957577847369055
0.27088859938005283,0.27088859938005283
0.2356556327054899,0.2356556327054899
0.20733109086907656,0.20733109086907656
0.1879875013222577,0.1879875013222577
0.17831570654884826,0.17831570654884826
0.17693402158121835,0.17693402158121835
0.17900654903266322,0.17900654903266322
0.17969739151647818,0.17969739151647818
0.16311717190491917,0.16311717190491917
0.1354834725523208,0.1354834725523208
0.08297944378238388,0.08297944378238388
0.03323878494770681,0.03323878494770681
-0.03031872356326945,-0.03031872356326945
-0.0821319098493914,-0.0821319098493914
-0.14292604842510784,-0.14292604842510784
-0.21270113929041873,-0.21270113929041873
-0.28869381251006426,-0.28869381251006426
-0.3812667053412688,-0.3812667053412688
-0.4572593785609143,-0.4572593785609143
-0.531179524329115,-0.531179524329115
-0.5747026008094575,-0.5747026008094575
-0.6064813550649455,-0.6064813550649455
-0.6078630400325755,-0.6078630400325755
-0.5850652380666818,-0.5850652380666818
-0.5042366674603316,-0.5042366674603316
-0.3418886837638161,-0.3418886837638161
-0.04828062814245839,-0.04828062814245839
0.40214867130489507,0.40214867130489507
1.017689324384024,1.017689324384024
1.745837302324991,1.745837302324991
2.478130335168848,2.478130335168848
3.044621171897115,3.044621171897115
3.2691449791369767,3.2691449791369767
3.0149149450930715,3.0149149450930715
2.2618966377347656,2.2618966377347656
1.117861484537193,1.117861484537193
-0.19335754974359987,-0.19335754974359987
-1.4120036911931881,-1.4120036911931881
-2.327369982248009,-2.327369982248009
-2.8448110026254136,-2.8448110026254136
-2.991960451678,-2.991960451678
-2.8828073392352365,-2.8828073392352365
-2.6465392097705207,-2.6465392097705207
-2.385400750888466,-2.385400750888466
-2.141533354101785,-2.141533354101785
-1.925990499151518,-1.925990499151518
-1.7277187062966246,-1.7277187062966246
-1.5550080853428847,-1.5550080853428847
-1.4120036911931881,-1.4120036911931881
-1.3166674284267237,-1.3166674284267237
-1.2620908722053419,-1.2620908722053419
-1.242747282658523,-1.242747282658523
-1.2392930702394482,-1.2392930702394482
-1.2344571728527436,-1.2344571728527436
-1.224094535595519,-1.224094535595519
-1.1985333636943656,-1.1985333636943656
-1.1695179793741373,-1.1695179793741373
-1.1335941702157595,-1.1335941702157595
-1.0935253061544918,-1.0935253061544918
-1.0617465518990037,-1.0617465518990037
-1.0278952701920707,-1.0278952701920707
-1.0106242080966967,-1.0106242080966967
-0.9898989335822479,-0.9898989335822479
-0.9795362963250235,-0.9795362963250235
-0.9588110218105748,-0.9588110218105748
-0.9387765897799409,-0.9387765897799409
-0.9063069930406378,-0.9063069930406378
-0.8752190812689646,-0.8752190812689646
-0.8386044296267718,-0.8386044296267718
-0.8047531479198388,-0.8047531479198388
-0.7653751263423861,-0.7653751263423861
-0.7232337348296736,-0.7232337348296736
-0.6728022335111816,-0.6728022335111816
-0.6189165197736148,-0.6189165197736148
-0.5581223811978984,-0.5581223811978984
-0.496637400138367,-0.496637400138367
-0.42962567920831596,-0.42962567920831596
-0.3584689033753751,-0.3584689033753751
-0.27833117525283985,-0.27833117525283985
-0.19197586477596995,-0.19197586477596995
-0.09871212946095043,-0.09871212946095043
-0.005448394145930914,-0.005448394145930914
0.08228860129856892,0.08228860129856892
0.15828127451821444,0.15828127451821444
0.22114794054537573,0.22114794054537573
0.27365196931531266,0.27365196931531266
0.3206292582147299,0.3206292582147299
0.3669157046303322,0.3669157046303322
0.41458383601356436,0.41458383601356436
0.4622519673967966,0.4622519673967966
0.5064658863609539,0.5064658863609539
0.5430805380031468,0.5430805380031468
0.573477607291005,0.573477607291005
0.5969662517407136,0.5969662517407136
0.6183823687389773,0.6183823687389773
0.6377259582857963,0.6377259582857963
0.6577603903164301,0.6577603903164301
0.676413137379434,0.676413137379434
0.6950658844424379,0.6950658844424379
0.7130277890216269,0.7130277890216269
0.7316805360846308,0.7316805360846308
0.7489515981800048,0.7489515981800048
0.763459290340119,0.763459290340119
0.7731310851135283,0.7731310851135283
0.7765852975326031,0.7765852975326031
0.7731310851135283,0.7731310851135283
0.7558600230181544,0.7558600230181544
0.7254629537302961,0.7254629537302961
0.6791765073146938,0.6791765073146938
0.6211457386742372,0.6211457386742372
0.5534431752603712,0.5534431752603712
0.48643145433032015,0.48643145433032015
0.42149226085171393,0.42149226085171393
0.36553401966270227,0.36553401966270227
0.3123391484089504,0.3123391484089504
0.26605270199334813,0.26605270199334813
0.22322046799682063,0.22322046799682063
0.1879875013222577,0.1879875013222577
0.15828127451821444,0.15828127451821444
0.1368651575199507,0.1368651575199507
0.11959409542457672,0.11959409542457672
0.10854061568353737,0.10854061568353737
0.10232303332920274,0.10232303332920274
0.10715893071590746,0.10715893071590746
0.12373915032746648,0.12373915032746648
0.15344537713150974,0.15344537713150974
0.19006002877370257,0.19006002877370257
0.22736552289971038,0.22736552289971038
0.25499922225230875,0.25499922225230875
0.27227028434768275,0.27227028434768275
0.27848786670201736,0.27848786670201736
0.2826329216049071,0.2826329216049071
0.29092303141068665,0.29092303141068665
0.3075032510222457,0.3075032510222457
0.3309918954719543,0.3309918954719543
0.35378969743784794,0.35378969743784794
0.3669157046303322,0.3669157046303322
0.3627706497274424,0.3627706497274424
0.34549958763206845,0.34549958763206845
0.31579336082802517,0.31579336082802517
0.284014606572537,0.284014606572537
0.2543083797684938,0.2543083797684938
0.23358310525404502,0.23358310525404502
0.21907541309393086,0.21907541309393086
0.21493035819104112,0.21493035819104112
0.2183845706101159,0.2183845706101159
0.22805636538352533,0.22805636538352533
0.23427394773785998,0.23427394773785998
0.22460215296445055,0.22460215296445055
0.199731823547112,0.199731823547112
0.15068200719624988,0.15068200719624988
0.10232303332920274,0.10232303332920274
0.04221973723730128,0.04221973723730128
7.834572458876072e-05,7.834572458876072e-05
-0.050353155593903264,-0.050353155593903264
-0.09871212946095043,-0.09871212946095043
-0.16296048045574166,-0.16296048045574166
-0.23895315367538716,-0.23895315367538716
-0.31563666937884766,-0.31563666937884766
-0.3881751301794184,-0.3881751301794184
-0.44344252888461516,-0.44344252888461516
-0.4821297079782529,-0.4821297079782529
-0.5014732975250717,-0.5014732975250717
-0.4980190851059969,-0.4980190851059969
-0.45656853607709935,-0.45656853607709935
-0.344652053699076,-0.344652053699076
-0.11874656149158425,-0.11874656149158425
0.2667435444771631,0.2667435444771631
0.8359977511406896,0.8359977511406896
1.5703633114359912,1.5703633114359912
2.3821032299185685,2.3821032299185685
3.1178504751815006,3.1178504751815006
3.5869325216918577,3.5869325216918577
3.6166387484959013,3.6166387484959013
3.1233772150520203,3.1233772150520203
2.1499801553567424,2.1499801553567424
0.8774483001695872,0.8774483001695872
-0.4386066314979104,-0.4386066314979104
-1.5432637631180306,-1.5432637631180306
-2.276247638445702,-2.276247638445702
-2.5967985509358433,-2.5967985509358433
-2.5864359136786192,-2.5864359136786192
-2.368820531276907,-2.368820531276907
-2.075903318139364,-2.075903318139364
-1.7816044200341914,-1.7816044200341914
-1.5239201735712116,-1.5239201735712116
-1.3000872088151647,-1.3000872088151647
-1.1183956355718303,-1.1183956355718303
-0.9781546113573936,-0.9781546113573936
-0.8917993008805237,-0.8917993008805237
-0.8572571766897757,-0.8572571766897757
-0.8586388616574057,-0.8586388616574057
-0.885581718526189,-0.885581718526189
-0.9014710956539331,-0.9014710956539331
-0.9208146852007519,-0.9208146852007519
-0.9111428904273425,-0.9111428904273425
-0.9069978355244528,-0.9069978355244528
-0.886272561010004,-0.886272561010004
-0.87038318388226,-0.87038318388226
-0.8510395943354411,-0.8510395943354411
-0.8275509498857324,-0.8275509498857324
-0.8095890453065435,-0.8095890453065435
-0.7847187158892049,-0.7847187158892049
-0.7688293387614609,-0.7688293387614609
-0.750176591698457,-0.750176591698457
-0.7377414269897877,-0.7377414269897877
-0.7218520498620437,-0.7218520498620437
-0.7073443577019296,-0.7073443577019296
-0.6873099256712958,-0.6873099256712958
-0.6624395962539572,-0.6624395962539572
-0.6313516844822841,-0.6313516844822841
-0.5940461903562763,-0.5940461903562763
-0.5553590112626385,-0.5553590112626385
-0.5159809896851859,-0.5159809896851859
-0.47867549555917804,-0.47867549555917804
-0.4399883164655403,-0.4399883164655403
-0.3978469249528278,-0.3978469249528278
-0.343961211215261,-0.343961211215261
-0.2776403327690249,-0.2776403327690249
-0.19543007719504474,-0.19543007719504474
-0.10285718436384018,-0.10285718436384018
-0.003375866694486036,-0.003375866694486036
0.09472376600723818,0.09472376600723818
0.1879875013222577,0.1879875013222577
0.2729611268314977,0.2729611268314977
0.35033548501877315,0.35033548501877315
0.41941973340026906,0.41941973340026906
0.4822863994274304,0.4822863994274304
0.540317168067887,0.540317168067887
0.5948937242892688,0.5948937242892688
0.6467069105753906,0.6467069105753906
0.6964475694100678,0.6964475694100678
0.7454973857609299,0.7454973857609299
0.7904021472089023,0.7904021472089023
0.8277076413349101,0.8277076413349101
0.8539596557198785,0.8539596557198785
0.8670856629123628,0.8670856629123628
0.8684673478799927,0.8684673478799927
0.863631450493288,0.863631450493288
0.8574138681389534,0.8574138681389534
0.8560321831713235,0.8560321831713235
0.8560321831713235,0.8560321831713235
0.8553413406875086,0.8553413406875086
0.8505054433008038,0.8505054433008038
0.8415244910112093,0.8415244910112093
0.828398483818725,0.828398483818725
0.8138907916586109,0.8138907916586109
0.7980014145308669,0.7980014145308669
0.778657824984048,0.778657824984048
0.7524058105990795,0.7524058105990795
0.7157911589568867,0.7157911589568867
0.6701955550250993,0.6701955550250993
0.6190732112227924,0.6190732112227924
0.5679508674204853,0.5679508674204853
0.5189010510696233,0.5189010510696233
0.4746871321054658,0.4746871321054658
0.4311640556251234,0.4311640556251234
0.3890226641124109,0.3890226641124109
0.3434270601806235,0.3434270601806235
0.2978314562488362,0.2978314562488362
0.2522358523170489,0.2522358523170489
0.21078530328815134,0.21078530328815134
0.17486149412977348,0.17486149412977348
0.14930032222861997,0.14930032222861997
0.13202926013324598,0.13202926013324598
0.1251208352950964,0.1251208352950964
0.12650252026272632,0.12650252026272632
0.13824684248758062,0.13824684248758062
0.1589721170020294,0.1589721170020294
0.19282339870896242,0.19282339870896242
0.23358310525404502,0.23358310525404502
0.28194207912109215,0.28194207912109215
0.3275376830528795,0.3275376830528795
0.3682973895979621,0.3682973895979621
0.3986944588858203,0.3986944588858203
0.4228739458193439,0.4228739458193439
0.44221753536616276,0.44221753536616276
0.46017943994535165,0.46017943994535165
0.47261460465402094,0.47261460465402094
0.4733054471378359,0.4733054471378359
0.45534354255864695,0.45534354255864695
0.41458383601356436,0.41458383601356436
0.3544805399216629,0.3544805399216629
0.28608713402398195,0.28608713402398195
0.22460215296445055,0.22460215296445055
0.18246076145173803,0.18246076145173803
0.165880541840179,0.165880541840179
0.17140728171069866,0.17140728171069866
0.18522413138699786,0.18522413138699786
0.19558676864422225,0.19558676864422225
0.1879875013222577,0.1879875013222577
0.1644988568725491,0.1644988568725491
0.12235746535983656,0.12235746535983656
0.08159775881475397,0.08159775881475397
0.036002154882966646,0.036002154882966646
-0.003375866694486036,-0.003375866694486036
-0.049662313110088306,-0.049662313110088306
-0.10907476671817481,-0.10907476671817481
-0.17194143274533613,-0.17194143274533613
-0.25277000335168637,-0.25277000335168637
-0.3218542517331823,-0.3218542517331823
-0.39370187004993806,-0.39370187004993806
-0.4427516864008002,-0.4427516864008002
-0.480057180526808,-0.480057180526808
-0.48765644784877255,-0.48765644784877255
-0.462786118431434,-0.462786118431434
-0.377812492922194,-0.377812492922194
-0.21062861183897386,-0.21062861183897386
0.08021607384712405,0.08021607384712405
0.5271911608754027,0.5271911608754027
1.1475677113412364,1.1475677113412364
1.9054219160862464,1.9054219160862464
2.7040358273763396,2.7040358273763396
3.3748438791606654,3.3748438791606654
3.7271735459062945,3.7271735459062945
3.5952226314976374,3.5952226314976374
2.9299413195838317,2.9299413195838317
1.8149215507064869,1.8149215507064869
0.4746871321054658,0.4746871321054658
-0.8192608400799529,-0.8192608400799529
-1.822364126579274,-1.822364126579274
-2.414416135208694,-2.414416135208694
-2.601634448322548,-2.601634448322548
-2.5007714456855643,-2.5007714456855643
-2.2506864665445487,-2.2506864665445487
-1.9688227331480455,-1.9688227331480455
-1.7076842742659908,-1.7076842742659908
-1.483851309509944,-1.483851309509944
-1.2855795166550505,-1.2855795166550505
-1.1204681630232751,-1.1204681630232751
-0.9898989335822479,-0.9898989335822479
-0.9132154178787875,-0.9132154178787875
-0.8821275061071142,-0.8821275061071142
-0.886272561010004,-0.886272561010004
-0.902161938137748,-0.902161938137748
-0.9104520479435276,-0.9104520479435276
-0.9125245753949724,-0.9125245753949724
-0.8959443557834135,-0.8959443557834135
-0.8828183485909292,-0.8828183485909292
-0.8600205466250356,-0.8600205466250356
-0.8427494845296616,-0.8427494845296616
-0.8206425250475828,-0.8206425250475828
-0.7916271407273546,-0.7916271407273546
-0.7598483864718665,-0.7598483864718665
-0.7246154197973035,-0.7246154197973035
-0.6935275080256305,-0.6935275080256305
-0.6700388635759218,-0.6700388635759218
-0.6576036988672526,-0.6576036988672526
-0.6541494864481777,-0.6541494864481777
-0.6534586439643628,-0.6534586439643628
-0.6465502191262132,-0.6465502191262132
-0.6278974720632093,-0.6278974720632093
-0.5975004027753511,-0.5975004027753511
-0.5539773262950086,-0.5539773262950086
-0.5014732975250717,-0.5014732975250717
-0.44344252888461516,-0.44344252888461516
-0.3805758628574538,-0.3805758628574538
-0.3149458268950327,-0.3149458268950327
-0.24586157851353677,-0.24586157851353677
-0.17539564516441092,-0.17539564516441092
-0.10285718436384018,-0.10285718436384018
-0.02824619611182457,-0.02824619611182457
0.049819004559265835,0.049819004559265835
0.12650252026272632,0.12650252026272632
0.19765929609566713,0.19765929609566713
0.25845343467138354,0.25845343467138354
0.3116483059251354,0.3116483059251354
0.3620798072436274,0.3620798072436274
0.4187288909164541,0.4187288909164541
0.4871222968141351,0.4871222968141351
0.5644966550014106,0.5644966550014106
0.641180170704871,0.641180170704871
0.7054285216996622,0.7054285216996622
0.7454973857609299,0.7454973857609299
0.762077605372489,0.762077605372489
0.7606959204048591,0.7606959204048591
0.7558600230181544,0.7558600230181544
0.7579325504695993,0.7579325504695993
0.7745127700811583,0.7745127700811583
0.8007647844661268,0.8007647844661268
0.829780168786355,0.829780168786355
0.8484329158493589,0.8484329158493589
0.8511962857846187,0.8511962857846187
0.8408336485273944,0.8408336485273944
0.8256351138834652,0.8256351138834652
0.8152724766262408,0.8152724766262408
0.8145816341424259,0.8145816341424259
0.8235625864320204,0.8235625864320204
0.8339252236892447,0.8339252236892447
0.8346160661730597,0.8346160661730597
0.8138907916586109,0.8138907916586109
0.7662226602753788,0.7662226602753788
0.6888483020881032,0.6888483020881032
0.5935120393216389,0.5935120393216389
0.48919482426558,0.48919482426558
0.4014578288210801,0.4014578288210801
0.3385911627939188,0.3385911627939188
0.3123391484089504,0.3123391484089504
0.3088849359898756,0.3088849359898756
0.3206292582147299,0.3206292582147299
0.3220109431823598,0.3220109431823598
0.30612156605461577,0.30612156605461577
0.26328933205808824,0.26328933205808824
0.20594940590144664,0.20594940590144664
0.1417010549066554,0.1417010549066554
0.08988786862053347,0.08988786862053347
0.05465490194597055,0.05465490194597055
0.045673949656376084,0.045673949656376084
0.05810911436504535,0.05810911436504535
0.09265123855579331,0.09265123855579331
0.13755600000376567,0.13755600000376567
0.1893691862898876,0.1893691862898876
0.23496479022167494,0.23496479022167494
0.2695069144124229,0.2695069144124229
0.2881596614754268,0.2881596614754268
0.2964497712812063,0.2964497712812063
0.301285668667911,0.301285668667911
0.31302999089276534,0.31302999089276534
0.33168273795576925,0.33168273795576925
0.352408012470218,0.352408012470218
0.3669157046303322,0.3669157046303322
0.3682973895979621,0.3682973895979621
0.3558622248892928,0.3558622248892928
0.33306442292339916,0.33306442292339916
0.3075032510222457,0.3075032510222457
0.2812512366372772,0.2812512366372772
0.25983511963901346,0.25983511963901346
0.24463658499508437,0.24463658499508437
0.2356556327054899,0.2356556327054899
0.23289226277023006,0.23289226277023006
0.22667468041589542,0.22667468041589542
0.21631204315867103,0.21631204315867103
0.18867834380607265,0.18867834380607265
0.16173548693728923,0.16173548693728923
0.12235746535983656,0.12235746535983656
0.1064680882320925,0.1064680882320925
0.08228860129856892,0.08228860129856892
0.07054427907371462,0.07054427907371462
0.03116625749626193,0.03116625749626193
-0.028937038595639532,-0.028937038595639532
-0.11391066410487953,-0.11391066410487953
-0.21408282425804864,-0.21408282425804864
-0.30181981970254845,-0.30181981970254845
-0.3743582805031192,-0.3743582805031192
-0.41442714456438684,-0.41442714456438684
-0.42962567920831596,-0.42962567920831596
-0.4082095622100522,-0.4082095622100522
-0.343961211215261,-0.343961211215261
-0.207865241903714,-0.207865241903714
0.03185709998007689,0.03185709998007689
0.4118204660783045,0.4118204660783045
0.9465325485510832,0.9465325485510832
1.6201039702706683,1.6201039702706683
2.3593054279526746,2.3593054279526746
3.0363310620913353,3.0363310620913353
3.485378676571059,3.485378676571059
3.5454819726629605,3.5454819726629605
3.125449742503465,3.125449742503465
2.2460072606070214,2.2460072606070214
1.053613133542402,1.053613133542402
-0.2182278791609384,-0.2182278791609384
-1.3263392232001332,-1.3263392232001332
-2.095246907686183,-2.095246907686183
-2.4710652188815208,-2.4710652188815208
-2.5118249254266036,-2.5118249254266036
-2.345331886827198,-2.345331886827198
-2.100082805072888,-2.100082805072888
-1.8638146756081717,-1.8638146756081717
-1.6634703553018335,-1.6634703553018335
-1.4969773167024283,-1.4969773167024283
-1.344301127779322,-1.344301127779322
-1.2047509460487003,-1.2047509460487003
-1.0831626688972673,-1.0831626688972673
-0.9947348309689527,-0.9947348309689527
-0.9422308021990157,-0.9422308021990157
-0.9166696302978622,-0.9166696302978622
-0.9132154178787875,-0.9132154178787875
-0.903543623105378,-0.903543623105378
-0.8952535132995985,-0.8952535132995985
-0.87038318388226,-0.87038318388226
-0.8462036969487363,-0.8462036969487363
-0.8234058949828427,-0.8234058949828427
-0.8019897779845789,-0.8019897779845789
-0.800608093016949,-0.800608093016949
-0.7978447230816892,-0.7978447230816892
-0.8109707302741734,-0.8109707302741734
-0.8130432577256184,-0.8130432577256184
-0.8158066276608782,-0.8158066276608782
-0.8061348328874687,-0.8061348328874687
-0.7964630381140593,-0.7964630381140593
-0.7798828185025003,-0.7798828185025003
-0.7688293387614609,-0.7688293387614609
-0.7557033315689767,-0.7557033315689767
-0.7453406943117523,-0.7453406943117523
-0.7301421596678231,-0.7301421596678231
-0.7128710975724492,-0.7128710975724492
-0.6907641380903706,-0.6907641380903706
-0.6665846511568471,-0.6665846511568471
-0.6396417942880636,-0.6396417942880636
-0.6113172524516503,-0.6113172524516503
-0.5774659707447173,-0.5774659707447173
-0.5360154217158197,-0.5360154217158197
-0.48420223542969776,-0.48420223542969776
-0.41926304195109154,-0.41926304195109154
-0.343961211215261,-0.343961211215261
-0.2645143255765407,-0.2645143255765407
-0.1892124948407101,-0.1892124948407101
-0.12496414384591889,-0.12496414384591889
-0.07384180004361189,-0.07384180004361189
-0.033772935982344245,-0.033772935982344245
0.0014600306922186793,0.0014600306922186793
0.03738383985059657,0.03738383985059657
0.07952523136330909,0.07952523136330909
0.1251208352950964,0.1251208352950964
0.17140728171069866,0.17140728171069866
0.2135486732234112,0.2135486732234112
0.2522358523170489,0.2522358523170489
0.2867779765077969,0.2867779765077969
0.3220109431823598,0.3220109431823598
0.35862559482455264,0.35862559482455264
0.4000761438534502,0.4000761438534502
0.44152669288234775,0.44152669288234775
0.48504976936269023,0.48504976936269023
0.5258094759077728,0.5258094759077728
0.5665691824528554,0.5665691824528554
0.6004204641597884,0.6004204641597884
0.6266724785447568,0.6266724785447568
0.6363442733181663,0.6363442733181663
0.6266724785447568,0.6266724785447568
0.5983479367083435,0.5983479367083435
0.5562065451956311,0.5562065451956311
0.5078475713285838,0.5078475713285838
0.46017943994535165,0.46017943994535165
0.41458383601356436,0.41458383601356436
0.369679074565592,0.369679074565592
0.3220109431823598,0.3220109431823598
0.26881607192860796,0.26881607192860796
0.21216698825578129,0.21216698825578129
0.1541362196153247,0.1541362196153247
0.0995596633939429,0.0995596633939429
0.0505098470430808,0.0505098470430808
0.009059298014183231,0.009059298014183231
-0.024791983692749774,-0.024791983692749774
-0.05104399807771823,-0.05104399807771823
-0.0683150601730922,-0.0683150601730922
-0.07660516997887172,-0.07660516997887172
-0.07798685494650164,-0.07798685494650164
-0.07315095755979692,-0.07315095755979692
-0.06417000527020246,-0.06417000527020246
-0.049662313110088306,-0.049662313110088306
-0.02962788107945449,-0.02962788107945449
-0.0006124967592261986,-0.0006124967592261986
0.03392962743152177,0.03392962743152177
0.07261680652515949,0.07261680652515949
0.11130398561879722,0.11130398561879722
0.14653695229336014,0.14653695229336014
0.17831570654884826,0.17831570654884826
0.2080219333528915,0.2080219333528915
0.23427394773785998,0.23427394773785998
0.25499922225230875,0.25499922225230875
0.26605270199334813,0.26605270199334813
0.26190764709045833,0.26190764709045833
0.24325490002745445,0.24325490002745445
0.21078530328815134,0.21078530328815134
0.1762431790974034,0.1762431790974034
0.14239189739047037,0.14239189739047037
0.11683072548931689,0.11683072548931689
0.0995596633939429,0.0995596633939429
0.09403292352342323,0.09403292352342323
0.09196039607197835,0.09196039607197835
0.09057871110434842,0.09057871110434842
0.08021607384712405,0.08021607384712405
0.05879995684886031,0.05879995684886031
0.028402887561002094,0.028402887561002094
-0.008902606565005711,-0.008902606565005711
-0.03653630591760409,-0.03653630591760409
-0.061406635334942616,-0.061406635334942616
-0.07729601246268668,-0.07729601246268668
-0.10562055429910003,-0.10562055429910003
-0.1498344732632574,-0.1498344732632574
-0.2113194543227888,-0.2113194543227888
-0.2900754974776942,-0.2900754974776942
-0.3626139582782649,-0.3626139582782649
-0.4275531517568711,-0.4275531517568711
-0.46900370078576864,-0.46900370078576864
-0.49387403020310716,-0.49387403020310716
-0.5000916125574418,-0.5000916125574418
-0.4855839203973277,-0.4855839203973277
-0.4337707341112057,-0.4337707341112057
-0.3163275118626626,-0.3163275118626626
-0.09111286213898588,-0.09111286213898588
0.28332376408872206,0.28332376408872206
0.8339252236892447,0.8339252236892447
1.5461838245024677,1.5461838245024677
2.3461794207601905,2.3461794207601905
3.091598460796532,3.091598460796532
3.600749371368157,3.600749371368157
3.6933222641993617,3.6933222641993617
3.2719083490722363,3.2719083490722363
2.357923742985045,2.357923742985045
1.117170642053378,1.117170642053378
-0.20095681706556442,-0.20095681706556442
-1.3318659630706529,-1.3318659630706529
-2.1021553325243327,-2.1021553325243327
-2.455175841753777,-2.455175841753777
-2.4648476365271863,-2.4648476365271863
-2.2527589939959936,-2.2527589939959936
-1.959150938374636,-1.959150938374636
-1.6641611977856483,-1.6641611977856483
-1.414076218644633,-1.414076218644633
-1.2054417885325153,-1.2054417885325153
-1.0437846473198147,-1.0437846473198147
-0.921505527684567,-0.921505527684567
-0.8462036969487363,-0.8462036969487363
-0.8047531479198388,-0.8047531479198388
-0.7902454557597246,-0.7902454557597246
-0.7888637707920947,-0.7888637707920947
-0.7791919760186853,-0.7791919760186853
-0.7729743936643507,-0.7729743936643507
-0.748794906730827,-0.748794906730827
-0.7398139544412327,-0.7398139544412327
-0.7211612073782288,-0.7211612073782288
-0.7156344675077091,-0.7156344675077091
-0.7066535152181147,-0.7066535152181147
-0.6990542478961501,-0.6990542478961501
-0.6880007681551108,-0.6880007681551108
-0.667275493640662,-0.667275493640662
-0.6444776916747683,-0.6444776916747683
-0.6189165197736148,-0.6189165197736148
-0.5995729302267959,-0.5995729302267959
-0.5885194504857566,-0.5885194504857566
-0.5878286080019417,-0.5878286080019417
-0.5940461903562763,-0.5940461903562763
-0.5995729302267959,-0.5995729302267959
-0.5975004027753511,-0.5975004027753511
-0.5829927106152369,-0.5829927106152369
-0.5588132236817134,-0.5588132236817134
-0.5249619419747803,-0.5249619419747803
-0.4848930779135127,-0.4848930779135127
-0.43929747398172536,-0.43929747398172536
-0.3902476576308633,-0.3902476576308633
-0.3322168889904067,-0.3322168889904067
-0.2645143255765407,-0.2645143255765407
-0.18713996738926522,-0.18713996738926522
-0.10354802684765514,-0.10354802684765514
-0.01857440133841514,-0.01857440133841514
0.0622541692679351,0.0622541692679351
0.13341094510087592,0.13341094510087592
0.19213255622514747,0.19213255622514747
0.2425640575436395,0.2425640575436395
0.2867779765077969,0.2867779765077969
0.3289193680205094,0.3289193680205094
0.36898823208177706,0.36898823208177706
0.40629372620778487,0.40629372620778487
0.4394541654309029,0.4394541654309029
0.46570617981587137,0.46570617981587137
0.488503981781765,0.488503981781765
0.5078475713285838,0.5078475713285838
0.5299545308106626,0.5299545308106626
0.5520614902927413,0.5520614902927413
0.5755501347424499,0.5755501347424499
0.5976570942245286,0.5976570942245286
0.6190732112227924,0.6190732112227924
0.6370351158019812,0.6370351158019812
0.6543061778973552,0.6543061778973552
0.6715772399927292,0.6715772399927292
0.6888483020881032,0.6888483020881032
0.7040468367320323,0.7040468367320323
0.7144094739892568,0.7144094739892568
0.7130277890216269,0.7130277890216269
0.6957567269262528,0.6957567269262528
0.6605237602516899,0.6605237602516899
0.609401416449383,0.609401416449383
0.5479164353898515,0.5479164353898515
0.48504976936269023,0.48504976936269023
0.42563731575460373,0.42563731575460373
0.3731332869846668,0.3731332869846668
0.3261559980852496,0.3261559980852496
0.28056039415346223,0.28056039415346223
0.2356556327054899,0.2356556327054899
0.18867834380607265,0.18867834380607265
0.1437735823581003,0.1437735823581003
0.10094134836157281,0.10094134836157281
0.06778090913845478,0.06778090913845478
0.04152889475348632,0.04152889475348632
0.029784572528632012,0.029784572528632012
0.025639517625742257,0.025639517625742257
0.029784572528632012,0.029784572528632012
0.03185709998007689,0.03185709998007689
0.03254794246389185,0.03254794246389185
0.027021202593372175,0.027021202593372175
0.025639517625742257,0.025639517625742257
0.030475415012446973,0.030475415012446973
0.051891532010710714,0.051891532010710714
0.08228860129856892,0.08228860129856892
0.12097578039220665,0.12097578039220665
0.15689958955058453,0.15689958955058453
0.18867834380607265,0.18867834380607265
0.2135486732234112,0.2135486732234112
0.23841900264074972,0.23841900264074972
0.26121680460664337,0.26121680460664337
0.2812512366372772,0.2812512366372772
0.2929955588621315,0.2929955588621315
0.2916138738945016,0.2916138738945016
0.2791787091858323,0.2791787091858323
0.25983511963901346,0.25983511963901346
0.2404915300921946,0.2404915300921946
0.22667468041589542,0.22667468041589542
0.21907541309393086,0.21907541309393086
0.21631204315867103,0.21631204315867103
0.21216698825578129,0.21216698825578129
0.20249519348237185,0.20249519348237185
0.1810790764841081,0.1810790764841081
0.15068200719624988,0.15068200719624988
0.10715893071590746,0.10715893071590746
0.06778090913845478,0.06778090913845478
0.027712045077187133,0.027712045077187133
0.01182266794944307,0.01182266794944307
-0.005448394145930914,-0.005448394145930914
-0.013047661467895467,-0.013047661467895467
-0.03860883336904896,-0.03860883336904896
-0.0855861222684662,-0.0855861222684662
-0.14776194581181254,-0.14776194581181254
-0.22928135890197773,-0.22928135890197773
-0.292838867412954,-0.292838867412954
-0.3536330059886704,-0.3536330059886704
-0.38403007527652866,-0.38403007527652866
-0.40613703475860735,-0.40613703475860735
-0.4033736648233475,-0.4033736648233475
-0.3812667053412688,-0.3812667053412688
-0.3066557170892532,-0.3066557170892532
-0.15121615823088735,-0.15121615823088735
0.13617431503613575,0.13617431503613575
0.590057826902564,0.590057826902564
1.222178699593252,1.222178699593252
1.9869413291764118,1.9869413291764118
2.7738109182416504,2.7738109182416504
3.4086951608675986,3.4086951608675986
3.701612374005141,3.701612374005141
3.502649738666433,3.502649738666433
2.7745017607254656,2.7745017607254656
1.6201039702706683,1.6201039702706683
0.2653618595095331,0.2653618595095331
-1.0175326329348462,-1.0175326329348462
-1.9964564325006438,-1.9964564325006438
-2.553966316939316,-2.553966316939316
-2.7045699784109773,-2.7045699784109773
-2.5608747417774658,-2.5608747417774658
-2.265194158704663,-2.265194158704663
-1.9342806089572975,-1.9342806089572975
-1.6323824435301602,-1.6323824435301602
-1.380915779421515,-1.380915779421515
-1.176426404212287,-1.176426404212287
-1.020986845353921,-1.020986845353921
-0.9083795204920827,-0.9083795204920827
-0.8427494845296616,-0.8427494845296616
-0.8088982028227285,-0.8088982028227285
-0.7978447230816892,-0.7978447230816892
-0.7943905106626145,-0.7943905106626145
-0.7881729283082798,-0.7881729283082798
-0.7867912433406499,-0.7867912433406499
-0.7819553459539451,-0.7819553459539451
-0.7867912433406499,-0.7867912433406499
-0.7895546132759097,-0.7895546132759097
-0.7902454557597246,-0.7902454557597246
-0.7874820858244648,-0.7874820858244648
-0.7722835511805357,-0.7722835511805357
-0.7557033315689767,-0.7557033315689767
-0.7301421596678231,-0.7301421596678231
-0.7059626727342997,-0.7059626727342997
-0.6755656034464415,-0.6755656034464415
-0.6465502191262132,-0.6465502191262132
-0.6133897799030952,-0.6133897799030952
-0.580920183163792,-0.580920183163792
-0.5456872164892291,-0.5456872164892291
-0.5083817223632213,-0.5083817223632213
-0.4662403308505088,-0.4662403308505088
-0.4199538844349065,-0.4199538844349065
-0.36675901318115467,-0.36675901318115467
-0.3114916144759579,-0.3114916144759579
-0.2541516883193163,-0.2541516883193163
-0.19681176216267465,-0.19681176216267465
-0.1367084660707732,-0.1367084660707732
-0.07246011507598196,-0.07246011507598196
0.00076918820840372,0.00076918820840372
0.08021607384712405,0.08021607384712405
0.165880541840179,0.165880541840179
0.2473999549303442,0.2473999549303442
0.3199384157309149,0.3199384157309149
0.3793508693390014,0.3793508693390014
0.42840068568986356,0.42840068568986356
0.471232919686391,0.471232919686391
0.5147559961667335,0.5147559961667335
0.5610424425823357,0.5610424425823357
0.609401416449383,0.609401416449383
0.6515428079620954,0.6515428079620954
0.6819398772499536,0.6819398772499536
0.6999017818291425,0.6999017818291425
0.7123369465378119,0.7123369465378119
0.7261537962141111,0.7261537962141111
0.7482607556961898,0.7482607556961898
0.778657824984048,0.778657824984048
0.8173450040776857,0.8173450040776857
0.8553413406875086,0.8553413406875086
0.8878109374268116,0.8878109374268116
0.9085362119412603,0.9085362119412603
0.91544463677941,0.91544463677941
0.9057728420060005,0.9057728420060005
0.8795208276210321,0.8795208276210321
0.8429061759788392,0.8429061759788392
0.8000739419823117,0.8000739419823117
0.7606959204048591,0.7606959204048591
0.727535481181741,0.727535481181741
0.7005926243129575,0.7005926243129575
0.6736497674441742,0.6736497674441742
0.6432526981563159,0.6432526981563159
0.6018021491274184,0.6018021491274184
0.5548248602280011,0.5548248602280011
0.4981757765551744,0.4981757765551744
0.4387633229470879,0.4387633229470879
0.37106075953322193,0.37106075953322193
0.29714061376502127,0.29714061376502127
0.21285783073959624,0.21285783073959624
0.1285750477141712,0.1285750477141712
0.04912816207545088,0.04912816207545088
-0.010975134016450588,-0.010975134016450588
-0.050353155593903264,-0.050353155593903264
-0.06693337520546229,-0.06693337520546229
-0.07107843010835205,-0.07107843010835205
-0.0683150601730922,-0.0683150601730922
-0.0683150601730922,-0.0683150601730922
-0.06762421768927725,-0.06762421768927725
-0.06347916278638749,-0.06347916278638749
-0.04689894317482847,-0.04689894317482847
-0.014429346435525386,-0.014429346435525386
0.03392962743152177,0.03392962743152177
0.08850618365290355,0.08850618365290355
0.1417010549066554,0.1417010549066554
0.1845332889031829,0.1845332889031829
0.21769372812630094,0.21769372812630094
0.2425640575436395,0.2425640575436395
0.26121680460664337,0.26121680460664337
0.27227028434768275,0.27227028434768275
0.2695069144124229,0.2695069144124229
0.25016332486560405,0.25016332486560405
0.21562120067485607,0.21562120067485607
0.1762431790974034,0.1762431790974034
0.14308273987428535,0.14308273987428535
0.12788420523035623,0.12788420523035623
0.13133841764943102,0.13133841764943102
0.14930032222861997,0.14930032222861997
0.17140728171069866,0.17140728171069866
0.19144171374133248,0.19144171374133248
0.20249519348237185,0.20249519348237185
0.2011135085147419,0.2011135085147419
0.18867834380607265,0.18867834380607265
0.16104464445347427,0.16104464445347427
0.13064757516561606,0.13064757516561606
0.08228860129856892,0.08228860129856892
0.04152889475348632,0.04152889475348632
-0.01857440133841514,-0.01857440133841514
-0.07315095755979692,-0.07315095755979692
-0.14154436345747792,-0.14154436345747792
-0.2044110294846392,-0.2044110294846392
-0.258296743222206,-0.258296743222206
-0.2976747647996587,-0.2976747647996587
-0.31563666937884766,-0.31563666937884766
-0.32254509421699723,-0.32254509421699723
-0.3211634092493673,-0.3211634092493673
-0.31701835434647757,-0.31701835434647757
-0.30181981970254845,-0.30181981970254845
-0.2541516883193163,-0.2541516883193163
-0.14016267848984798,-0.14016267848984798
0.08643365620145868,0.08643365620145868
0.46432449484824145,0.46432449484824145
1.014925954448764,1.014925954448764
1.712676863101873,1.712676863101873
2.476748650201218,2.476748650201218
3.1655186065647327,3.1655186065647327
3.601440213851972,3.601440213851972
3.6249288583016805,3.6249288583016805
3.1530834418560634,3.1530834418560634
2.224591143608758,2.224591143608758
1.00041826228865,1.00041826228865
-0.27694949028520993,-0.27694949028520993
-1.3691714571966607,-1.3691714571966607
-2.1111362848139272,-2.1111362848139272
-2.4627751090757415,-2.4627751090757415
-2.4890271234607098,-2.4890271234607098
-2.31907987244223,-2.31907987244223
-2.0710674207526596,-2.0710674207526596
-1.8272000239659787,-1.8272000239659787
-1.6088937990804517,-1.6088937990804517
-1.4189121160313378,-1.4189121160313378
-1.2441289676261529,-1.2441289676261529
-1.0935253061544918,-1.0935253061544918
-0.9760820839059487,-0.9760820839059487
-0.9014710956539331,-0.9014710956539331
-0.8752190812689646,-0.8752190812689646
-0.8738373963013347,-0.8738373963013347
-0.9000894106863032,-0.9000894106863032
-0.9125245753949724,-0.9125245753949724
-0.9277231100389015,-0.9277231100389015
-0.9069978355244528,-0.9069978355244528
-0.8745282387851497,-0.8745282387851497
-0.8171883126285081,-0.8171883126285081
-0.7570850165366066,-0.7570850165366066
-0.7107985701210043,-0.7107985701210043
-0.6810923433169611,-0.6810923433169611
-0.6810923433169611,-0.6810923433169611
-0.6873099256712958,-0.6873099256712958
-0.6983634054123351,-0.6983634054123351
-0.6956000354770753,-0.6956000354770753
-0.685237398219851,-0.685237398219851
-0.667275493640662,-0.667275493640662
-0.6534586439643628,-0.6534586439643628
-0.6389509518042487,-0.6389509518042487
-0.6175348348059849,-0.6175348348059849
-0.5760842857770874,-0.5760842857770874
-0.5125267772661111,-0.5125267772661111
-0.4323890491435758,-0.4323890491435758
-0.3474154236343358,-0.3474154236343358
-0.27004106544706036,-0.27004106544706036
-0.20164765954937938,-0.20164765954937938
-0.13878099352221807,-0.13878099352221807
-0.07384180004361189,-0.07384180004361189
-0.0026850242106710768,-0.0026850242106710768
0.07468933397660438,0.07468933397660438
0.15275453464769478,0.15275453464769478
0.22805636538352533,0.22805636538352533
0.29714061376502127,0.29714061376502127
0.36553401966270227,0.36553401966270227
0.4311640556251234,0.4311640556251234
0.4933398791684697,0.4933398791684697
0.5451530654545916,0.5451530654545916
0.5838402445482294,0.5838402445482294
0.6080197314817529,0.6080197314817529
0.6211457386742372,0.6211457386742372
0.6280541635123867,0.6280541635123867
0.6356534308343513,0.6356534308343513
0.6494702805106506,0.6494702805106506
0.6688138700574694,0.6688138700574694
0.6943750419586229,0.6943750419586229
0.7220087413112214,0.7220087413112214
0.7524058105990795,0.7524058105990795
0.7821120374031229,0.7821120374031229
0.8083640517880912,0.8083640517880912
0.829780168786355,0.829780168786355
0.8449787034302841,0.8449787034302841
0.8546504982036935,0.8546504982036935
0.8587955531065833,0.8587955531065833
0.8587955531065833,0.8587955531065833
0.8525779707522486,0.8525779707522486
0.8366885936245047,0.8366885936245047
0.8056006818528314,0.8056006818528314
0.7551691805343393,0.7551691805343393
0.6840124047013985,0.6840124047013985
0.5983479367083435,0.5983479367083435
0.5030116739418792,0.5030116739418792
0.4104387811106746,0.4104387811106746
0.32684684056906455,0.32684684056906455
0.2570717497037536,0.2570717497037536
0.19904098106329704,0.19904098106329704
0.15068200719624988,0.15068200719624988
0.10715893071590746,0.10715893071590746
0.06778090913845478,0.06778090913845478
0.03116625749626193,0.03116625749626193
7.834572458876072e-05,7.834572458876072e-05
-0.026864511144194653,-0.026864511144194653
-0.04689894317482847,-0.04689894317482847
-0.062097477818757574,-0.062097477818757574
-0.071769272592167,-0.071769272592167
-0.0752234850112418,-0.0752234850112418
-0.06762421768927725,-0.06762421768927725
-0.04897147062627335,-0.04897147062627335
-0.016501873886970265,-0.016501873886970265
0.023566990174297378,0.023566990174297378
0.06778090913845478,0.06778090913845478
0.10508640326446257,0.10508640326446257
0.13202926013324598,0.13202926013324598
0.14584610980954518,0.14584610980954518
0.14999116471243493,0.14999116471243493
0.14999116471243493,0.14999116471243493
0.15344537713150974,0.15344537713150974
0.15966295948584436,0.15966295948584436
0.16657138432399396,0.16657138432399396
0.16657138432399396,0.16657138432399396
0.15344537713150974,0.15344537713150974
0.12581167777891136,0.12581167777891136
0.08367028626619885,0.08367028626619885
0.036002154882966646,0.036002154882966646
-0.010975134016450588,-0.010975134016450588
-0.04620810069101351,-0.04620810069101351
-0.06693337520546229,-0.06693337520546229
-0.07384180004361189,-0.07384180004361189
-0.0752234850112418,-0.0752234850112418
-0.0786776974303166,-0.0786776974303166
-0.08973117717135595,-0.08973117717135595
-0.1146015065886945,-0.1146015065886945
-0.13878099352221807,-0.13878099352221807
-0.16641469287481644,-0.16641469287481644
-0.1857582824216353,-0.1857582824216353
-0.21270113929041873,-0.21270113929041873
-0.2534608458355013,-0.2534608458355013
-0.30941908702451304,-0.30941908702451304
-0.39232018508230815,-0.39232018508230815
-0.4696945432695836,-0.4696945432695836
-0.5498322713921189,-0.5498322713921189
-0.5995729302267959,-0.5995729302267959
-0.6361875818689888,-0.6361875818689888
-0.6513861165129179,-0.6513861165129179
-0.6596762263186974,-0.6596762263186974
-0.6479319040938432,-0.6479319040938432
-0.598191245259166,-0.598191245259166
-0.46071359097998915,-0.46071359097998915
-0.19059417980834004,-0.19059417980834004
0.2591442771551985,0.2591442771551985
0.8912651498458863,0.8912651498458863
1.660863676815751,1.660863676815751
2.441515683526655,2.441515683526655
3.061201391508674,3.061201391508674
3.3237215353583585,3.3237215353583585
3.0950526732156067,3.0950526732156067
2.3427252083411156,2.3427252083411156
1.187636575402504,1.187636575402504
-0.14776194581181254,-0.14776194581181254
-1.3857516768082196,-1.3857516768082196
-2.317007344990785,-2.317007344990785
-2.8316849954329295,-2.8316849954329295
-2.9650175948092166,-2.9650175948092166
-2.8247765705947803,-2.8247765705947803
-2.555348001906946,-2.555348001906946
-2.2562132064150684,-2.2562132064150684
-1.9881663226948643,-1.9881663226948643
-1.758115775584483,-1.758115775584483
-1.568134092535369,-1.568134092535369
-1.4071677938064833,-1.4071677938064833
-1.2876520441064954,-1.2876520441064954
-1.2012967336296254,-1.2012967336296254
-1.1522469172787633,-1.1522469172787633
-1.123231532958535,-1.123231532958535
-1.1038879434117161,-1.1038879434117161
-1.090761936219232,-1.090761936219232
-1.0672732917695233,-1.0672732917695233
-1.0513839146417794,-1.0513839146417794
-1.022368530321551,-1.022368530321551
-0.9995707283556573,-0.9995707283556573
-0.9671011316163542,-0.9671011316163542
-0.9291047950065315,-0.9291047950065315
-0.886272561010004,-0.886272561010004
-0.8392952721105867,-0.8392952721105867
-0.7978447230816892,-0.7978447230816892
-0.766065968826201,-0.766065968826201
-0.748794906730827,-0.748794906730827
-0.7432681668603074,-0.7432681668603074
-0.7439590093441224,-0.7439590093441224
-0.7411956394088626,-0.7411956394088626
-0.7294513171840082,-0.7294513171840082
-0.7052718302504848,-0.7052718302504848
-0.6700388635759218,-0.6700388635759218
-0.6272066295793943,-0.6272066295793943
-0.5802293406799771,-0.5802293406799771
-0.5291069968776702,-0.5291069968776702
-0.4745304406562883,-0.4745304406562883
-0.4151179870482018,-0.4151179870482018
-0.35017879356959564,-0.35017879356959564
-0.27971286022046976,-0.27971286022046976
-0.2044110294846392,-0.2044110294846392
-0.12220077391065905,-0.12220077391065905
-0.03446377846615921,-0.03446377846615921
0.06018164181649023,0.06018164181649023
0.15689958955058453,0.15689958955058453
0.25016332486560405,0.25016332486560405
0.3323735804395842,0.3323735804395842
0.4000761438534502,0.4000761438534502
0.45188933013957217,0.45188933013957217
0.4933398791684697,0.4933398791684697
0.5278820033592176,0.5278820033592176
0.5638058125175955,0.5638058125175955
0.5990387791921585,0.5990387791921585
0.6363442733181663,0.6363442733181663
0.6708863975089143,0.6708863975089143
0.7040468367320323,0.7040468367320323
0.7344439060198906,0.7344439060198906
0.7648409753077489,0.7648409753077489
0.795238044595607,0.795238044595607
0.8277076413349101,0.8277076413349101
0.8581047106227684,0.8581047106227684
0.8864292524591817,0.8864292524591817
0.9106087393927053,0.9106087393927053
0.931334013907154,0.931334013907154
0.948605076002528,0.948605076002528
0.9631127681626421,0.9631127681626421
0.9720937204522366,0.9720937204522366
0.9700211930007917,0.9700211930007917
0.9534409733892327,0.9534409733892327
0.9182080067146698,0.9182080067146698
0.8670856629123628,0.8670856629123628
0.8035281544013866,0.8035281544013866
0.7378981184389655,0.7378981184389655
0.6715772399927292,0.6715772399927292
0.6100922589331979,0.6100922589331979
0.5479164353898515,0.5479164353898515
0.49126735171702485,0.49126735171702485
0.4346182680441982,0.4346182680441982
0.386950136660966,0.386950136660966
0.34135453272917865,0.34135453272917865
0.30819409350606064,0.30819409350606064
0.28056039415346223,0.28056039415346223
0.26328933205808824,0.26328933205808824
0.2473999549303442,0.2473999549303442
0.23772816015693476,0.23772816015693476
0.22736552289971038,0.22736552289971038
0.22114794054537573,0.22114794054537573
0.21285783073959624,0.21285783073959624
0.21285783073959624,0.21285783073959624
0.22045709806156077,0.22045709806156077
0.24118237257600958,0.24118237257600958
0.2653618595095331,0.2653618595095331
0.2936864013459465,0.2936864013459465
0.31924757324709996,0.31924757324709996
0.33997284776154874,0.33997284776154874
0.35171716998640307,0.35171716998640307
0.36000727979218256,0.36000727979218256
0.3627706497274424,0.3627706497274424
0.3606981222759975,0.3606981222759975
0.34895380005114324,0.34895380005114324
0.32822852553669446,0.32822852553669446
0.30404903860317084,0.30404903860317084
0.27710618173438745,0.27710618173438745
0.2529266948008639,0.2529266948008639
0.23081973531878516,0.23081973531878516
0.21078530328815134,0.21078530328815134
0.19006002877370257,0.19006002877370257
0.165880541840179,0.165880541840179
0.13893768497139558,0.13893768497139558
0.10715893071590746,0.10715893071590746
0.07399849149278942,0.07399849149278942
0.03254794246389185,0.03254794246389185
7.834572458876072e-05,7.834572458876072e-05
-0.04068136082049384,-0.04068136082049384
-0.06071579285112766,-0.06071579285112766
-0.09318538959043075,-0.09318538959043075
-0.11805571900776929,-0.11805571900776929
-0.16848722032626132,-0.16848722032626132
-0.23549894125631238,-0.23549894125631238
-0.31701835434647757,-0.31701835434647757
-0.4102820896614971,-0.4102820896614971
-0.48420223542969776,-0.48420223542969776
-0.546378058973044,-0.546378058973044
-0.5747026008094575,-0.5747026008094575
-0.5850652380666818,-0.5850652380666818
-0.5671033334874929,-0.5671033334874929
-0.5208168870718906,-0.5208168870718906
-0.41719051449964667,-0.41719051449964667
-0.22306377654764312,-0.22306377654764312
0.10854061568353737,0.10854061568353737
0.6100922589331979,0.6100922589331979
1.2802094682337084,1.2802094682337084
2.0546438925902777,2.0546438925902777
2.800062932626619,2.800062932626619
3.3333933301317678,3.3333933301317678
3.4722526693785745,3.4722526693785745
3.1040336255052012,3.1040336255052012
2.239789678252687,2.239789678252687
1.0294336466088783,1.0294336466088783
-0.27833117525283985,-0.27833117525283985
-1.4258205408694875,-1.4258205408694875
-2.2258161371272105,-2.2258161371272105
-2.6161421404826624,-2.6161421404826624
-2.6520659496410404,-2.6520659496410404
-2.4579392116890366,-2.4579392116890366
-2.162949471100049,-2.162949471100049
-1.856906250770022,-1.856906250770022
-1.5791875722764084,-1.5791875722764084
-1.3429194428116922,-1.3429194428116922
-1.1439568074729838,-1.1439568074729838
-0.9933531460013227,-0.9933531460013227
-0.8945626708157836,-0.8945626708157836
-0.8503487518516262,-0.8503487518516262
-0.8482762244001812,-0.8482762244001812
-0.8634747590441103,-0.8634747590441103
-0.8821275061071142,-0.8821275061071142
-0.8793641361718544,-0.8793641361718544
-0.867619813947,-0.867619813947
-0.8392952721105867,-0.8392952721105867
-0.8144249426932483,-0.8144249426932483
-0.7930088256949845,-0.7930088256949845
-0.7709018662129058,-0.7709018662129058
-0.7591575439880515,-0.7591575439880515
-0.7356688995383429,-0.7356688995383429
-0.7190886799267838,-0.7190886799267838
-0.6907641380903706,-0.6907641380903706
-0.6686571786082919,-0.6686571786082919
-0.6417143217395085,-0.6417143217395085
-0.6196073622574297,-0.6196073622574297
-0.5926645053886463,-0.5926645053886463
-0.5650308060360479,-0.5650308060360479
-0.5284161543938551,-0.5284161543938551
-0.4883472903325875,-0.4883472903325875
-0.4441333713684301,-0.4441333713684301
-0.4019919798557176,-0.4019919798557176
-0.3633048007620799,-0.3633048007620799
-0.3287626765713319,-0.3287626765713319
-0.292838867412954,-0.292838867412954
-0.2534608458355013,-0.2534608458355013
-0.20164765954937938,-0.20164765954937938
-0.13878099352221807,-0.13878099352221807
-0.06624253272164733,-0.06624253272164733
0.012513510433258029,0.012513510433258029
0.09472376600723818,0.09472376600723818
0.17486149412977348,0.17486149412977348
0.250854167349419,0.250854167349419
0.31924757324709996,0.31924757324709996
0.37866002685518646,0.37866002685518646
0.4277098432060486,0.4277098432060486
0.4636336523644265,0.4636336523644265
0.4905765092332099,0.4905765092332099
0.5085384138123988,0.5085384138123988
0.522355263488698,0.522355263488698
0.5320270582621075,0.5320270582621075
0.5437713804869617,0.5437713804869617
0.5610424425823357,0.5610424425823357
0.5872944569673042,0.5872944569673042
0.623909108609497,0.623909108609497
0.6715772399927292,0.6715772399927292
0.7261537962141111,0.7261537962141111
0.7828028798869378,0.7828028798869378
0.8339252236892447,0.8339252236892447
0.8746849302343274,0.8746849302343274
0.9030094720707407,0.9030094720707407
0.9195896916822998,0.9195896916822998
0.9258072740366343,0.9258072740366343
