ECG,PPG
-0.7456839905283662,-0.7456839905283662
-0.8281150010817964,-0.8281150010817964
-0.764368352920477,-0.764368352920477
-0.8138269592525351,-0.8138269592525351
-0.8138269592525351,-0.8138269592525351
-0.7874490358754375,-0.7874490358754375
-0.753377551513353,-0.753377551513353
-0.731395948699105,-0.731395948699105
-0.7094143458848569,-0.7094143458848569
-0.685234582789184,-0.685234582789184
-0.6621538998342236,-0.6621538998342236
-0.652262178567812,-0.652262178567812
-0.6412713771606879,-0.6412713771606879
-0.6291814956128515,-0.6291814956128515
-0.6137943736428779,-0.6137943736428779
-0.5995063318136167,-0.5995063318136167
-0.5797228892807934,-0.5797228892807934
-0.5566422063258329,-0.5566422063258329
-0.5269670425265981,-0.5269670425265981
-0.49839095886807566,-0.49839095886807566
-0.45772499366171676,-0.45772499366171676
-0.4126627078925083,-0.4126627078925083
-0.34561881930905175,-0.34561881930905175
-0.26428688889633395,-0.26428688889633395
-0.14888347412153174,-0.14888347412153174
-0.011498456532481442,-0.011498456532481442
0.1632552858407905,0.1632552858407905
0.3610897111690229,0.3610897111690229
0.5929956208593398,0.5929956208593398
0.8424868128010551,0.8424868128010551
1.1161577678384433,1.1161577678384433
1.4008195242829555,1.4008195242829555
1.6832831204460428,1.6832831204460428
1.956954075483431,1.956954075483431
2.2042471071437215,2.2042471071437215
2.4339548565526137,2.4339548565526137
2.639482842865833,2.639482842865833
2.8461099093197646,2.8461099093197646
3.069223177884382,3.069223177884382
3.3384978123589204,3.3384978123589204
3.6528347326026678,3.6528347326026678
4.012233938615624,4.012233938615624
4.380425785754278,4.380425785754278
4.731032350641534,4.731032350641534
5.015694107086047,5.015694107086047
5.212429452273567,5.212429452273567
5.290464142264147,5.290464142264147
5.231113814665678,5.231113814665678
4.999207904975361,4.999207904975361
4.570566650097524,4.570566650097524
3.9287038479214806,3.9287038479214806
3.1065919026686037,3.1065919026686037
2.175671023485199,2.175671023485199
1.249146464864644,1.249146464864644
0.44022348130031586,0.44022348130031586
-0.16976599679506738,-0.16976599679506738
-0.5588403666072578,-0.5588403666072578
-0.7665665132019018,-0.7665665132019018
-0.8566910847403187,-0.8566910847403187
-0.8940598095245404,-0.8940598095245404
-0.9204377329016381,-0.9204377329016381
-0.9468156562787358,-0.9468156562787358
-0.9709954193744086,-0.9709954193744086
-0.9852834612036698,-0.9852834612036698
-0.9896797817665195,-0.9896797817665195
-0.9907788619072319,-0.9907788619072319
-0.9918779420479442,-0.9918779420479442
-0.9962742626107939,-0.9962742626107939
-1.0028687434550683,-1.0028687434550683
-1.0116613845807676,-1.0116613845807676
-1.0215531058471792,-1.0215531058471792
-1.0325439072543032,-1.0325439072543032
-1.0446337888021395,-1.0446337888021395
-1.0578227504906883,-1.0578227504906883
-1.073209872460662,-1.073209872460662
-1.0852997540084985,-1.0852997540084985
-1.1050831965413217,-1.1050831965413217
-1.1215693986520077,-1.1215693986520077
-1.1490464021698177,-1.1490464021698177
-1.1721270851247783,-1.1721270851247783
-1.212793050331137,-1.212793050331137
-1.253459015537496,-1.253459015537496
-1.3139084232766782,-1.3139084232766782
-1.3776550714379974,-1.3776550714379974
-1.4600860819914276,-1.4600860819914276
-1.540318932263433,-1.540318932263433
-1.633740744223987,-1.633740744223987
-1.7161717547774173,-1.7161717547774173
-1.7986027653308476,-1.7986027653308476
-1.8590521730700296,-1.8590521730700296
-1.9052135389799505,-1.9052135389799505
-1.9206006609499242,-1.9206006609499242
-1.9184025006684993,-1.9184025006684993
-1.8975199779949636,-1.8975199779949636
-1.878835615602853,-1.878835615602853
-1.8667457340550164,-1.8667457340550164
-1.8777365354621405,-1.8777365354621405
-1.906312619120663,-1.906312619120663
-1.9535730651712961,-1.9535730651712961
-2.005229831784779,-2.005229831784779
-2.05578751825755,-2.05578751825755
-2.093156243041771,-2.093156243041771
-2.1206332465595814,-2.1206332465595814
-2.1371194486702674,-2.1371194486702674
-2.1481102500773916,-2.1481102500773916
-2.1536056507809533,-2.1536056507809533
-2.1558038110623783,-2.1558038110623783
-2.152506570640241,-2.152506570640241
-2.1459120897959667,-2.1459120897959667
-2.130524967825993,-2.130524967825993
-2.111840605433882,-2.111840605433882
-2.086561762197497,-2.086561762197497
-2.059084758679687,-2.059084758679687
-2.02391419417689,-2.02391419417689
-1.9876445495333808,-1.9876445495333808
-1.9458795041863095,-1.9458795041863095
-1.906312619120663,-1.906312619120663
-1.8623494134921668,-1.8623494134921668
-1.821683448285808,-1.821683448285808
-1.7744230022351746,-1.7744230022351746
-1.7304597966066786,-1.7304597966066786
-1.6788030299931958,-1.6788030299931958
-1.6326416640832748,-1.6326416640832748
-1.5776876570476546,-1.5776876570476546
-1.529328130856309,-1.529328130856309
-1.4743741238206889,-1.4743741238206889
-1.4260145976293432,-1.4260145976293432
-1.3688624303122983,-1.3688624303122983
-1.3183047438395277,-1.3183047438395277
-1.258954416241058,-1.258954416241058
-1.204000409205438,-1.204000409205438
-1.1380556007626939,-1.1380556007626939
-1.0754080327420867,-1.0754080327420867
-1.0061659838772055,-1.0061659838772055
-0.9424193357158862,-0.9424193357158862
-0.8742763669917172,-0.8742763669917172
-0.8116287989711103,-0.8116287989711103
-0.7412876699655165,-0.7412876699655165
-0.6621538998342236,-0.6621538998342236
-0.5632366871701074,-0.5632366871701074
-0.45332867309886715,-0.45332867309886715
-0.3390243384647773,-0.3390243384647773
-0.24340436622279832,-0.24340436622279832
-0.1785586379207666,-0.1785586379207666
-0.15437887482509374,-0.15437887482509374
-0.15987427552865577,-0.15987427552865577
-0.18185587834290382,-0.18185587834290382
-0.19724300031287745,-0.19724300031287745
-0.20054024073501464,-0.20054024073501464
-0.18954943932789062,-0.18954943932789062
-0.16976599679506738,-0.16976599679506738
-0.14338807341796972,-0.14338807341796972
-0.11591106990015966,-0.11591106990015966
-0.0851368259602124,-0.0851368259602124
-0.05436258202026513,-0.05436258202026513
-0.023588338080317867,-0.023588338080317867
0.000591425015354984,0.000591425015354984
0.015978546985328617,0.015978546985328617
0.022573027829603028,0.022573027829603028
0.024771188111027832,0.024771188111027832
0.024771188111027832,0.024771188111027832
0.02367210797031543,0.02367210797031543
0.021473947688890625,0.021473947688890625
0.020374867548178223,0.020374867548178223
0.01707762712604102,0.01707762712604102
0.01378038670390381,0.01378038670390381
0.010483146281766604,0.010483146281766604
0.010483146281766604,0.010483146281766604
0.010483146281766604,0.010483146281766604
0.012681306563191408,0.012681306563191408
0.01378038670390381,0.01378038670390381
0.015978546985328617,0.015978546985328617
0.01707762712604102,0.01707762712604102
0.01817670726675342,0.01817670726675342
0.019275787407465824,0.019275787407465824
0.021473947688890625,0.021473947688890625
0.02367210797031543,0.02367210797031543
0.024771188111027832,0.024771188111027832
0.025870268251740235,0.025870268251740235
0.024771188111027832,0.024771188111027832
0.022573027829603028,0.022573027829603028
0.020374867548178223,0.020374867548178223
0.01707762712604102,0.01707762712604102
0.01378038670390381,0.01378038670390381
0.010483146281766604,0.010483146281766604
0.007185905859629397,0.007185905859629397
0.004987745578204593,0.004987745578204593
0.0016905051560673864,0.0016905051560673864
-0.0016067352660698205,-0.0016067352660698205
-0.0049039756882070275,-0.0049039756882070275
-0.007102135969631832,-0.007102135969631832
-0.009300296251056637,-0.009300296251056637
-0.011498456532481442,-0.011498456532481442
-0.012597536673193844,-0.012597536673193844
-0.016993857236043453,-0.016993857236043453
-0.022489257939605465,-0.022489257939605465
-0.030182818924592278,-0.030182818924592278
-0.037876379909579094,-0.037876379909579094
-0.04666902103527831,-0.04666902103527831
-0.056560742301689934,-0.056560742301689934
-0.06645246356810156,-0.06645246356810156
-0.07634418483451318,-0.07634418483451318
-0.0862359061009248,-0.0862359061009248
-0.09612762736733642,-0.09612762736733642
-0.10601934863374804,-0.10601934863374804
-0.11261382947802245,-0.11261382947802245
-0.11701015004087206,-0.11701015004087206
-0.11810923018158447,-0.11810923018158447
-0.11810923018158447,-0.11810923018158447
-0.11481198975944726,-0.11481198975944726
-0.11041566919659765,-0.11041566919659765
-0.10601934863374804,-0.10601934863374804
-0.10052394793018603,-0.10052394793018603
-0.09392946708591161,-0.09392946708591161
-0.089533146523062,-0.089533146523062
-0.0862359061009248,-0.0862359061009248
-0.0851368259602124,-0.0851368259602124
-0.08293866567878759,-0.08293866567878759
-0.08074050539736279,-0.08074050539736279
-0.07854234511593798,-0.07854234511593798
-0.07524510469380077,-0.07524510469380077
-0.07084878413095116,-0.07084878413095116
-0.06865062384952636,-0.06865062384952636
-0.06645246356810156,-0.06645246356810156
-0.06645246356810156,-0.06645246356810156
-0.06535338342738915,-0.06535338342738915
-0.06535338342738915,-0.06535338342738915
-0.06425430328667675,-0.06425430328667675
-0.06425430328667675,-0.06425430328667675
-0.06315522314596435,-0.06315522314596435
-0.06425430328667675,-0.06425430328667675
-0.06645246356810156,-0.06645246356810156
-0.06974970399023876,-0.06974970399023876
-0.07084878413095116,-0.07084878413095116
-0.07084878413095116,-0.07084878413095116
-0.06974970399023876,-0.06974970399023876
-0.06865062384952636,-0.06865062384952636
-0.06645246356810156,-0.06645246356810156
-0.06535338342738915,-0.06535338342738915
-0.06535338342738915,-0.06535338342738915
-0.06535338342738915,-0.06535338342738915
-0.06535338342738915,-0.06535338342738915
-0.06535338342738915,-0.06535338342738915
-0.06535338342738915,-0.06535338342738915
-0.06535338342738915,-0.06535338342738915
-0.06425430328667675,-0.06425430328667675
-0.06315522314596435,-0.06315522314596435
-0.05985798272382714,-0.05985798272382714
-0.056560742301689934,-0.056560742301689934
-0.05326350187955273,-0.05326350187955273
-0.05106534159812792,-0.05106534159812792
-0.04886718131670312,-0.04886718131670312
-0.047768101175990715,-0.047768101175990715
-0.04556994089456591,-0.04556994089456591
-0.04447086075385351,-0.04447086075385351
-0.042272700472428704,-0.042272700472428704
-0.0411736203317163,-0.0411736203317163
-0.0411736203317163,-0.0411736203317163
-0.04447086075385351,-0.04447086075385351
-0.047768101175990715,-0.047768101175990715
-0.05326350187955273,-0.05326350187955273
-0.05875890258311474,-0.05875890258311474
-0.06315522314596435,-0.06315522314596435
-0.06535338342738915,-0.06535338342738915
-0.06865062384952636,-0.06865062384952636
-0.07194786427166357,-0.07194786427166357
-0.07524510469380077,-0.07524510469380077
-0.07744326497522558,-0.07744326497522558
-0.08074050539736279,-0.08074050539736279
-0.08293866567878759,-0.08293866567878759
-0.08403774581949999,-0.08403774581949999
-0.0851368259602124,-0.0851368259602124
-0.0862359061009248,-0.0862359061009248
-0.0884340663823496,-0.0884340663823496
-0.0906322266637744,-0.0906322266637744
-0.09283038694519921,-0.09283038694519921
-0.09502854722662402,-0.09502854722662402
-0.09722670750804882,-0.09722670750804882
-0.10052394793018603,-0.10052394793018603
-0.10162302807089843,-0.10162302807089843
-0.10492026849303564,-0.10492026849303564
-0.10601934863374804,-0.10601934863374804
-0.10821750891517284,-0.10821750891517284
-0.10931658905588525,-0.10931658905588525
-0.10821750891517284,-0.10821750891517284
-0.11151474933731005,-0.11151474933731005
-0.10492026849303564,-0.10492026849303564
-0.10931658905588525,-0.10931658905588525
-0.10272210821161083,-0.10272210821161083
-0.10601934863374804,-0.10601934863374804
-0.10382118835232323,-0.10382118835232323
-0.10601934863374804,-0.10601934863374804
-0.10931658905588525,-0.10931658905588525
-0.11591106990015966,-0.11591106990015966
-0.1345954322922705,-0.1345954322922705
-0.16536967623221777,-0.16536967623221777
-0.2225218435492627,-0.2225218435492627
-0.30605193424340527,-0.30605193424340527
-0.4159599483146455,-0.4159599483146455
-0.5335615233708725,-0.5335615233708725
-0.6159925339243026,-0.6159925339243026
-0.5929118509693423,-0.5929118509693423
-0.39068110507826026,-0.39068110507826026
0.044554630643851074,0.044554630643851074
0.6985073143677304,0.6985073143677304
1.4766560539921112,1.4766560539921112
2.208643427706571,2.208643427706571
2.7098239718714265,2.7098239718714265
2.847208989460477,2.847208989460477
2.5966187173780493,2.5966187173780493
2.041583246318286,2.041583246318286
1.3414691966844856,1.3414691966844856
0.6644358300056459,0.6644358300056459
0.13028288161941845,0.13028288161941845
-0.21263012228285108,-0.21263012228285108
-0.3807893838118486,-0.3807893838118486
-0.4280498298624819,-0.4280498298624819
-0.4115636277517959,-0.4115636277517959
-0.3741949029675742,-0.3741949029675742
-0.34232157888691456,-0.34232157888691456
-0.3225381363540913,-0.3225381363540913
-0.3115473349469673,-0.3115473349469673
-0.30605193424340527,-0.30605193424340527
-0.29725929311770605,-0.29725929311770605
-0.28846665199200683,-0.28846665199200683
-0.2774758505848828,-0.2774758505848828
-0.269782289599896,-0.269782289599896
-0.2664850491777588,-0.2664850491777588
-0.25989056833348434,-0.25989056833348434
-0.26208872861490917,-0.26208872861490917
-0.25549424777063473,-0.25549424777063473
-0.25659332791134715,-0.25659332791134715
-0.25329608748920995,-0.25329608748920995
-0.25329608748920995,-0.25329608748920995
-0.25439516762992237,-0.25439516762992237
-0.25329608748920995,-0.25329608748920995
-0.25329608748920995,-0.25329608748920995
-0.24889976692636034,-0.24889976692636034
-0.24670160664493554,-0.24670160664493554
-0.24010712580066113,-0.24010712580066113
-0.23571080523781152,-0.23571080523781152
-0.2313144846749619,-0.2313144846749619
-0.2291163243935371,-0.2291163243935371
-0.2258190839713999,-0.2258190839713999
-0.2236209236899751,-0.2236209236899751
-0.2214227634085503,-0.2214227634085503
-0.21812552298641308,-0.21812552298641308
-0.21372920242356347,-0.21372920242356347
-0.20933288186071386,-0.20933288186071386
-0.20163932087572706,-0.20163932087572706
-0.19394575989074023,-0.19394575989074023
-0.18405403862432862,-0.18405403862432862
-0.1730632372172046,-0.1730632372172046
-0.16097335566936816,-0.16097335566936816
-0.14778439398081933,-0.14778439398081933
-0.1345954322922705,-0.1345954322922705
-0.12030739046300927,-0.12030739046300927
-0.10601934863374804,-0.10601934863374804
-0.0906322266637744,-0.0906322266637744
-0.07524510469380077,-0.07524510469380077
-0.05875890258311474,-0.05875890258311474
-0.042272700472428704,-0.042272700472428704
-0.02578649836174267,-0.02578649836174267
-0.009300296251056637,-0.009300296251056637
0.0082849860003418,0.0082849860003418
0.024771188111027832,0.024771188111027832
0.04125739022171387,0.04125739022171387
0.0566445121916875,0.0566445121916875
0.07093255402094872,0.07093255402094872
0.08412151570949755,0.08412151570949755
0.09731047739804638,0.09731047739804638
0.1094003589458828,0.1094003589458828
0.12258932063443163,0.12258932063443163
0.13577828232298045,0.13577828232298045
0.14786816387081686,0.14786816387081686
0.15885896527794088,0.15885896527794088
0.1665525262629277,0.1665525262629277
0.17424608724791452,0.17424608724791452
0.18084056809218893,0.18084056809218893
0.18633596879575096,0.18633596879575096
0.19183136949931295,0.19183136949931295
0.19512860992145017,0.19512860992145017
0.19622769006216256,0.19622769006216256
0.19622769006216256,0.19622769006216256
0.19622769006216256,0.19622769006216256
0.19622769006216256,0.19622769006216256
0.19732677020287498,0.19732677020287498
0.19732677020287498,0.19732677020287498
0.19622769006216256,0.19622769006216256
0.19512860992145017,0.19512860992145017
0.19402952978073776,0.19402952978073776
0.19402952978073776,0.19402952978073776
0.19622769006216256,0.19622769006216256
0.2017230907657246,0.2017230907657246
0.2094166517507114,0.2094166517507114
0.2182092928764106,0.2182092928764106
0.22920009428353463,0.22920009428353463
0.24238905597208346,0.24238905597208346
0.2588752580827695,0.2588752580827695
0.27646054033416795,0.27646054033416795
0.29954122328912836,0.29954122328912836
0.325919146666226,0.325919146666226
0.3566933906061733,0.3566933906061733
0.38746763454612054,0.38746763454612054
0.4226381990489174,0.4226381990489174
0.4600069238331391,0.4600069238331391
0.5028710493209227,0.5028710493209227
0.5468342549494188,0.5468342549494188
0.5973919414221894,0.5973919414221894
0.6479496278949599,0.6479496278949599
0.7051017952120048,0.7051017952120048
0.7589567221069126,0.7589567221069126
0.8172079695646698,0.8172079695646698
0.8721619766002899,0.8721619766002899
0.9304132240580473,0.9304132240580473
0.984268150952955,0.984268150952955
1.0392221579885752,1.0392221579885752
1.0897798444613456,1.0897798444613456
1.1403375309341162,1.1403375309341162
1.1843007365626121,1.1843007365626121
1.2249667017689712,1.2249667017689712
1.2590381861310556,1.2590381861310556
1.2865151896488656,1.2865151896488656
1.3051995520409765,1.3051995520409765
1.3161903534481005,1.3161903534481005
1.3172894335888128,1.3172894335888128
1.3106949527445384,1.3106949527445384
1.2942087506338524,1.2942087506338524
1.2700289875381796,1.2700289875381796
1.23815566345752,1.23815566345752
1.2007869386732983,1.2007869386732983
1.1579228131855146,1.1579228131855146
1.1117614472755937,1.1117614472755937
1.061203760802823,1.061203760802823
1.0084479140486278,1.0084479140486278
0.9512957467315829,0.9512957467315829
0.8930444992738256,0.8930444992738256
0.831496011393931,0.831496011393931
0.7732447639361738,0.7732447639361738
0.7127953561969916,0.7127953561969916
0.658940429302084,0.658940429302084
0.6028873421257515,0.6028873421257515
0.5556268960751181,0.5556268960751181
0.500672889039498,0.500672889039498
0.4545115231295771,0.4545115231295771
0.3973593558125322,0.3973593558125322
0.3577924707468857,0.3577924707468857
0.3171265055405268,0.3171265055405268
0.3083338644148276,0.3083338644148276
0.30943294455554,0.30943294455554
0.3424053487769121,0.3424053487769121
0.37977407356113374,0.37977407356113374
0.42813359975247944,0.42813359975247944
0.47539404580311273,0.47539404580311273
0.5303480528387329,0.5303480528387329
0.6083827428293134,0.6083827428293134
0.7281824781669652,0.7281824781669652
0.9062334609623744,0.9062334609623744
1.1502292522005277,1.1502292522005277
1.456872611459288,1.456872611459288
1.8217672181758056,1.8217672181758056
2.238318591505806,2.238318591505806
2.701031330745727,2.701031330745727
3.203310955051295,3.203310955051295
3.7264731020303987,3.7264731020303987
4.235347207180241,4.235347207180241
4.6771774237466275,4.6771774237466275
4.98052354258325,4.98052354258325
5.066251793558817,5.066251793558817
4.87061552851201,4.87061552851201
4.369434984347154,4.369434984347154
3.5978807255670477,3.5978807255670477
2.657068125117231,2.657068125117231
1.6898776012903172,1.6898776012903172
0.8358923319567807,0.8358923319567807
0.19402952978073776,0.19402952978073776
-0.21153104214213866,-0.21153104214213866
-0.4192571887367827,-0.4192571887367827
-0.5060845198530625,-0.5060845198530625
-0.5412550843558593,-0.5412550843558593
-0.5753265687179439,-0.5753265687179439
-0.61928977434644,-0.61928977434644
-0.6731447012413476,-0.6731447012413476
-0.7269996281362553,-0.7269996281362553
-0.7797554748904506,-0.7797554748904506
-0.8259168408003715,-0.8259168408003715
-0.8676818861474428,-0.8676818861474428
-0.8995552102281025,-0.8995552102281025
-0.9116450917759389,-0.9116450917759389
-0.9028524506502397,-0.9028524506502397
-0.865483725866018,-0.865483725866018
-0.8116287989711103,-0.8116287989711103
-0.7445849103876537,-0.7445849103876537
-0.6830364225077592,-0.6830364225077592
-0.6379741367385507,-0.6379741367385507
-0.6137943736428779,-0.6137943736428779
-0.61928977434644,-0.61928977434644
-0.6357759764571259,-0.6357759764571259
-0.6676493005377856,-0.6676493005377856
-0.6940272239148833,-0.6940272239148833
-0.7204051472919809,-0.7204051472919809
-0.7357922692619545,-0.7357922692619545
-0.7555757117947778,-0.7555757117947778
-0.769863753624039,-0.769863753624039
-0.7940435167197119,-0.7940435167197119
-0.81602511953396,-0.81602511953396
-0.8446012031924823,-0.8446012031924823
-0.8698800464288676,-0.8698800464288676
-0.8995552102281025,-0.8995552102281025
-0.9259331336052001,-0.9259331336052001
-0.9567073775451473,-0.9567073775451473
-0.9863825413443823,-0.9863825413443823
-1.0215531058471792,-1.0215531058471792
-1.054525510068551,-1.054525510068551
-1.0907951547120605,-1.0907951547120605
-1.1248666390741449,-1.1248666390741449
-1.1611362837176542,-1.1611362837176542
-1.1952077680797386,-1.1952077680797386
-1.2303783325825355,-1.2303783325825355
-1.2622516566631952,-1.2622516566631952
-1.2952240608845673,-1.2952240608845673
-1.324899224683802,-1.324899224683802
-1.3556734686237495,-1.3556734686237495
-1.384249552282272,-1.384249552282272
-1.4139247160815067,-1.4139247160815067
-1.4414017195993167,-1.4414017195993167
-1.4688787231171267,-1.4688787231171267
-1.4919594060720873,-1.4919594060720873
-1.512841928745623,-1.512841928745623
-1.5260308904341717,-1.5260308904341717
-1.5392198521227205,-1.5392198521227205
-1.5469134131077074,-1.5469134131077074
-1.556805134374119,-1.556805134374119
-1.5590032946555439,-1.5590032946555439
-1.5644986953591058,-1.5644986953591058
-1.5612014549369686,-1.5612014549369686
-1.5601023747962561,-1.5601023747962561
-1.5491115733891323,-1.5491115733891323
-1.540318932263433,-1.540318932263433
-1.5260308904341717,-1.5260308904341717
-1.5172382493084726,-1.5172382493084726
-1.5029502074792114,-1.5029502074792114
-1.496355726634937,-1.496355726634937
-1.483166764946388,-1.483166764946388
-1.4765722841021136,-1.4765722841021136
-1.4622842422728524,-1.4622842422728524
-1.450194360725016,-1.450194360725016
-1.4304109181921927,-1.4304109181921927
-1.411726555800082,-1.411726555800082
-1.3864477125636967,-1.3864477125636967
-1.3644661097494486,-1.3644661097494486
-1.3347909459502139,-1.3347909459502139
-1.305115782150979,-1.305115782150979
-1.2688461375074696,-1.2688461375074696
-1.231477412723248,-1.231477412723248
-1.1864151269540395,-1.1864151269540395
-1.139154680903406,-1.139154680903406
-1.084200673867786,-1.084200673867786
-1.027048506550741,-1.027048506550741
-0.9622027782487094,-0.9622027782487094
-0.8951588896652529,-0.8951588896652529
-0.8226196003782343,-0.8226196003782343
-0.7489812309505034,-0.7489812309505034
-0.6731447012413476,-0.6731447012413476
-0.5995063318136167,-0.5995063318136167
-0.5258679623858857,-0.5258679623858857
-0.455526833380292,-0.455526833380292
-0.38628478451541065,-0.38628478451541065
-0.3203399760726665,-0.3203399760726665
-0.25769240805205956,-0.25769240805205956
-0.20163932087572706,-0.20163932087572706
-0.15218071454366894,-0.15218071454366894
-0.11261382947802245,-0.11261382947802245
-0.07854234511593798,-0.07854234511593798
-0.05326350187955273,-0.05326350187955273
-0.03128189906530468,-0.03128189906530468
-0.013696616813906244,-0.013696616813906244
0.0016905051560673864,0.0016905051560673864
0.012681306563191408,0.012681306563191408
0.02367210797031543,0.02367210797031543
0.02916750867387744,0.02916750867387744
0.03466290937743945,0.03466290937743945
0.03686106965886426,0.03686106965886426
0.04235647036242627,0.04235647036242627
0.044554630643851074,0.044554630643851074
0.04785187106598828,0.04785187106598828
0.050050031347413086,0.050050031347413086
0.05114911148812549,0.05114911148812549
0.050050031347413086,0.050050031347413086
0.048950951206700684,0.048950951206700684
0.04675279092527588,0.04675279092527588
0.04565371078456348,0.04565371078456348
0.044554630643851074,0.044554630643851074
0.044554630643851074,0.044554630643851074
0.04345555050313867,0.04345555050313867
0.044554630643851074,0.044554630643851074
0.044554630643851074,0.044554630643851074
0.044554630643851074,0.044554630643851074
0.044554630643851074,0.044554630643851074
0.044554630643851074,0.044554630643851074
0.04345555050313867,0.04345555050313867
0.04345555050313867,0.04345555050313867
0.04125739022171387,0.04125739022171387
0.03796014979957666,0.03796014979957666
0.03466290937743945,0.03466290937743945
0.031365668955302246,0.031365668955302246
0.02916750867387744,0.02916750867387744
0.025870268251740235,0.025870268251740235
0.022573027829603028,0.022573027829603028
0.019275787407465824,0.019275787407465824
0.014879466844616213,0.014879466844616213
0.010483146281766604,0.010483146281766604
0.006086825718916995,0.006086825718916995
0.003888665437492191,0.003888665437492191
0.0027895852967797885,0.0027895852967797885
0.000591425015354984,0.000591425015354984
-0.002705815406782223,-0.002705815406782223
-0.00600305582891943,-0.00600305582891943
-0.011498456532481442,-0.011498456532481442
-0.016993857236043453,-0.016993857236043453
-0.022489257939605465,-0.022489257939605465
-0.027984658643167473,-0.027984658643167473
-0.033480059346729485,-0.033480059346729485
-0.03677729976886669,-0.03677729976886669
-0.0400745401910039,-0.0400745401910039
-0.043371780613141106,-0.043371780613141106
-0.04556994089456591,-0.04556994089456591
-0.04666902103527831,-0.04666902103527831
-0.04666902103527831,-0.04666902103527831
-0.04556994089456591,-0.04556994089456591
-0.04447086075385351,-0.04447086075385351
-0.042272700472428704,-0.042272700472428704
-0.0411736203317163,-0.0411736203317163
-0.0411736203317163,-0.0411736203317163
-0.0411736203317163,-0.0411736203317163
-0.0400745401910039,-0.0400745401910039
-0.0389754600502915,-0.0389754600502915
-0.03677729976886669,-0.03677729976886669
-0.03457913948744189,-0.03457913948744189
-0.03238097920601708,-0.03238097920601708
-0.03238097920601708,-0.03238097920601708
-0.033480059346729485,-0.033480059346729485
-0.03567821962815429,-0.03567821962815429
-0.03677729976886669,-0.03677729976886669
-0.037876379909579094,-0.037876379909579094
-0.03677729976886669,-0.03677729976886669
-0.03567821962815429,-0.03567821962815429
-0.03238097920601708,-0.03238097920601708
-0.029083738783879876,-0.029083738783879876
-0.02578649836174267,-0.02578649836174267
-0.022489257939605465,-0.022489257939605465
-0.021390177798893063,-0.021390177798893063
-0.02029109765818066,-0.02029109765818066
-0.019192017517468258,-0.019192017517468258
-0.02029109765818066,-0.02029109765818066
-0.02029109765818066,-0.02029109765818066
-0.02029109765818066,-0.02029109765818066
-0.02029109765818066,-0.02029109765818066
-0.02029109765818066,-0.02029109765818066
-0.02029109765818066,-0.02029109765818066
-0.02029109765818066,-0.02029109765818066
-0.019192017517468258,-0.019192017517468258
-0.02029109765818066,-0.02029109765818066
-0.021390177798893063,-0.021390177798893063
-0.022489257939605465,-0.022489257939605465
-0.024687418221030266,-0.024687418221030266
-0.02578649836174267,-0.02578649836174267
-0.02688557850245507,-0.02688557850245507
-0.02578649836174267,-0.02578649836174267
-0.024687418221030266,-0.024687418221030266
-0.022489257939605465,-0.022489257939605465
-0.021390177798893063,-0.021390177798893063
-0.02029109765818066,-0.02029109765818066
-0.021390177798893063,-0.021390177798893063
-0.022489257939605465,-0.022489257939605465
-0.023588338080317867,-0.023588338080317867
-0.022489257939605465,-0.022489257939605465
-0.02029109765818066,-0.02029109765818066
-0.016993857236043453,-0.016993857236043453
-0.013696616813906244,-0.013696616813906244
-0.009300296251056637,-0.009300296251056637
-0.007102135969631832,-0.007102135969631832
-0.00600305582891943,-0.00600305582891943
-0.0049039756882070275,-0.0049039756882070275
-0.003804895547494625,-0.003804895547494625
-0.0016067352660698205,-0.0016067352660698205
0.000591425015354984,0.000591425015354984
0.0027895852967797885,0.0027895852967797885
0.004987745578204593,0.004987745578204593
0.007185905859629397,0.007185905859629397
0.007185905859629397,0.007185905859629397
0.0082849860003418,0.0082849860003418
0.0082849860003418,0.0082849860003418
0.0082849860003418,0.0082849860003418
0.0082849860003418,0.0082849860003418
0.007185905859629397,0.007185905859629397
0.011582226422479006,0.011582226422479006
0.0082849860003418,0.0082849860003418
0.015978546985328617,0.015978546985328617
0.009384066141054201,0.009384066141054201
0.014879466844616213,0.014879466844616213
0.004987745578204593,0.004987745578204593
0.0016905051560673864,0.0016905051560673864
-0.01039937639176904,-0.01039937639176904
-0.023588338080317867,-0.023588338080317867
-0.042272700472428704,-0.042272700472428704
-0.07414602455308837,-0.07414602455308837
-0.11920831032229687,-0.11920831032229687
-0.1873512790464658,-0.1873512790464658
-0.2774758505848828,-0.2774758505848828
-0.3840866242339858,-0.3840866242339858
-0.48959831774237644,-0.48959831774237644
-0.5577412864665454,-0.5577412864665454
-0.5225707219637485,-0.5225707219637485
-0.30934917466554246,-0.30934917466554246
0.14896724401152928,0.14896724401152928
0.8600720950524535,0.8600720950524535
1.7514260891702118,1.7514260891702118
2.6559690449765188,2.6559690449765188
3.37037113643958,3.37037113643958
3.7176804609046994,3.7176804609046994
3.6231595688034326,3.6231595688034326
3.1406633870306884,3.1406633870306884
2.420765894864065,2.420765894864065
1.6503107162246708,1.6503107162246708
0.984268150952955,0.984268150952955
0.4973756486173608,0.4973756486173608
0.19402952978073776,0.19402952978073776
0.031365668955302246,0.031365668955302246
-0.04556994089456591,-0.04556994089456591
-0.07964142525665038,-0.07964142525665038
-0.09832578764876122,-0.09832578764876122
-0.11371290961873486,-0.11371290961873486
-0.1301991117294209,-0.1301991117294209
-0.14778439398081933,-0.14778439398081933
-0.15767611524723096,-0.15767611524723096
-0.15767611524723096,-0.15767611524723096
-0.1356945124329829,-0.1356945124329829
-0.10052394793018603,-0.10052394793018603
-0.05875890258311474,-0.05875890258311474
-0.024687418221030266,-0.024687418221030266
-0.019192017517468258,-0.019192017517468258
-0.03567821962815429,-0.03567821962815429
-0.07964142525665038,-0.07964142525665038
-0.12470371102585888,-0.12470371102585888
-0.16427059609150538,-0.16427059609150538
-0.18405403862432862,-0.18405403862432862
-0.18625219890575342,-0.18625219890575342
-0.1774595577800542,-0.1774595577800542
-0.15987427552865577,-0.15987427552865577
-0.1400908329958325,-0.1400908329958325
-0.11810923018158447,-0.11810923018158447
-0.09612762736733642,-0.09612762736733642
-0.07414602455308837,-0.07414602455308837
-0.057659822442402336,-0.057659822442402336
-0.04666902103527831,-0.04666902103527831
-0.0411736203317163,-0.0411736203317163
-0.0400745401910039,-0.0400745401910039
-0.0400745401910039,-0.0400745401910039
-0.037876379909579094,-0.037876379909579094
-0.03677729976886669,-0.03677729976886669
-0.03457913948744189,-0.03457913948744189
-0.033480059346729485,-0.033480059346729485
-0.030182818924592278,-0.030182818924592278
-0.02578649836174267,-0.02578649836174267
-0.019192017517468258,-0.019192017517468258
-0.01039937639176904,-0.01039937639176904
0.0016905051560673864,0.0016905051560673864
0.015978546985328617,0.015978546985328617
0.031365668955302246,0.031365668955302246
0.04785187106598828,0.04785187106598828
0.06433807317667431,0.06433807317667431
0.07972519514664794,0.07972519514664794
0.09291415683519677,0.09291415683519677
0.10280587810160839,0.10280587810160839
0.1094003589458828,0.1094003589458828
0.11489575964944482,0.11489575964944482
0.11819300007158202,0.11819300007158202
0.12258932063443163,0.12258932063443163
0.12918380147870603,0.12918380147870603
0.13687736246369286,0.13687736246369286
0.14567000358939206,0.14567000358939206
0.15666080499651608,0.15666080499651608
0.1676516064036401,0.1676516064036401
0.17974148795147654,0.17974148795147654
0.19073228935860057,0.19073228935860057
0.2017230907657246,0.2017230907657246
0.213812972313561,0.213812972313561
0.22480377372068502,0.22480377372068502
0.23469549498709666,0.23469549498709666
0.24458721625350827,0.24458721625350827
0.2533798573792075,0.2533798573792075
0.2621724985049067,0.2621724985049067
0.2665688190677563,0.2665688190677563
0.27206421977131834,0.27206421977131834
0.27646054033416795,0.27646054033416795
0.27975778075630514,0.27975778075630514
0.2819559410377299,0.2819559410377299
0.28415410131915475,0.28415410131915475
0.2863522616005795,0.2863522616005795
0.2896495020227168,0.2896495020227168
0.29074858216342914,0.29074858216342914
0.2940458225855664,0.2940458225855664
0.2973430630077036,0.2973430630077036
0.30393754385197796,0.30393754385197796
0.3127301849776772,0.3127301849776772
0.32482006652551365,0.32482006652551365
0.3380090282140625,0.3380090282140625
0.3555943104654609,0.3555943104654609
0.37317959271685935,0.37317959271685935
0.3951611955311074,0.3951611955311074
0.4182418784860678,0.4182418784860678
0.4468179621445903,0.4468179621445903
0.47649312594382515,0.47649312594382515
0.511663690446622,0.511663690446622
0.5468342549494188,0.5468342549494188
0.5875002201557777,0.5875002201557777
0.629265265502849,0.629265265502849
0.6754266314127699,0.6754266314127699
0.7226870774634032,0.7226870774634032
0.7754429242175985,0.7754429242175985
0.8281987709717938,0.8281987709717938
0.8864500184295512,0.8864500184295512
0.9447012658873085,0.9447012658873085
1.0073488339079155,1.0073488339079155
1.0666991615063852,1.0666991615063852
1.1282476493862796,1.1282476493862796
1.1853998167033246,1.1853998167033246
1.2447501443017943,1.2447501443017943
1.2975059910559896,1.2975059910559896
1.3513609179508974,1.3513609179508974
1.3975222838608183,1.3975222838608183
1.4425845696300268,1.4425845696300268
1.4766560539921112,1.4766560539921112
1.5063312177913462,1.5063312177913462
1.5250155801834568,1.5250155801834568
1.539303622012718,1.539303622012718
1.5426008624348553,1.5426008624348553
1.5404027021534306,1.5404027021534306
1.5272137404648818,1.5272137404648818
1.5096284582134833,1.5096284582134833
1.4810523745549609,1.4810523745549609
1.4480799703335887,1.4480799703335887
1.40741400512723,1.40741400512723
1.3634507994987337,1.3634507994987337
1.3128931130259633,1.3128931130259633
1.2612363464124803,1.2612363464124803
1.2062823393768602,1.2062823393768602
1.1524274124819525,1.1524274124819525
1.09637432530562,1.09637432530562
1.04142031827,1.04142031827
0.9864663112343798,0.9864663112343798
0.9326113843394721,0.9326113843394721
0.877657377303852,0.877657377303852
0.8249015305496566,0.8249015305496566
0.7732447639361738,0.7732447639361738
0.724885237744828,0.724885237744828
0.6776247916941948,0.6776247916941948
0.6314634257842738,0.6314634257842738
0.5864011400150654,0.5864011400150654
0.5424379343865693,0.5424379343865693
0.4973756486173608,0.4973756486173608
0.4545115231295771,0.4545115231295771
0.41274647778250584,0.41274647778250584
0.37537775299828413,0.37537775299828413
0.3380090282140625,0.3380090282140625
0.3061357041334028,0.3061357041334028
0.2742623800527431,0.2742623800527431
0.24678537653493307,0.24678537653493307
0.2182092928764106,0.2182092928764106
0.19402952978073776,0.19402952978073776
0.16875068654435252,0.16875068654435252
0.14786816387081686,0.14786816387081686
0.12698564119728126,0.12698564119728126
0.1094003589458828,0.1094003589458828
0.09181507669448437,0.09181507669448437
0.07752703486522314,0.07752703486522314
0.06433807317667431,0.06433807317667431
0.054446351910262696,0.054446351910262696
0.04345555050313867,0.04345555050313867
0.035761989518151856,0.035761989518151856
0.026969348392452637,0.026969348392452637
0.019275787407465824,0.019275787407465824
0.011582226422479006,0.011582226422479006
0.004987745578204593,0.004987745578204593
-0.0005076551253574182,-0.0005076551253574182
-0.0049039756882070275,-0.0049039756882070275
-0.007102135969631832,-0.007102135969631832
-0.008201216110344235,-0.008201216110344235
-0.007102135969631832,-0.007102135969631832
-0.007102135969631832,-0.007102135969631832
-0.007102135969631832,-0.007102135969631832
-0.008201216110344235,-0.008201216110344235
-0.01039937639176904,-0.01039937639176904
-0.012597536673193844,-0.012597536673193844
-0.01589477709533105,-0.01589477709533105
-0.016993857236043453,-0.016993857236043453
-0.019192017517468258,-0.019192017517468258
-0.019192017517468258,-0.019192017517468258
-0.02029109765818066,-0.02029109765818066
-0.02029109765818066,-0.02029109765818066
-0.021390177798893063,-0.021390177798893063
-0.022489257939605465,-0.022489257939605465
-0.024687418221030266,-0.024687418221030266
-0.02688557850245507,-0.02688557850245507
-0.029083738783879876,-0.029083738783879876
-0.03238097920601708,-0.03238097920601708
-0.03567821962815429,-0.03567821962815429
-0.037876379909579094,-0.037876379909579094
-0.0389754600502915,-0.0389754600502915
-0.0389754600502915,-0.0389754600502915
-0.0389754600502915,-0.0389754600502915
-0.03677729976886669,-0.03677729976886669
-0.03457913948744189,-0.03457913948744189
-0.029083738783879876,-0.029083738783879876
-0.018092937376755856,-0.018092937376755856
-0.0016067352660698205,-0.0016067352660698205
0.021473947688890625,0.021473947688890625
0.048950951206700684,0.048950951206700684
0.08082427528736034,0.08082427528736034
0.11489575964944482,0.11489575964944482
0.15116540429295408,0.15116540429295408
0.18633596879575096,0.18633596879575096
0.21711021273569822,0.21711021273569822
0.24019089569065866,0.24019089569065866
0.2511816970977827,0.2511816970977827
0.2500826169570703,0.2500826169570703
0.23909181554994627,0.23909181554994627
0.21930837301712303,0.21930837301712303
0.19402952978073776,0.19402952978073776
0.1599580454186533,0.1599580454186533
0.12149024049371923,0.12149024049371923
0.07862611500593554,0.07862611500593554
0.035761989518151856,0.035761989518151856
0.0016905051560673864,0.0016905051560673864
-0.02688557850245507,-0.02688557850245507
-0.0389754600502915,-0.0389754600502915
-0.04886718131670312,-0.04886718131670312
-0.04666902103527831,-0.04666902103527831
-0.047768101175990715,-0.047768101175990715
-0.047768101175990715,-0.047768101175990715
-0.04556994089456591,-0.04556994089456591
-0.04666902103527831,-0.04666902103527831
-0.04447086075385351,-0.04447086075385351
-0.04996626145741552,-0.04996626145741552
-0.05985798272382714,-0.05985798272382714
-0.0884340663823496,-0.0884340663823496
-0.14118991313654491,-0.14118991313654491
-0.2247200038306875,-0.2247200038306875
-0.32913261719836573,-0.32913261719836573
-0.4181581085960703,-0.4181581085960703
-0.4280498298624819,-0.4280498298624819
-0.269782289599896,-0.269782289599896
0.13467920218226806,0.13467920218226806
0.809514408579683,0.809514408579683
1.6898776012903172,1.6898776012903172
2.6164021599108724,2.6164021599108724
3.3791637775652794,3.3791637775652794
3.786922509769581,3.786922509769581
3.747355624703934,3.747355624703934
3.295633686871137,3.295633686871137
2.5768352748452257,2.5768352748452257
1.7789030926880218,1.7789030926880218
1.0666991615063852,1.0666991615063852
0.5303480528387329,0.5303480528387329
0.18303872837361373,0.18303872837361373
-0.013696616813906244,-0.013696616813906244
-0.11371290961873486,-0.11371290961873486
-0.16317151595079296,-0.16317151595079296
-0.18845035918717823,-0.18845035918717823
-0.20273840101643945,-0.20273840101643945
-0.21043196200142628,-0.21043196200142628
-0.21482828256427589,-0.21482828256427589
-0.21263012228285108,-0.21263012228285108
-0.21372920242356347,-0.21372920242356347
-0.20823380172000147,-0.20823380172000147
-0.21043196200142628,-0.21043196200142628
-0.20933288186071386,-0.20933288186071386
-0.21153104214213866,-0.21153104214213866
-0.21482828256427589,-0.21482828256427589
-0.21043196200142628,-0.21043196200142628
-0.21153104214213866,-0.21153104214213866
-0.20603564143857667,-0.20603564143857667
-0.20603564143857667,-0.20603564143857667
-0.20603564143857667,-0.20603564143857667
-0.20823380172000147,-0.20823380172000147
-0.21263012228285108,-0.21263012228285108
-0.21482828256427589,-0.21482828256427589
-0.21812552298641308,-0.21812552298641308
-0.22032368326783788,-0.22032368326783788
-0.2214227634085503,-0.2214227634085503
-0.2214227634085503,-0.2214227634085503
-0.2214227634085503,-0.2214227634085503
-0.2192246031271255,-0.2192246031271255
-0.2192246031271255,-0.2192246031271255
-0.21592736270498827,-0.21592736270498827
-0.21482828256427589,-0.21482828256427589
-0.21263012228285108,-0.21263012228285108
-0.21263012228285108,-0.21263012228285108
-0.21153104214213866,-0.21153104214213866
-0.21263012228285108,-0.21263012228285108
-0.21372920242356347,-0.21372920242356347
-0.21812552298641308,-0.21812552298641308
-0.2214227634085503,-0.2214227634085503
-0.2247200038306875,-0.2247200038306875
-0.2258190839713999,-0.2258190839713999
-0.2247200038306875,-0.2247200038306875
-0.2214227634085503,-0.2214227634085503
-0.21812552298641308,-0.21812552298641308
-0.21372920242356347,-0.21372920242356347
-0.20933288186071386,-0.20933288186071386
-0.20493656129786425,-0.20493656129786425
-0.20054024073501464,-0.20054024073501464
-0.19394575989074023,-0.19394575989074023
-0.1873512790464658,-0.1873512790464658
-0.179657718061479,-0.179657718061479
-0.1730632372172046,-0.1730632372172046
-0.16536967623221777,-0.16536967623221777
-0.15657703510651855,-0.15657703510651855
-0.14668531384010694,-0.14668531384010694
-0.1367935925736953,-0.1367935925736953
-0.12470371102585888,-0.12470371102585888
-0.11371290961873486,-0.11371290961873486
-0.10272210821161083,-0.10272210821161083
-0.0906322266637744,-0.0906322266637744
-0.07854234511593798,-0.07854234511593798
-0.06535338342738915,-0.06535338342738915
-0.052164421738840325,-0.052164421738840325
-0.0389754600502915,-0.0389754600502915
-0.02578649836174267,-0.02578649836174267
-0.013696616813906244,-0.013696616813906244
-0.002705815406782223,-0.002705815406782223
0.007185905859629397,0.007185905859629397
0.015978546985328617,0.015978546985328617
0.02367210797031543,0.02367210797031543
0.030266588814589844,0.030266588814589844
0.03796014979957666,0.03796014979957666
0.044554630643851074,0.044554630643851074
0.05114911148812549,0.05114911148812549
0.0555454320509751,0.0555454320509751
0.05994175261382471,0.05994175261382471
0.06213991289524951,0.06213991289524951
0.06543715331738671,0.06543715331738671
0.06763531359881152,0.06763531359881152
0.07203163416166113,0.07203163416166113
0.07532887458379833,0.07532887458379833
0.08082427528736034,0.08082427528736034
0.08631967599092236,0.08631967599092236
0.09291415683519677,0.09291415683519677
0.10170679796089599,0.10170679796089599
0.11379667950873242,0.11379667950873242
0.12918380147870603,0.12918380147870603
0.14786816387081686,0.14786816387081686
0.1720479269664897,0.1720479269664897
0.19952493048429978,0.19952493048429978
0.23249733470567185,0.23249733470567185
0.2698660594898935,0.2698660594898935
0.3105320246962524,0.3105320246962524
0.3533961501840361,0.3533961501840361
0.3984584359532446,0.3984584359532446
0.4457188820038779,0.4457188820038779
0.495177488335936,0.495177488335936
0.5457351748087065,0.5457351748087065
0.5973919414221894,0.5973919414221894
0.6479496278949599,0.6479496278949599
0.697408234227018,0.697408234227018
0.7424705199962265,0.7424705199962265
0.7831364852025854,0.7831364852025854
0.8161088894239574,0.8161088894239574
0.8402886525196303,0.8402886525196303
0.855675774489604,0.855675774489604
0.8611711751931659,0.8611711751931659
0.8578739347710287,0.8578739347710287
0.8457840532231923,0.8457840532231923
0.8249015305496566,0.8249015305496566
0.7963254468911342,0.7963254468911342
0.7578576419662001,0.7578576419662001
0.7116962760562793,0.7116962760562793
0.6600395094427963,0.6600395094427963
0.6039864222664638,0.6039864222664638
0.5457351748087065,0.5457351748087065
0.48528576706952437,0.48528576706952437
0.42483635933034225,0.42483635933034225
0.3665851118725849,0.3665851118725849
0.3116311048369648,0.3116311048369648
0.2577761779420571,0.2577761779420571
0.2094166517507114,0.2094166517507114
0.1632552858407905,0.1632552858407905
0.12478748091585644,0.12478748091585644
0.08851783627234716,0.08851783627234716
0.0566445121916875,0.0566445121916875
0.026969348392452637,0.026969348392452637
0.0027895852967797885,0.0027895852967797885
-0.021390177798893063,-0.021390177798893063
-0.0411736203317163,-0.0411736203317163
-0.05985798272382714,-0.05985798272382714
-0.07414602455308837,-0.07414602455308837
-0.0884340663823496,-0.0884340663823496
-0.09942486778947363,-0.09942486778947363
-0.10931658905588525,-0.10931658905588525
-0.11701015004087206,-0.11701015004087206
-0.12470371102585888,-0.12470371102585888
-0.12910003158870847,-0.12910003158870847
-0.13349635215155808,-0.13349635215155808
-0.1356945124329829,-0.1356945124329829
-0.1389917528551201,-0.1389917528551201
-0.14228899327725733,-0.14228899327725733
-0.14668531384010694,-0.14668531384010694
-0.14998255426224413,-0.14998255426224413
-0.15218071454366894,-0.15218071454366894
-0.15108163440295655,-0.15108163440295655
-0.14338807341796972,-0.14338807341796972
-0.12910003158870847,-0.12910003158870847
-0.10601934863374804,-0.10601934863374804
-0.07634418483451318,-0.07634418483451318
-0.0411736203317163,-0.0411736203317163
-0.002705815406782223,-0.002705815406782223
0.035761989518151856,0.035761989518151856
0.06873439373952392,0.06873439373952392
0.09181507669448437,0.09181507669448437
0.10060771782018359,0.10060771782018359
0.09950863767947118,0.09950863767947118
0.08631967599092236,0.08631967599092236
0.06653623345809911,0.06653623345809911
0.03905922994028906,0.03905922994028906
0.0082849860003418,0.0082849860003418
-0.03128189906530468,-0.03128189906530468
-0.07084878413095116,-0.07084878413095116
-0.11371290961873486,-0.11371290961873486
-0.14998255426224413,-0.14998255426224413
-0.1763604776393418,-0.1763604776393418
-0.19834208045358984,-0.19834208045358984
-0.20493656129786425,-0.20493656129786425
-0.21153104214213866,-0.21153104214213866
-0.21043196200142628,-0.21043196200142628
-0.21043196200142628,-0.21043196200142628
-0.21153104214213866,-0.21153104214213866
-0.21153104214213866,-0.21153104214213866
-0.21482828256427589,-0.21482828256427589
-0.2214227634085503,-0.2214227634085503
-0.24010712580066113,-0.24010712580066113
-0.275277690303458,-0.275277690303458
-0.3390243384647773,-0.3390243384647773
-0.4280498298624819,-0.4280498298624819
-0.5280661226673106,-0.5280661226673106
-0.5885155304064926,-0.5885155304064926
-0.5357596836522973,-0.5357596836522973
-0.28077309100702,-0.28077309100702
0.23249733470567185,0.23249733470567185
0.9864663112343798,0.9864663112343798
1.8712258245078637,1.8712258245078637
2.6966350101828778,2.6966350101828778
3.2593640422276278,3.2593640422276278
3.4198297427716384,3.4198297427716384
3.153852348719237,3.153852348719237
2.563646313156677,2.563646313156677
1.8228662983165178,1.8228662983165178
1.1084642068534565,1.1084642068534565
0.5347443734015824,0.5347443734015824
0.14457092344867967,0.14457092344867967
-0.0884340663823496,-0.0884340663823496
-0.21153104214213866,-0.21153104214213866
-0.2763767704441704,-0.2763767704441704
-0.30934917466554246,-0.30934917466554246
-0.32913261719836573,-0.32913261719836573
-0.33792525832406495,-0.33792525832406495
-0.34561881930905175,-0.34561881930905175
-0.34451973916833933,-0.34451973916833933
-0.34561881930905175,-0.34561881930905175
-0.34122249874620214,-0.34122249874620214
-0.3390243384647773,-0.3390243384647773
-0.33682617818335253,-0.33682617818335253
-0.3324298576205029,-0.3324298576205029
-0.33682617818335253,-0.33682617818335253
-0.3313307774797905,-0.3313307774797905
-0.33792525832406495,-0.33792525832406495
-0.3324298576205029,-0.3324298576205029
-0.33792525832406495,-0.33792525832406495
-0.33682617818335253,-0.33682617818335253
-0.34122249874620214,-0.34122249874620214
-0.34232157888691456,-0.34232157888691456
-0.3434206590276269,-0.3434206590276269
-0.34451973916833933,-0.34451973916833933
-0.34451973916833933,-0.34451973916833933
-0.34561881930905175,-0.34561881930905175
-0.34561881930905175,-0.34561881930905175
-0.34671789944976417,-0.34671789944976417
-0.3478169795904765,-0.3478169795904765
-0.34891605973118894,-0.34891605973118894
-0.34891605973118894,-0.34891605973118894
-0.35001513987190136,-0.35001513987190136
-0.34891605973118894,-0.34891605973118894
-0.34891605973118894,-0.34891605973118894
-0.3478169795904765,-0.3478169795904765
-0.34671789944976417,-0.34671789944976417
-0.3434206590276269,-0.3434206590276269
-0.34122249874620214,-0.34122249874620214
-0.33792525832406495,-0.33792525832406495
-0.33682617818335253,-0.33682617818335253
-0.3357270980426401,-0.3357270980426401
-0.3357270980426401,-0.3357270980426401
-0.3346280179019277,-0.3346280179019277
-0.33352893776121534,-0.33352893776121534
-0.3313307774797905,-0.3313307774797905
-0.3280335370576533,-0.3280335370576533
-0.3236372164948037,-0.3236372164948037
-0.3192408959319541,-0.3192408959319541
-0.31374549522839207,-0.31374549522839207
-0.30934917466554246,-0.30934917466554246
-0.3027546938212681,-0.3027546938212681
-0.29616021297699363,-0.29616021297699363
-0.286268491710582,-0.286268491710582
-0.2763767704441704,-0.2763767704441704
-0.2631878087556216,-0.2631878087556216
-0.25219700734849754,-0.25219700734849754
-0.23900804565994874,-0.23900804565994874
-0.2280172442528247,-0.2280172442528247
-0.21482828256427589,-0.21482828256427589
-0.20273840101643945,-0.20273840101643945
-0.18845035918717823,-0.18845035918717823
-0.1730632372172046,-0.1730632372172046
-0.15657703510651855,-0.15657703510651855
-0.14118991313654491,-0.14118991313654491
-0.12580279116657128,-0.12580279116657128
-0.11151474933731005,-0.11151474933731005
-0.09722670750804882,-0.09722670750804882
-0.08403774581949999,-0.08403774581949999
-0.07194786427166357,-0.07194786427166357
-0.062056143005251946,-0.062056143005251946
-0.05436258202026513,-0.05436258202026513
-0.047768101175990715,-0.047768101175990715
-0.042272700472428704,-0.042272700472428704
-0.0389754600502915,-0.0389754600502915
-0.03567821962815429,-0.03567821962815429
-0.03457913948744189,-0.03457913948744189
-0.033480059346729485,-0.033480059346729485
-0.03238097920601708,-0.03238097920601708
-0.03128189906530468,-0.03128189906530468
-0.027984658643167473,-0.027984658643167473
-0.024687418221030266,-0.024687418221030266
-0.019192017517468258,-0.019192017517468258
-0.013696616813906244,-0.013696616813906244
-0.0049039756882070275,-0.0049039756882070275
0.004987745578204593,0.004987745578204593
0.01817670726675342,0.01817670726675342
0.03246474909601465,0.03246474909601465
0.050050031347413086,0.050050031347413086
0.06983347388023632,0.06983347388023632
0.09291415683519677,0.09291415683519677
0.11819300007158202,0.11819300007158202
0.14567000358939206,0.14567000358939206
0.17534516738862693,0.17534516738862693
0.2094166517507114,0.2094166517507114
0.24568629639422068,0.24568629639422068
0.28525318145986717,0.28525318145986717
0.325919146666226,0.325919146666226
0.3654860317318725,0.3654860317318725
0.4017556763753818,0.4017556763753818
0.43362900045604147,0.43362900045604147
0.4622050841145639,0.4622050841145639
0.48308760678809953,0.48308760678809953
0.4995738088987856,0.4995738088987856
0.5072673698837724,0.5072673698837724
0.5072673698837724,0.5072673698837724
0.4984747287580732,0.4984747287580732
0.48088944650667476,0.48088944650667476
0.4556106032702895,0.4556106032702895
0.42483635933034225,0.42483635933034225
0.38856671468683296,0.38856671468683296
0.3489998296211865,0.3489998296211865
0.3061357041334028,0.3061357041334028
0.2621724985049067,0.2621724985049067
0.2160111325949858,0.2160111325949858
0.1698497666850649,0.1698497666850649
0.12588656105656884,0.12588656105656884
0.08631967599092236,0.08631967599092236
0.05114911148812549,0.05114911148812549
0.019275787407465824,0.019275787407465824
-0.008201216110344235,-0.008201216110344235
-0.033480059346729485,-0.033480059346729485
-0.056560742301689934,-0.056560742301689934
-0.07744326497522558,-0.07744326497522558
-0.09722670750804882,-0.09722670750804882
-0.11261382947802245,-0.11261382947802245
-0.12580279116657128,-0.12580279116657128
-0.1367935925736953,-0.1367935925736953
-0.14558623369939452,-0.14558623369939452
-0.15218071454366894,-0.15218071454366894
-0.15657703510651855,-0.15657703510651855
-0.16097335566936816,-0.16097335566936816
-0.16427059609150538,-0.16427059609150538
-0.16646875637293018,-0.16646875637293018
-0.168666916654355,-0.168666916654355
-0.1708650769357798,-0.1708650769357798
-0.1730632372172046,-0.1730632372172046
-0.1763604776393418,-0.1763604776393418
-0.1774595577800542,-0.1774595577800542
-0.1774595577800542,-0.1774595577800542
-0.1763604776393418,-0.1763604776393418
-0.17416231735791698,-0.17416231735791698
-0.17196415707649218,-0.17196415707649218
-0.1730632372172046,-0.1730632372172046
-0.1752613974986294,-0.1752613974986294
-0.1763604776393418,-0.1763604776393418
-0.1763604776393418,-0.1763604776393418
-0.168666916654355,-0.168666916654355
-0.15327979468438135,-0.15327979468438135
-0.1280009514479961,-0.1280009514479961
-0.09502854722662402,-0.09502854722662402
-0.056560742301689934,-0.056560742301689934
-0.013696616813906244,-0.013696616813906244
0.02806842853316504,0.02806842853316504
0.06543715331738671,0.06543715331738671
0.09181507669448437,0.09181507669448437
0.1039049582423208,0.1039049582423208
0.1039049582423208,0.1039049582423208
0.08961691641305956,0.08961691641305956
0.06653623345809911,0.06653623345809911
0.035761989518151856,0.035761989518151856
0.000591425015354984,0.000591425015354984
-0.0411736203317163,-0.0411736203317163
-0.0862359061009248,-0.0862359061009248
-0.13129819187013328,-0.13129819187013328
-0.1774595577800542,-0.1774595577800542
-0.20823380172000147,-0.20823380172000147
-0.2412062059413735,-0.2412062059413735
-0.24560252650422312,-0.24560252650422312
-0.24560252650422312,-0.24560252650422312
-0.21592736270498827,-0.21592736270498827
-0.179657718061479,-0.179657718061479
-0.1345954322922705,-0.1345954322922705
-0.09942486778947363,-0.09942486778947363
-0.08403774581949999,-0.08403774581949999
-0.09283038694519921,-0.09283038694519921
-0.13129819187013328,-0.13129819187013328
-0.19284667975002784,-0.19284667975002784
-0.28077309100702,-0.28077309100702
-0.387383864656123,-0.387383864656123
-0.4994900390087881,-0.4994900390087881
-0.5753265687179439,-0.5753265687179439
-0.545651404918709,-0.545651404918709
-0.3236372164948037,-0.3236372164948037
0.1555617248558037,0.1555617248558037
0.888648178710976,0.888648178710976
1.7789030926880218,1.7789030926880218
2.6438791634286822,2.6438791634286822
3.2725530039161765,3.2725530039161765
3.5110533944507676,3.5110533944507676
3.314318049263248,3.314318049263248
2.7680752193291838,2.7680752193291838
2.039385086036861,2.039385086036861
1.3117940328852509,1.3117940328852509
0.713894436337704,0.713894436337704
0.29624398286699116,0.29624398286699116
0.04565371078456348,0.04565371078456348
-0.0873349862416372,-0.0873349862416372
-0.15218071454366894,-0.15218071454366894
-0.18185587834290382,-0.18185587834290382
-0.19394575989074023,-0.19394575989074023
-0.19944116059430225,-0.19944116059430225
-0.20054024073501464,-0.20054024073501464
-0.20054024073501464,-0.20054024073501464
-0.20054024073501464,-0.20054024073501464
-0.19614392017216503,-0.19614392017216503
-0.19504484003145264,-0.19504484003145264
-0.19174759960931542,-0.19174759960931542
-0.19064851946860303,-0.19064851946860303
-0.19504484003145264,-0.19504484003145264
-0.19394575989074023,-0.19394575989074023
-0.20163932087572706,-0.20163932087572706
-0.20054024073501464,-0.20054024073501464
-0.20383748115715186,-0.20383748115715186
-0.20603564143857667,-0.20603564143857667
-0.20823380172000147,-0.20823380172000147
-0.21263012228285108,-0.21263012228285108
-0.21263012228285108,-0.21263012228285108
-0.21263012228285108,-0.21263012228285108
-0.21043196200142628,-0.21043196200142628
-0.20933288186071386,-0.20933288186071386
-0.20603564143857667,-0.20603564143857667
-0.20713472157928906,-0.20713472157928906
-0.20713472157928906,-0.20713472157928906
-0.20933288186071386,-0.20933288186071386
-0.21043196200142628,-0.21043196200142628
-0.21263012228285108,-0.21263012228285108
-0.21482828256427589,-0.21482828256427589
-0.21812552298641308,-0.21812552298641308
-0.2225218435492627,-0.2225218435492627
-0.2280172442528247,-0.2280172442528247
-0.2335126449563867,-0.2335126449563867
-0.23900804565994874,-0.23900804565994874
-0.24450344636351073,-0.24450344636351073
-0.24780068678564793,-0.24780068678564793
-0.24999884706707273,-0.24999884706707273
-0.24889976692636034,-0.24889976692636034
-0.24670160664493554,-0.24670160664493554
-0.24230528608208593,-0.24230528608208593
-0.23790896551923632,-0.23790896551923632
-0.23241356481567432,-0.23241356481567432
-0.2280172442528247,-0.2280172442528247
-0.2225218435492627,-0.2225218435492627
-0.21372920242356347,-0.21372920242356347
-0.20493656129786425,-0.20493656129786425
-0.19504484003145264,-0.19504484003145264
-0.185153118765041,-0.185153118765041
-0.1752613974986294,-0.1752613974986294
-0.16646875637293018,-0.16646875637293018
-0.15547795496580616,-0.15547795496580616
-0.14558623369939452,-0.14558623369939452
-0.1323972720108457,-0.1323972720108457
-0.11701015004087206,-0.11701015004087206
-0.10052394793018603,-0.10052394793018603
-0.08403774581949999,-0.08403774581949999
-0.06645246356810156,-0.06645246356810156
-0.04996626145741552,-0.04996626145741552
-0.03457913948744189,-0.03457913948744189
-0.02029109765818066,-0.02029109765818066
-0.007102135969631832,-0.007102135969631832
0.003888665437492191,0.003888665437492191
0.014879466844616213,0.014879466844616213
0.022573027829603028,0.022573027829603028
0.02916750867387744,0.02916750867387744
0.03466290937743945,0.03466290937743945
0.040158310081001465,0.040158310081001465
0.044554630643851074,0.044554630643851074
0.048950951206700684,0.048950951206700684
0.05224819162883789,0.05224819162883789
0.0555454320509751,0.0555454320509751
0.0566445121916875,0.0566445121916875
0.0566445121916875,0.0566445121916875
0.0555454320509751,0.0555454320509751
0.0566445121916875,0.0566445121916875
0.05994175261382471,0.05994175261382471
0.06433807317667431,0.06433807317667431
0.07093255402094872,0.07093255402094872
0.07972519514664794,0.07972519514664794
0.09071599655377197,0.09071599655377197
0.10280587810160839,0.10280587810160839
0.12039116035300683,0.12039116035300683
0.14127368302654245,0.14127368302654245
0.1665525262629277,0.1665525262629277
0.19512860992145017,0.19512860992145017
0.22810101414282224,0.22810101414282224
0.2632715786456191,0.2632715786456191
0.30393754385197796,0.30393754385197796
0.3468016693397617,0.3468016693397617
0.39626027567181976,0.39626027567181976
0.4479170422853027,0.4479170422853027
0.5028710493209227,0.5028710493209227
0.5589241364972554,0.5589241364972554
0.6171753839550126,0.6171753839550126
0.6743275512720576,0.6743275512720576
0.7292815583076777,0.7292815583076777
0.7787401646397357,0.7787401646397357
0.8249015305496566,0.8249015305496566
0.8644684156153032,0.8644684156153032
0.8985398999773876,0.8985398999773876
0.9238187432137729,0.9238187432137729
0.9425031056058837,0.9425031056058837
0.9501966665908705,0.9501966665908705
0.9501966665908705,0.9501966665908705
0.9403049453244589,0.9403049453244589
0.9238187432137729,0.9238187432137729
0.8985398999773876,0.8985398999773876
0.8677656560374404,0.8677656560374404
0.8303969312532187,0.8303969312532187
0.7897309660468598,0.7897309660468598
0.7435696001369388,0.7435696001369388
0.6963091540863056,0.6963091540863056
0.6479496278949599,0.6479496278949599
0.6006891818443266,0.6006891818443266
0.5534287357936933,0.5534287357936933
0.5105646103059096,0.5105646103059096
0.46879956495883834,0.46879956495883834
0.43252992031532905,0.43252992031532905
0.39626027567181976,0.39626027567181976
0.3632878714504477,0.3632878714504477
0.3303154672290756,0.3303154672290756
0.29954122328912836,0.29954122328912836
0.2665688190677563,0.2665688190677563
0.23909181554994627,0.23909181554994627
0.21930837301712303,0.21930837301712303
0.22150653329854783,0.22150653329854783
0.24238905597208346,0.24238905597208346
0.29294674244485397,0.29294674244485397
0.3555943104654609,0.3555943104654609
0.42923267989319186,0.42923267989319186
0.49188024791379875,0.49188024791379875
0.5501314953715561,0.5501314953715561
0.6105809031107382,0.6105809031107382
0.6963091540863056,0.6963091540863056
0.8249015305496566,0.8249015305496566
1.0051506736264906,1.0051506736264906
1.2337593428946703,1.2337593428946703
1.4887459355399477,1.4887459355399477
1.7514260891702118,1.7514260891702118
1.9965209605490775,1.9965209605490775
2.2075443475658587,2.2075443475658587
2.3746045289541438,2.3746045289541438
2.4998996649953575,2.4998996649953575
2.5922223968151994,2.5922223968151994
2.6724552470872047,2.6724552470872047
2.758183498062772,2.758183498062772
2.8538034703047512,2.8538034703047512
2.938432641139606,2.938432641139606
2.9779995262052528,2.9779995262052528
2.9285409198731944,2.9285409198731944
2.765877059047759,2.765877059047759
2.4867107033068088,2.4867107033068088
2.118518856168154,2.118518856168154
1.6986702424160165,1.6986702424160165
1.26563266697533,1.26563266697533
0.8468831333639047,0.8468831333639047
0.4666014046774135,0.4666014046774135
0.13687736246369286,0.13687736246369286
-0.1280009514479961,-0.1280009514479961
-0.3203399760726665,-0.3203399760726665
-0.4434369518324555,-0.4434369518324555
-0.5093817602751997,-0.5093817602751997
-0.5379578439337221,-0.5379578439337221
-0.5478495652001337,-0.5478495652001337
-0.5522458857629834,-0.5522458857629834
-0.5544440460444082,-0.5544440460444082
-0.5577412864665454,-0.5577412864665454
-0.5588403666072578,-0.5588403666072578
-0.5599394467479701,-0.5599394467479701
-0.5588403666072578,-0.5588403666072578
-0.5588403666072578,-0.5588403666072578
-0.5577412864665454,-0.5577412864665454
-0.5588403666072578,-0.5588403666072578
-0.5599394467479701,-0.5599394467479701
-0.5632366871701074,-0.5632366871701074
-0.567633007732957,-0.567633007732957
-0.573128408436519,-0.573128408436519
-0.5819210495622182,-0.5819210495622182
-0.5874164502657803,-0.5874164502657803
-0.5984072516729042,-0.5984072516729042
-0.6050017325171787,-0.6050017325171787
-0.61928977434644,-0.61928977434644
-0.6302805757535639,-0.6302805757535639
-0.6489649381456748,-0.6489649381456748
-0.663252979974936,-0.663252979974936
-0.6841355026484717,-0.6841355026484717
-0.6995226246184453,-0.6995226246184453
-0.7193060671512685,-0.7193060671512685
-0.7357922692619545,-0.7357922692619545
-0.758872952216915,-0.758872952216915
-0.7797554748904506,-0.7797554748904506
-0.8050343181268359,-0.8050343181268359
-0.8281150010817964,-0.8281150010817964
-0.8533938443181815,-0.8533938443181815
-0.8742763669917172,-0.8742763669917172
-0.8962579698059653,-0.8962579698059653
-0.9138432520573637,-0.9138432520573637
-0.9325276144494745,-0.9325276144494745
-0.9468156562787358,-0.9468156562787358
-0.9633018583894218,-0.9633018583894218
-0.9753917399372583,-0.9753917399372583
-0.9896797817665195,-0.9896797817665195
-1.0006705831736435,-1.0006705831736435
-1.0116613845807676,-1.0116613845807676
-1.0193549455657542,-1.0193549455657542
-1.0259494264100288,-1.0259494264100288
-1.0325439072543032,-1.0325439072543032
-1.0424356285207148,-1.0424356285207148
-1.051228269646414,-1.051228269646414
-1.0633181511942504,-1.0633181511942504
-1.0743089526013745,-1.0743089526013745
-1.0852997540084985,-1.0852997540084985
-1.0940923951341976,-1.0940923951341976
-1.1017859561191845,-1.1017859561191845
-1.1072813568227464,-1.1072813568227464
-1.1138758376670208,-1.1138758376670208
-1.1149749178077333,-1.1149749178077333
-1.1182721582298705,-1.1182721582298705
-1.1160739979484458,-1.1160739979484458
-1.1160739979484458,-1.1160739979484458
-1.1094795171041714,-1.1094795171041714
-1.1050831965413217,-1.1050831965413217
-1.0940923951341976,-1.0940923951341976
-1.0885969944306357,-1.0885969944306357
-1.0776061930235117,-1.0776061930235117
-1.0721107923199495,-1.0721107923199495
-1.0611199909128257,-1.0611199909128257
-1.0556245902092636,-1.0556245902092636
-1.0435347086614273,-1.0435347086614273
-1.0380393079578651,-1.0380393079578651
-1.0259494264100288,-1.0259494264100288
-1.018255865425042,-1.018255865425042
-1.0061659838772055,-1.0061659838772055
-0.9973733427515062,-0.9973733427515062
-0.9841843810629575,-0.9841843810629575
-0.9720944995151211,-0.9720944995151211
-0.9567073775451473,-0.9567073775451473
-0.9424193357158862,-0.9424193357158862
-0.9226358931830629,-0.9226358931830629
-0.9017533705095273,-0.9017533705095273
-0.876474527273142,-0.876474527273142
-0.8500966038960444,-0.8500966038960444
-0.8204214400968095,-0.8204214400968095
-0.791845356438287,-0.791845356438287
-0.7599720323576274,-0.7599720323576274
-0.7280987082769678,-0.7280987082769678
-0.6918290636334584,-0.6918290636334584
-0.6544603388492368,-0.6544603388492368
-0.6148934537835903,-0.6148934537835903
-0.5742274885772314,-0.5742274885772314
-0.534660603511585,-0.534660603511585
-0.49619279858665083,-0.49619279858665083
-0.4588240738024292,-0.4588240738024292
-0.4225544291589199,-0.4225544291589199
-0.38628478451541065,-0.38628478451541065
-0.35221330015332614,-0.35221330015332614
-0.3203399760726665,-0.3203399760726665
-0.291763892414144,-0.291763892414144
-0.26538596903704637,-0.26538596903704637
-0.24230528608208593,-0.24230528608208593
-0.2214227634085503,-0.2214227634085503
-0.20383748115715186,-0.20383748115715186
-0.18625219890575342,-0.18625219890575342
-0.1730632372172046,-0.1730632372172046
-0.15877519538794335,-0.15877519538794335
-0.14888347412153174,-0.14888347412153174
-0.1378926727144077,-0.1378926727144077
-0.1301991117294209,-0.1301991117294209
-0.12140647060372167,-0.12140647060372167
-0.11810923018158447,-0.11810923018158447
-0.11261382947802245,-0.11261382947802245
-0.11261382947802245,-0.11261382947802245
-0.11041566919659765,-0.11041566919659765
-0.11151474933731005,-0.11151474933731005
-0.11041566919659765,-0.11041566919659765
-0.11261382947802245,-0.11261382947802245
-0.11371290961873486,-0.11371290961873486
-0.11701015004087206,-0.11701015004087206
-0.12140647060372167,-0.12140647060372167
-0.12690187130728367,-0.12690187130728367
-0.1301991117294209,-0.1301991117294209
-0.13349635215155808,-0.13349635215155808
-0.1345954322922705,-0.1345954322922705
-0.1356945124329829,-0.1356945124329829
-0.1367935925736953,-0.1367935925736953
-0.1389917528551201,-0.1389917528551201
-0.14338807341796972,-0.14338807341796972
-0.14778439398081933,-0.14778439398081933
-0.15218071454366894,-0.15218071454366894
-0.15657703510651855,-0.15657703510651855
-0.16097335566936816,-0.16097335566936816
-0.16317151595079296,-0.16317151595079296
-0.16536967623221777,-0.16536967623221777
-0.16536967623221777,-0.16536967623221777
-0.16536967623221777,-0.16536967623221777
-0.16317151595079296,-0.16317151595079296
-0.16207243581008057,-0.16207243581008057
-0.15987427552865577,-0.15987427552865577
-0.15987427552865577,-0.15987427552865577
-0.15987427552865577,-0.15987427552865577
-0.16097335566936816,-0.16097335566936816
-0.16427059609150538,-0.16427059609150538
-0.16646875637293018,-0.16646875637293018
-0.168666916654355,-0.168666916654355
-0.1708650769357798,-0.1708650769357798
-0.1730632372172046,-0.1730632372172046
-0.17416231735791698,-0.17416231735791698
-0.1752613974986294,-0.1752613974986294
-0.1752613974986294,-0.1752613974986294
-0.1752613974986294,-0.1752613974986294
-0.17416231735791698,-0.17416231735791698
-0.1730632372172046,-0.1730632372172046
-0.1708650769357798,-0.1708650769357798
-0.168666916654355,-0.168666916654355
-0.16646875637293018,-0.16646875637293018
-0.16427059609150538,-0.16427059609150538
-0.16097335566936816,-0.16097335566936816
-0.15987427552865577,-0.15987427552865577
-0.15987427552865577,-0.15987427552865577
-0.16097335566936816,-0.16097335566936816
-0.16097335566936816,-0.16097335566936816
-0.16317151595079296,-0.16317151595079296
-0.16536967623221777,-0.16536967623221777
-0.16646875637293018,-0.16646875637293018
-0.16646875637293018,-0.16646875637293018
-0.16536967623221777,-0.16536967623221777
-0.16536967623221777,-0.16536967623221777
-0.16427059609150538,-0.16427059609150538
-0.16317151595079296,-0.16317151595079296
-0.16207243581008057,-0.16207243581008057
-0.16317151595079296,-0.16317151595079296
-0.16427059609150538,-0.16427059609150538
-0.16427059609150538,-0.16427059609150538
-0.16317151595079296,-0.16317151595079296
-0.15987427552865577,-0.15987427552865577
-0.15877519538794335,-0.15877519538794335
-0.15767611524723096,-0.15767611524723096
-0.15987427552865577,-0.15987427552865577
-0.16207243581008057,-0.16207243581008057
-0.16317151595079296,-0.16317151595079296
-0.15657703510651855,-0.15657703510651855
-0.14228899327725733,-0.14228899327725733
-0.11701015004087206,-0.11701015004087206
-0.0851368259602124,-0.0851368259602124
-0.04666902103527831,-0.04666902103527831
-0.00600305582891943,-0.00600305582891943
0.03686106965886426,0.03686106965886426
0.07313071430237353,0.07313071430237353
0.10280587810160839,0.10280587810160839
0.12039116035300683,0.12039116035300683
0.12588656105656884,0.12588656105656884
0.11929208021229443,0.11929208021229443
0.1050040383830332,0.1050040383830332
0.08192335542807275,0.08192335542807275
0.054446351910262696,0.054446351910262696
0.01707762712604102,0.01707762712604102
-0.022489257939605465,-0.022489257939605465
-0.06974970399023876,-0.06974970399023876
-0.11261382947802245,-0.11261382947802245
-0.14668531384010694,-0.14668531384010694
-0.17196415707649218,-0.17196415707649218
-0.179657718061479,-0.179657718061479
-0.1829549584836162,-0.1829549584836162
-0.1763604776393418,-0.1763604776393418
-0.1730632372172046,-0.1730632372172046
-0.1730632372172046,-0.1730632372172046
-0.17196415707649218,-0.17196415707649218
-0.17416231735791698,-0.17416231735791698
-0.1763604776393418,-0.1763604776393418
-0.18625219890575342,-0.18625219890575342
-0.20823380172000147,-0.20823380172000147
-0.25439516762992237,-0.25439516762992237
-0.32913261719836573,-0.32913261719836573
-0.4302479901439067,-0.4302479901439067
-0.5269670425265981,-0.5269670425265981
-0.5588403666072578,-0.5588403666072578
-0.4401397114103183,-0.4401397114103183
-0.0862359061009248,-0.0862359061009248
0.5413388542458569,0.5413388542458569
1.3909278030165437,1.3909278030165437
2.3152542013556743,2.3152542013556743
3.098898341683617,3.098898341683617
3.547323039094277,3.547323039094277
3.5495211993757017,3.5495211993757017
3.131870745904989,3.131870745904989
2.432855776411901,2.432855776411901
1.6459143956618212,1.6459143956618212
0.9381067850430341,0.9381067850430341
0.4072510770789438,0.4072510770789438
0.06213991289524951,0.06213991289524951
-0.13129819187013328,-0.13129819187013328
-0.2335126449563867,-0.2335126449563867
-0.28516941156986964,-0.28516941156986964
-0.3148445753691045,-0.3148445753691045
-0.3313307774797905,-0.3313307774797905
-0.3434206590276269,-0.3434206590276269
-0.34561881930905175,-0.34561881930905175
-0.3478169795904765,-0.3478169795904765
-0.34122249874620214,-0.34122249874620214
-0.3390243384647773,-0.3390243384647773
-0.33352893776121534,-0.33352893776121534
-0.3302316973390781,-0.3302316973390781
-0.3313307774797905,-0.3313307774797905
-0.3258353767762285,-0.3258353767762285
-0.3324298576205029,-0.3324298576205029
-0.3258353767762285,-0.3258353767762285
-0.3302316973390781,-0.3302316973390781
-0.3280335370576533,-0.3280335370576533
-0.3324298576205029,-0.3324298576205029
-0.3324298576205029,-0.3324298576205029
-0.3346280179019277,-0.3346280179019277
-0.3346280179019277,-0.3346280179019277
-0.3357270980426401,-0.3357270980426401
-0.33682617818335253,-0.33682617818335253
-0.33682617818335253,-0.33682617818335253
-0.33682617818335253,-0.33682617818335253
-0.3357270980426401,-0.3357270980426401
-0.3357270980426401,-0.3357270980426401
-0.33352893776121534,-0.33352893776121534
-0.3324298576205029,-0.3324298576205029
-0.3324298576205029,-0.3324298576205029
-0.33352893776121534,-0.33352893776121534
-0.3324298576205029,-0.3324298576205029
-0.3324298576205029,-0.3324298576205029
-0.3324298576205029,-0.3324298576205029
-0.3324298576205029,-0.3324298576205029
-0.3313307774797905,-0.3313307774797905
-0.3313307774797905,-0.3313307774797905
-0.3302316973390781,-0.3302316973390781
-0.3280335370576533,-0.3280335370576533
-0.3236372164948037,-0.3236372164948037
-0.3192408959319541,-0.3192408959319541
-0.31264641508767965,-0.31264641508767965
-0.3071510143841177,-0.3071510143841177
-0.29835837325841846,-0.29835837325841846
-0.291763892414144,-0.291763892414144
-0.2840703314291572,-0.2840703314291572
-0.2763767704441704,-0.2763767704441704
-0.2664850491777588,-0.2664850491777588
-0.25769240805205956,-0.25769240805205956
-0.24780068678564793,-0.24780068678564793
-0.23680988537852393,-0.23680988537852393
-0.2258190839713999,-0.2258190839713999
-0.21482828256427589,-0.21482828256427589
-0.20163932087572706,-0.20163932087572706
-0.18845035918717823,-0.18845035918717823
-0.1730632372172046,-0.1730632372172046
-0.15767611524723096,-0.15767611524723096
-0.1400908329958325,-0.1400908329958325
-0.12360463088514648,-0.12360463088514648
-0.10492026849303564,-0.10492026849303564
-0.0884340663823496,-0.0884340663823496
-0.06974970399023876,-0.06974970399023876
-0.052164421738840325,-0.052164421738840325
-0.03567821962815429,-0.03567821962815429
-0.021390177798893063,-0.021390177798893063
-0.008201216110344235,-0.008201216110344235
0.0016905051560673864,0.0016905051560673864
0.010483146281766604,0.010483146281766604
0.019275787407465824,0.019275787407465824
0.02806842853316504,0.02806842853316504
0.03796014979957666,0.03796014979957666
0.04565371078456348,0.04565371078456348
0.054446351910262696,0.054446351910262696
0.06213991289524951,0.06213991289524951
0.07093255402094872,0.07093255402094872
0.07752703486522314,0.07752703486522314
0.08851783627234716,0.08851783627234716
0.09621139725733398,0.09621139725733398
0.1094003589458828,0.1094003589458828
0.12039116035300683,0.12039116035300683
0.13907552274511767,0.13907552274511767
0.15666080499651608,0.15666080499651608
0.18303872837361373,0.18303872837361373
0.208317571609999,0.208317571609999
0.24019089569065866,0.24019089569065866
0.27206421977131834,0.27206421977131834
0.3138292651183896,0.3138292651183896
0.3566933906061733,0.3566933906061733
0.4116473976417934,0.4116473976417934
0.4666014046774135,0.4666014046774135
0.5303480528387329,0.5303480528387329
0.5951937811407646,0.5951937811407646
0.6666339902870707,0.6666339902870707
0.7402723597148017,0.7402723597148017
0.8227033702682318,0.8227033702682318
0.9084316212437993,0.9084316212437993
0.9996552729229287,0.9996552729229287
1.0919780047427705,1.0919780047427705
1.1886970571254618,1.1886970571254618
1.2832179492267284,1.2832179492267284
1.377738841327995,1.377738841327995
1.467863412866412,1.467863412866412
1.5535916638419793,1.5535916638419793
1.6327254339732724,1.6327254339732724
1.7041656431195784,1.7041656431195784
1.7646150508587606,1.7646150508587606
1.8151727373315312,1.8151727373315312
1.85583870253789,1.85583870253789
1.8833157060557,1.8833157060557
1.9009009883070984,1.9009009883070984
1.9074954691513728,1.9074954691513728
1.9020000684478109,1.9020000684478109
1.8866129464778372,1.8866129464778372
1.8624331833821643,1.8624331833821643
1.8294607791607924,1.8294607791607924
1.787695733813721,1.787695733813721
1.7448316083259374,1.7448316083259374
1.692075761571742,1.692075761571742
1.642617155239684,1.642617155239684
1.579969587219077,1.579969587219077
1.5261146603241693,1.5261146603241693
1.454674451177863,1.454674451177863
1.3964232037201059,1.3964232037201059
1.3216857541516625,1.3216857541516625
1.254641865568206,1.254641865568206
1.1722108550147758,1.1722108550147758
1.085383523898496,1.085383523898496
0.9787727502493929,0.9787727502493929
0.8611711751931659,0.8611711751931659
0.7292815583076777,0.7292815583076777
0.6006891818443266,0.6006891818443266
0.48088944650667476,0.48088944650667476
0.3984584359532446,0.3984584359532446
0.3654860317318725,0.3654860317318725
0.4138455579232182,0.4138455579232182
0.5567259762158305,0.5567259762158305
0.8238024504089443,0.8238024504089443
1.2150749805025594,1.2150749805025594
1.7217509253709768,1.7217509253709768
2.2833808772750146,2.2833808772750146
2.8109393448169677,2.8109393448169677
3.1747348713927726,3.1747348713927726
3.265958523071902,3.265958523071902
3.0208636516930363,3.0208636516930363
2.4669272607739856,2.4669272607739856
1.7096610438231405,1.7096610438231405
0.9117288616659365,0.9117288616659365
0.22370469357997264,0.22370469357997264
-0.25549424777063473,-0.25549424777063473
-0.5093817602751997,-0.5093817602751997
-0.5874164502657803,-0.5874164502657803
-0.5687320878736694,-0.5687320878736694
-0.5258679623858857,-0.5258679623858857
-0.49619279858665083,-0.49619279858665083
-0.4917964780238012,-0.4917964780238012
-0.5016881992902129,-0.5016881992902129
-0.5170753212601865,-0.5170753212601865
-0.5335615233708725,-0.5335615233708725
-0.5566422063258329,-0.5566422063258329
-0.5863173701250678,-0.5863173701250678
-0.6258842551907143,-0.6258842551907143
-0.6676493005377856,-0.6676493005377856
-0.7006217047591576,-0.7006217047591576
-0.7269996281362553,-0.7269996281362553
-0.7379904295433793,-0.7379904295433793
-0.7456839905283662,-0.7456839905283662
-0.7467830706690786,-0.7467830706690786
-0.7478821508097909,-0.7478821508097909
-0.7544766316540654,-0.7544766316540654
-0.7566747919354901,-0.7566747919354901
-0.7687646734833266,-0.7687646734833266
-0.7742600741868886,-0.7742600741868886
-0.7874490358754375,-0.7874490358754375
-0.7951425968604242,-0.7951425968604242
-0.8072324784082607,-0.8072324784082607
-0.81602511953396,-0.81602511953396
-0.8303131613632211,-0.8303131613632211
-0.8413039627703451,-0.8413039627703451
-0.8588892450217436,-0.8588892450217436
-0.8742763669917172,-0.8742763669917172
-0.8940598095245404,-0.8940598095245404
-0.9105460116352265,-0.9105460116352265
-0.9325276144494745,-0.9325276144494745
-0.9534101371230101,-0.9534101371230101
-0.9808871406408203,-0.9808871406408203
-1.0083641441586304,-1.0083641441586304
-1.0402374682392899,-1.0402374682392899
-1.0743089526013745,-1.0743089526013745
-1.1149749178077333,-1.1149749178077333
-1.163334443999079,-1.163334443999079
-1.2171893708939867,-1.2171893708939867
-1.2688461375074696,-1.2688461375074696
-1.3117102629952533,-1.3117102629952533
-1.3336918658095014,-1.3336918658095014
-1.3391872665130633,-1.3391872665130633
-1.332592785668789,-1.332592785668789
-1.335890026090926,-1.335890026090926
-1.3567725487644617,-1.3567725487644617
-1.4084293153779448,-1.4084293153779448
-1.4798695245242508,-1.4798695245242508
-1.5612014549369686,-1.5612014549369686
-1.6304435038018499,-1.6304435038018499
-1.6842984306967577,-1.6842984306967577
-1.7106763540738554,-1.7106763540738554
-1.7227662356216917,-1.7227662356216917
-1.7128745143552802,-1.7128745143552802
-1.6996855526667314,-1.6996855526667314
-1.6755057895710586,-1.6755057895710586
-1.654623266897523,-1.654623266897523
-1.6271462633797127,-1.6271462633797127
-1.608461900987602,-1.608461900987602
-1.586480298173354,-1.586480298173354
-1.5732913364848051,-1.5732913364848051
-1.5546069740926942,-1.5546069740926942
-1.5425170925448577,-1.5425170925448577
-1.523832730152747,-1.523832730152747
-1.5084456081827733,-1.5084456081827733
-1.4864640053685252,-1.4864640053685252
-1.466680562835702,-1.466680562835702
-1.4425007997400292,-1.4425007997400292
-1.4216182770664936,-1.4216182770664936
-1.3963394338301083,-1.3963394338301083
-1.3721596707344355,-1.3721596707344355
-1.3457817473573377,-1.3457817473573377
-1.3194038239802401,-1.3194038239802401
-1.2897286601810052,-1.2897286601810052
-1.258954416241058,-1.258954416241058
-1.223783851738261,-1.223783851738261
-1.1886132872354642,-1.1886132872354642
-1.146848241888393,-1.146848241888393
-1.102885036259897,-1.102885036259897
-1.0523273497871264,-1.0523273497871264
-0.9995715030329311,-0.9995715030329311
-0.9391220952937489,-0.9391220952937489
-0.8753754471324297,-0.8753754471324297
-0.8061333982675483,-0.8061333982675483
-0.7335941089805298,-0.7335941089805298
-0.657757579271374,-0.657757579271374
-0.5808219694215059,-0.5808219694215059
-0.5038863595716376,-0.5038863595716376
-0.4324461504253315,-0.4324461504253315
-0.36540226184187496,-0.36540226184187496
-0.3071510143841177,-0.3071510143841177
-0.25439516762992237,-0.25439516762992237
-0.21043196200142628,-0.21043196200142628
-0.16976599679506738,-0.16976599679506738
-0.1400908329958325,-0.1400908329958325
-0.11371290961873486,-0.11371290961873486
-0.09612762736733642,-0.09612762736733642
-0.08293866567878759,-0.08293866567878759
-0.07634418483451318,-0.07634418483451318
-0.06974970399023876,-0.06974970399023876
-0.06974970399023876,-0.06974970399023876
-0.06645246356810156,-0.06645246356810156
-0.06865062384952636,-0.06865062384952636
-0.06865062384952636,-0.06865062384952636
-0.07304694441237597,-0.07304694441237597
-0.07414602455308837,-0.07414602455308837
-0.07744326497522558,-0.07744326497522558
-0.07744326497522558,-0.07744326497522558
-0.07964142525665038,-0.07964142525665038
-0.07634418483451318,-0.07634418483451318
-0.07414602455308837,-0.07414602455308837
-0.06755154370881396,-0.06755154370881396
-0.05985798272382714,-0.05985798272382714
-0.04886718131670312,-0.04886718131670312
-0.037876379909579094,-0.037876379909579094
-0.02578649836174267,-0.02578649836174267
-0.013696616813906244,-0.013696616813906244
-0.002705815406782223,-0.002705815406782223
0.007185905859629397,0.007185905859629397
0.015978546985328617,0.015978546985328617
0.022573027829603028,0.022573027829603028
0.02806842853316504,0.02806842853316504
0.03246474909601465,0.03246474909601465
0.03356382923672705,0.03356382923672705
0.031365668955302246,0.031365668955302246
0.025870268251740235,0.025870268251740235
0.01707762712604102,0.01707762712604102
0.006086825718916995,0.006086825718916995
-0.009300296251056637,-0.009300296251056637
-0.023588338080317867,-0.023588338080317867
-0.03677729976886669,-0.03677729976886669
-0.04886718131670312,-0.04886718131670312
-0.057659822442402336,-0.057659822442402336
-0.062056143005251946,-0.062056143005251946
-0.06535338342738915,-0.06535338342738915
-0.06645246356810156,-0.06645246356810156
-0.06865062384952636,-0.06865062384952636
-0.06974970399023876,-0.06974970399023876
-0.07194786427166357,-0.07194786427166357
-0.07414602455308837,-0.07414602455308837
-0.07744326497522558,-0.07744326497522558
-0.08074050539736279,-0.08074050539736279
-0.08403774581949999,-0.08403774581949999
-0.0862359061009248,-0.0862359061009248
-0.0873349862416372,-0.0873349862416372
-0.0873349862416372,-0.0873349862416372
-0.0873349862416372,-0.0873349862416372
-0.0862359061009248,-0.0862359061009248
-0.0873349862416372,-0.0873349862416372
-0.0884340663823496,-0.0884340663823496
-0.0906322266637744,-0.0906322266637744
-0.09173130680448681,-0.09173130680448681
-0.09283038694519921,-0.09283038694519921
-0.09173130680448681,-0.09173130680448681
-0.0906322266637744,-0.0906322266637744
-0.0884340663823496,-0.0884340663823496
-0.0862359061009248,-0.0862359061009248
-0.0851368259602124,-0.0851368259602124
-0.08403774581949999,-0.08403774581949999
-0.08403774581949999,-0.08403774581949999
-0.08293866567878759,-0.08293866567878759
-0.08293866567878759,-0.08293866567878759
-0.08183958553807519,-0.08183958553807519
-0.07964142525665038,-0.07964142525665038
-0.07744326497522558,-0.07744326497522558
-0.07634418483451318,-0.07634418483451318
-0.07524510469380077,-0.07524510469380077
-0.07304694441237597,-0.07304694441237597
-0.07194786427166357,-0.07194786427166357
-0.06974970399023876,-0.06974970399023876
-0.06755154370881396,-0.06755154370881396
-0.06535338342738915,-0.06535338342738915
-0.06315522314596435,-0.06315522314596435
-0.062056143005251946,-0.062056143005251946
-0.062056143005251946,-0.062056143005251946
-0.06425430328667675,-0.06425430328667675
-0.06535338342738915,-0.06535338342738915
-0.06645246356810156,-0.06645246356810156
-0.06645246356810156,-0.06645246356810156
-0.06425430328667675,-0.06425430328667675
-0.062056143005251946,-0.062056143005251946
-0.05875890258311474,-0.05875890258311474
-0.056560742301689934,-0.056560742301689934
-0.05436258202026513,-0.05436258202026513
-0.05106534159812792,-0.05106534159812792
-0.04886718131670312,-0.04886718131670312
-0.04666902103527831,-0.04666902103527831
-0.043371780613141106,-0.043371780613141106
-0.0389754600502915,-0.0389754600502915
-0.030182818924592278,-0.030182818924592278
-0.016993857236043453,-0.016993857236043453
0.003888665437492191,0.003888665437492191
0.030266588814589844,0.030266588814589844
0.06213991289524951,0.06213991289524951
0.09840955753875878,0.09840955753875878
0.13687736246369286,0.13687736246369286
0.1720479269664897,0.1720479269664897
0.20062401062501217,0.20062401062501217
0.2182092928764106,0.2182092928764106
0.22480377372068502,0.22480377372068502
0.22040745315783541,0.22040745315783541
0.2072184914692866,0.2072184914692866
0.18633596879575096,0.18633596879575096
0.1577598851372285,0.1577598851372285
0.12149024049371923,0.12149024049371923
0.07862611500593554,0.07862611500593554
0.03246474909601465,0.03246474909601465
-0.011498456532481442,-0.011498456532481442
-0.043371780613141106,-0.043371780613141106
-0.06974970399023876,-0.06974970399023876
-0.07414602455308837,-0.07414602455308837
-0.08074050539736279,-0.08074050539736279
-0.07304694441237597,-0.07304694441237597
-0.07194786427166357,-0.07194786427166357
-0.06865062384952636,-0.06865062384952636
-0.06645246356810156,-0.06645246356810156
-0.06645246356810156,-0.06645246356810156
-0.06535338342738915,-0.06535338342738915
-0.06974970399023876,-0.06974970399023876
-0.08403774581949999,-0.08403774581949999
-0.12140647060372167,-0.12140647060372167
-0.18845035918717823,-0.18845035918717823
-0.2840703314291572,-0.2840703314291572
-0.38628478451541065,-0.38628478451541065
-0.4434369518324555,-0.4434369518324555
-0.3730958228268618,-0.3730958228268618
-0.0862359061009248,-0.0862359061009248
0.47209680538097554,0.47209680538097554
1.2777225485231665,1.2777225485231665
2.213039748269421,2.213039748269421
3.074718578587944,3.074718578587944
3.65393381274338,3.65393381274338
3.8056068721616914,3.8056068721616914
3.5132515547321925,3.5132515547321925
2.880181393681849,2.880181393681849
2.0921409327910565,2.0921409327910565
1.331577475418074,1.331577475418074
0.7237861576041157,0.7237861576041157
0.3083338644148276,0.3083338644148276
0.06323899303596191,0.06323899303596191
-0.06755154370881396,-0.06755154370881396
-0.1323972720108457,-0.1323972720108457
-0.16646875637293018,-0.16646875637293018
-0.1873512790464658,-0.1873512790464658
-0.19834208045358984,-0.19834208045358984
-0.20383748115715186,-0.20383748115715186
-0.20713472157928906,-0.20713472157928906
-0.20383748115715186,-0.20383748115715186
-0.20603564143857667,-0.20603564143857667
-0.20163932087572706,-0.20163932087572706
-0.20273840101643945,-0.20273840101643945
-0.20163932087572706,-0.20163932087572706
-0.20054024073501464,-0.20054024073501464
-0.20383748115715186,-0.20383748115715186
-0.20163932087572706,-0.20163932087572706
-0.20493656129786425,-0.20493656129786425
-0.20493656129786425,-0.20493656129786425
-0.20493656129786425,-0.20493656129786425
-0.20603564143857667,-0.20603564143857667
-0.20383748115715186,-0.20383748115715186
-0.20383748115715186,-0.20383748115715186
-0.20163932087572706,-0.20163932087572706
-0.20054024073501464,-0.20054024073501464
-0.19834208045358984,-0.19834208045358984
-0.19614392017216503,-0.19614392017216503
-0.19394575989074023,-0.19394575989074023
-0.19174759960931542,-0.19174759960931542
-0.19064851946860303,-0.19064851946860303
-0.18954943932789062,-0.18954943932789062
-0.18954943932789062,-0.18954943932789062
-0.18845035918717823,-0.18845035918717823
-0.18625219890575342,-0.18625219890575342
-0.185153118765041,-0.185153118765041
-0.1807567982021914,-0.1807567982021914
-0.1785586379207666,-0.1785586379207666
-0.1752613974986294,-0.1752613974986294
-0.1730632372172046,-0.1730632372172046
-0.1708650769357798,-0.1708650769357798
-0.168666916654355,-0.168666916654355
-0.16536967623221777,-0.16536967623221777
-0.16097335566936816,-0.16097335566936816
-0.15437887482509374,-0.15437887482509374
-0.14778439398081933,-0.14778439398081933
-0.1389917528551201,-0.1389917528551201
-0.1301991117294209,-0.1301991117294209
-0.12030739046300927,-0.12030739046300927
-0.11041566919659765,-0.11041566919659765
-0.10162302807089843,-0.10162302807089843
-0.0906322266637744,-0.0906322266637744
-0.07854234511593798,-0.07854234511593798
-0.06535338342738915,-0.06535338342738915
-0.052164421738840325,-0.052164421738840325
-0.0389754600502915,-0.0389754600502915
-0.02578649836174267,-0.02578649836174267
-0.012597536673193844,-0.012597536673193844
-0.0005076551253574182,-0.0005076551253574182
0.012681306563191408,0.012681306563191408
0.02806842853316504,0.02806842853316504
0.044554630643851074,0.044554630643851074
0.06104083275453711,0.06104083275453711
0.07752703486522314,0.07752703486522314
0.09071599655377197,0.09071599655377197
0.10280587810160839,0.10280587810160839
0.11159851922730761,0.11159851922730761
0.12039116035300683,0.12039116035300683
0.12918380147870603,0.12918380147870603
0.13797644260440525,0.13797644260440525
0.14676908373010447,0.14676908373010447
0.15446264471509127,0.15446264471509127
0.1610571255593657,0.1610571255593657
0.1654534461222153,0.1654534461222153
0.16875068654435252,0.16875068654435252
0.1720479269664897,0.1720479269664897
0.17534516738862693,0.17534516738862693
0.17864240781076413,0.17864240781076413
0.18193964823290135,0.18193964823290135
0.18743504893646334,0.18743504893646334
0.19183136949931295,0.19183136949931295
0.20062401062501217,0.20062401062501217
0.2105157318914238,0.2105157318914238
0.22370469357997264,0.22370469357997264
0.23799273540923385,0.23799273540923385
0.2555780176606323,0.2555780176606323
0.2742623800527431,0.2742623800527431
0.2973430630077036,0.2973430630077036
0.3226219062440888,0.3226219062440888
0.3555943104654609,0.3555943104654609
0.39186395510897015,0.39186395510897015
0.4347280805967539,0.4347280805967539
0.48308760678809953,0.48308760678809953
0.5391406939644321,0.5391406939644321
0.6006891818443266,0.6006891818443266
0.6721293909906327,0.6721293909906327
0.7479659206997885,0.7479659206997885
0.8325950915346435,0.8325950915346435
0.9183233425102109,0.9183233425102109
1.0084479140486278,1.0084479140486278
1.0996715657277571,1.0996715657277571
1.1952915379697362,1.1952915379697362
1.2909115102117152,1.2909115102117152
1.3920268831572562,1.3920268831572562
1.4876468553992352,1.4876468553992352
1.585464987922639,1.585464987922639
1.6744904793203437,1.6744904793203437
1.760218730295911,1.760218730295911
1.8338570997236419,1.8338570997236419
1.9030991485885234,1.9030991485885234
1.9591522357648559,1.9591522357648559
2.0108090023783385,2.0108090023783385
2.0481777271625603,2.0481777271625603
2.08005105124322,2.08005105124322
2.096537253353906,2.096537253353906
2.1053298944796053,2.1053298944796053
2.098735413635331,2.098735413635331
2.0866455320874944,2.0866455320874944
2.061366688851109,2.061366688851109
2.0316915250518743,2.0316915250518743
1.9910255598455155,1.9910255598455155
1.9470623542170193,1.9470623542170193
1.8932074273221116,1.8932074273221116
1.8382534202864915,1.8382534202864915
1.776704932406597,1.776704932406597
1.7151564445267025,1.7151564445267025
1.6470134758025337,1.6470134758025337
1.5788705070783646,1.5788705070783646
1.5074302979320584,1.5074302979320584
1.4359900887857524,1.4359900887857524
1.3623517193580215,1.3623517193580215
1.2920105903524277,1.2920105903524277
1.219471301065409,1.219471301065409
1.1491301720598153,1.1491301720598153
1.0787890430542215,1.0787890430542215
1.0106460743300527,1.0106460743300527
0.9436021857465962,0.9436021857465962
0.8798555375852768,0.8798555375852768
0.8172079695646698,0.8172079695646698
0.7589567221069126,0.7589567221069126
0.7007054746491552,0.7007054746491552
0.6468505477542474,0.6468505477542474
0.5918965407186274,0.5918965407186274
0.5391406939644321,0.5391406939644321
0.48528576706952437,0.48528576706952437
0.4347280805967539,0.4347280805967539
0.38856671468683296,0.38856671468683296
0.35229707004332367,0.35229707004332367
0.32482006652551365,0.32482006652551365
0.3083338644148276,0.3083338644148276
0.298442143148416,0.298442143148416
0.29954122328912836,0.29954122328912836
0.30393754385197796,0.30393754385197796
0.314928345259102,0.314928345259102
0.325919146666226,0.325919146666226
0.33471178779192523,0.33471178779192523
0.33251362751050045,0.33251362751050045
0.3226219062440888,0.3226219062440888
0.29954122328912836,0.29954122328912836
0.27206421977131834,0.27206421977131834
0.23689365526852146,0.23689365526852146
0.19952493048429978,0.19952493048429978
0.1555617248558037,0.1555617248558037
0.107202198664458,0.107202198664458
0.0566445121916875,0.0566445121916875
0.009384066141054201,0.009384066141054201
-0.03238097920601708,-0.03238097920601708
-0.056560742301689934,-0.056560742301689934
-0.07744326497522558,-0.07744326497522558
-0.08403774581949999,-0.08403774581949999
-0.0906322266637744,-0.0906322266637744
-0.09502854722662402,-0.09502854722662402
-0.09722670750804882,-0.09722670750804882
-0.10272210821161083,-0.10272210821161083
-0.10382118835232323,-0.10382118835232323
-0.10931658905588525,-0.10931658905588525
-0.12030739046300927,-0.12030739046300927
-0.14778439398081933,-0.14778439398081933
-0.19724300031287745,-0.19724300031287745
-0.275277690303458,-0.275277690303458
-0.3741949029675742,-0.3741949029675742
-0.4632203943652788,-0.4632203943652788
-0.483003836898102,-0.483003836898102
-0.3511142200126138,-0.3511142200126138
0.010483146281766604,0.010483146281766604
0.6303643456435615,0.6303643456435615
1.4557735313185756,1.4557735313185756
2.3405330445920596,2.3405330445920596
3.0868084601357806,3.0868084601357806
3.5077561540286304,3.5077561540286304
3.506657073887918,3.506657073887918
3.107690982809316,3.107690982809316
2.4427474976783126,2.4427474976783126
1.688778521149605,1.688778521149605
1.006249753767203,1.006249753767203
0.48198852664738717,0.48198852664738717
0.13687736246369286,0.13687736246369286
-0.06535338342738915,-0.06535338342738915
-0.1708650769357798,-0.1708650769357798
-0.2258190839713999,-0.2258190839713999
-0.25329608748920995,-0.25329608748920995
-0.269782289599896,-0.269782289599896
-0.2763767704441704,-0.2763767704441704
-0.2829712512884448,-0.2829712512884448
-0.2796740108663076,-0.2796740108663076
-0.28077309100702,-0.28077309100702
-0.27307953002203317,-0.27307953002203317
-0.2708813697406084,-0.2708813697406084
-0.2664850491777588,-0.2664850491777588
-0.26208872861490917,-0.26208872861490917
-0.26538596903704637,-0.26538596903704637
-0.26098964847419676,-0.26098964847419676
-0.2675841293184712,-0.2675841293184712
-0.2631878087556216,-0.2631878087556216
-0.26868320945918356,-0.26868320945918356
-0.269782289599896,-0.269782289599896
-0.2741786101627456,-0.2741786101627456
-0.2785749307255952,-0.2785749307255952
-0.2829712512884448,-0.2829712512884448
-0.286268491710582,-0.286268491710582
-0.2873675718512944,-0.2873675718512944
-0.2873675718512944,-0.2873675718512944
-0.286268491710582,-0.286268491710582
-0.286268491710582,-0.286268491710582
-0.28516941156986964,-0.28516941156986964
-0.28516941156986964,-0.28516941156986964
-0.28516941156986964,-0.28516941156986964
-0.286268491710582,-0.286268491710582
-0.286268491710582,-0.286268491710582
-0.28846665199200683,-0.28846665199200683
-0.2906648122734316,-0.2906648122734316
-0.2950611328362812,-0.2950611328362812
-0.29725929311770605,-0.29725929311770605
-0.30055653353984324,-0.30055653353984324
-0.30165561368055566,-0.30165561368055566
-0.30385377396198043,-0.30385377396198043
-0.30495285410269285,-0.30495285410269285
-0.3071510143841177,-0.3071510143841177
-0.3071510143841177,-0.3071510143841177
-0.3104482548062549,-0.3104482548062549
-0.3115473349469673,-0.3115473349469673
-0.31264641508767965,-0.31264641508767965
-0.3115473349469673,-0.3115473349469673
-0.3104482548062549,-0.3104482548062549
-0.30825009452483004,-0.30825009452483004
-0.3115473349469673,-0.3115473349469673
-0.3203399760726665,-0.3203399760726665
-0.3346280179019277,-0.3346280179019277
-0.34561881930905175,-0.34561881930905175
-0.34561881930905175,-0.34561881930905175
-0.3225381363540913,-0.3225381363540913
-0.2818721711477324,-0.2818721711477324
-0.2313144846749619,-0.2313144846749619
-0.19394575989074023,-0.19394575989074023
-0.1807567982021914,-0.1807567982021914
-0.20054024073501464,-0.20054024073501464
-0.24010712580066113,-0.24010712580066113
-0.2840703314291572,-0.2840703314291572
-0.3159436555098169,-0.3159436555098169
-0.32913261719836573,-0.32913261719836573
-0.3225381363540913,-0.3225381363540913
-0.30605193424340527,-0.30605193424340527
-0.286268491710582,-0.286268491710582
-0.2675841293184712,-0.2675841293184712
-0.24889976692636034,-0.24889976692636034
-0.23241356481567432,-0.23241356481567432
-0.22032368326783788,-0.22032368326783788
-0.21482828256427589,-0.21482828256427589
-0.21592736270498827,-0.21592736270498827
-0.2236209236899751,-0.2236209236899751
-0.23461172509709913,-0.23461172509709913
-0.24670160664493554,-0.24670160664493554
-0.25769240805205956,-0.25769240805205956
-0.26868320945918356,-0.26868320945918356
-0.275277690303458,-0.275277690303458
-0.2785749307255952,-0.2785749307255952
-0.2796740108663076,-0.2796740108663076
-0.2785749307255952,-0.2785749307255952
-0.2741786101627456,-0.2741786101627456
-0.2675841293184712,-0.2675841293184712
-0.25769240805205956,-0.25769240805205956
-0.24560252650422312,-0.24560252650422312
-0.23021540453424952,-0.23021540453424952
-0.21482828256427589,-0.21482828256427589
-0.19834208045358984,-0.19834208045358984
-0.18185587834290382,-0.18185587834290382
-0.16427059609150538,-0.16427059609150538
-0.14888347412153174,-0.14888347412153174
-0.1323972720108457,-0.1323972720108457
-0.11701015004087206,-0.11701015004087206
-0.10162302807089843,-0.10162302807089843
-0.0873349862416372,-0.0873349862416372
-0.07084878413095116,-0.07084878413095116
-0.05326350187955273,-0.05326350187955273
-0.03457913948744189,-0.03457913948744189
-0.016993857236043453,-0.016993857236043453
-0.0005076551253574182,-0.0005076551253574182
0.01378038670390381,0.01378038670390381
0.025870268251740235,0.025870268251740235
0.03466290937743945,0.03466290937743945
0.04125739022171387,0.04125739022171387
0.044554630643851074,0.044554630643851074
0.04345555050313867,0.04345555050313867
0.03686106965886426,0.03686106965886426
0.025870268251740235,0.025870268251740235
0.011582226422479006,0.011582226422479006
-0.007102135969631832,-0.007102135969631832
-0.02688557850245507,-0.02688557850245507
-0.04556994089456591,-0.04556994089456591
-0.06535338342738915,-0.06535338342738915
-0.08293866567878759,-0.08293866567878759
-0.09942486778947363,-0.09942486778947363
-0.11371290961873486,-0.11371290961873486
-0.12690187130728367,-0.12690187130728367
-0.1378926727144077,-0.1378926727144077
-0.14778439398081933,-0.14778439398081933
-0.15547795496580616,-0.15547795496580616
-0.16097335566936816,-0.16097335566936816
-0.16317151595079296,-0.16317151595079296
-0.16317151595079296,-0.16317151595079296
-0.15987427552865577,-0.15987427552865577
-0.15437887482509374,-0.15437887482509374
-0.14668531384010694,-0.14668531384010694
-0.1389917528551201,-0.1389917528551201
-0.12910003158870847,-0.12910003158870847
-0.12140647060372167,-0.12140647060372167
-0.11371290961873486,-0.11371290961873486
-0.10821750891517284,-0.10821750891517284
-0.10382118835232323,-0.10382118835232323
-0.09942486778947363,-0.09942486778947363
-0.09502854722662402,-0.09502854722662402
-0.0906322266637744,-0.0906322266637744
-0.0873349862416372,-0.0873349862416372
-0.0862359061009248,-0.0862359061009248
-0.0862359061009248,-0.0862359061009248
-0.0884340663823496,-0.0884340663823496
-0.09173130680448681,-0.09173130680448681
-0.09612762736733642,-0.09612762736733642
-0.10162302807089843,-0.10162302807089843
-0.10821750891517284,-0.10821750891517284
-0.11481198975944726,-0.11481198975944726
-0.12030739046300927,-0.12030739046300927
-0.12030739046300927,-0.12030739046300927
-0.11371290961873486,-0.11371290961873486
-0.09722670750804882,-0.09722670750804882
-0.07414602455308837,-0.07414602455308837
-0.043371780613141106,-0.043371780613141106
-0.01039937639176904,-0.01039937639176904
0.022573027829603028,0.022573027829603028
0.050050031347413086,0.050050031347413086
0.06873439373952392,0.06873439373952392
0.07642795472451074,0.07642795472451074
0.07532887458379833,0.07532887458379833
0.06213991289524951,0.06213991289524951
0.04235647036242627,0.04235647036242627
0.01378038670390381,0.01378038670390381
-0.02029109765818066,-0.02029109765818066
-0.06425430328667675,-0.06425430328667675
-0.11151474933731005,-0.11151474933731005
-0.16097335566936816,-0.16097335566936816
-0.20713472157928906,-0.20713472157928906
-0.23680988537852393,-0.23680988537852393
-0.26538596903704637,-0.26538596903704637
-0.26868320945918356,-0.26868320945918356
-0.2774758505848828,-0.2774758505848828
-0.2708813697406084,-0.2708813697406084
-0.2708813697406084,-0.2708813697406084
-0.26428688889633395,-0.26428688889633395
-0.26098964847419676,-0.26098964847419676
-0.25769240805205956,-0.25769240805205956
-0.25989056833348434,-0.25989056833348434
-0.2719804498813208,-0.2719804498813208
-0.3027546938212681,-0.3027546938212681
-0.359906861138313,-0.359906861138313
-0.44673419225459277,-0.44673419225459277
-0.5489486453408462,-0.5489486453408462
-0.6236860949092895,-0.6236860949092895
-0.6028035722357539,-0.6028035722357539
-0.39507742564110987,-0.39507742564110987
0.06653623345809911,0.06653623345809911
0.7864337256247226,0.7864337256247226
1.670094158757494,1.670094158757494
2.5405656302017166,2.5405656302017166
3.183527512518472,3.183527512518472
3.440712265445174,3.440712265445174
3.2560668018054906,3.2560668018054906
2.7120221321528515,2.7120221321528515
1.9723411974534046,1.9723411974534046
1.2227685414875462,1.2227685414875462
0.5995901017036142,0.5995901017036142
0.1599580454186533,0.1599580454186533
-0.11371290961873486,-0.11371290961873486
-0.2664850491777588,-0.2664850491777588
-0.35331238029403855,-0.35331238029403855
-0.4071673071889463,-0.4071673071889463
-0.4434369518324555,-0.4434369518324555
-0.4599231539431416,-0.4599231539431416
-0.45662591352100435,-0.45662591352100435
-0.4280498298624819,-0.4280498298624819
-0.38958202493754784,-0.38958202493754784
-0.3478169795904765,-0.3478169795904765
-0.3247362966355161,-0.3247362966355161
-0.3280335370576533,-0.3280335370576533
-0.35221330015332614,-0.35221330015332614
-0.39617650578182223,-0.39617650578182223
-0.4280498298624819,-0.4280498298624819
-0.4599231539431416,-0.4599231539431416
-0.46541855464670356,-0.46541855464670356
-0.4687157950688408,-0.4687157950688408
-0.4599231539431416,-0.4599231539431416
-0.4478332723953051,-0.4478332723953051
-0.43354523056604394,-0.43354523056604394
-0.4159599483146455,-0.4159599483146455
-0.40057282634467184,-0.40057282634467184
-0.3884829447968354,-0.3884829447968354
-0.3840866242339858,-0.3840866242339858
-0.38518570437469823,-0.38518570437469823
-0.38958202493754784,-0.38958202493754784
-0.39397834550039745,-0.39397834550039745
-0.39727558592253465,-0.39727558592253465
-0.39837466606324706,-0.39837466606324706
-0.39837466606324706,-0.39837466606324706
-0.39617650578182223,-0.39617650578182223
-0.3917801852189726,-0.3917801852189726
-0.38628478451541065,-0.38628478451541065
-0.3796903036711362,-0.3796903036711362
-0.3730958228268618,-0.3730958228268618
-0.3676004221232998,-0.3676004221232998
-0.36210502141973777,-0.36210502141973777
-0.3588077809976006,-0.3588077809976006
-0.35441146043475097,-0.35441146043475097
-0.35221330015332614,-0.35221330015332614
-0.34891605973118894,-0.34891605973118894
-0.34671789944976417,-0.34671789944976417
-0.34451973916833933,-0.34451973916833933
-0.3434206590276269,-0.3434206590276269
-0.34122249874620214,-0.34122249874620214
-0.34122249874620214,-0.34122249874620214
-0.3401234186054897,-0.3401234186054897
-0.3401234186054897,-0.3401234186054897
-0.3390243384647773,-0.3390243384647773
-0.33682617818335253,-0.33682617818335253
-0.3324298576205029,-0.3324298576205029
-0.3258353767762285,-0.3258353767762285
-0.3159436555098169,-0.3159436555098169
-0.30605193424340527,-0.30605193424340527
-0.29396205269556885,-0.29396205269556885
-0.2829712512884448,-0.2829712512884448
-0.2675841293184712,-0.2675841293184712
-0.25219700734849754,-0.25219700734849754
-0.23461172509709913,-0.23461172509709913
-0.21812552298641308,-0.21812552298641308
-0.20163932087572706,-0.20163932087572706
-0.1873512790464658,-0.1873512790464658
-0.17416231735791698,-0.17416231735791698
-0.16207243581008057,-0.16207243581008057
-0.14888347412153174,-0.14888347412153174
-0.1378926727144077,-0.1378926727144077
-0.12910003158870847,-0.12910003158870847
-0.12140647060372167,-0.12140647060372167
-0.11481198975944726,-0.11481198975944726
-0.10931658905588525,-0.10931658905588525
-0.10272210821161083,-0.10272210821161083
-0.09502854722662402,-0.09502854722662402
-0.0873349862416372,-0.0873349862416372
-0.07854234511593798,-0.07854234511593798
-0.06865062384952636,-0.06865062384952636
-0.05546166216097753,-0.05546166216097753
-0.042272700472428704,-0.042272700472428704
-0.02688557850245507,-0.02688557850245507
-0.01039937639176904,-0.01039937639176904
0.0082849860003418,0.0082849860003418
0.02806842853316504,0.02806842853316504
0.05334727176955029,0.05334727176955029
0.07972519514664794,0.07972519514664794
0.11269759936802001,0.11269759936802001
0.14567000358939206,0.14567000358939206
0.18523688865503854,0.18523688865503854
0.22260561343926022,0.22260561343926022
0.2654697389270439,0.2654697389270439
0.3061357041334028,0.3061357041334028
0.3533961501840361,0.3533961501840361
0.4017556763753818,0.4017556763753818
0.4567096834110019,0.4567096834110019
0.5149609308687593,0.5149609308687593
0.579806659170791,0.579806659170791
0.6457514676135351,0.6457514676135351
0.719389837041266,0.719389837041266
0.7919291263282846,0.7919291263282846
0.8699638163188651,0.8699638163188651
0.9447012658873085,0.9447012658873085
1.0205377955964643,1.0205377955964643
1.0941761650241952,1.0941761650241952
1.164517294029789,1.164517294029789
1.2282639421911083,1.2282639421911083
1.285416109508153,1.285416109508153
1.331577475418074,1.331577475418074
1.3689462002022958,1.3689462002022958
1.394225043438681,1.394225043438681
1.4096121654086546,1.4096121654086546
1.4129094058307918,1.4129094058307918
1.405215844845805,1.405215844845805
1.3865314824536943,1.3865314824536943
1.359054478935884,1.359054478935884
1.3238839144330872,1.3238839144330872
1.282118869086016,1.282118869086016
1.2392547435982324,1.2392547435982324
1.191994297547599,1.191994297547599
1.145832931637678,1.145832931637678
1.09637432530562,1.09637432530562
1.0480147991142743,1.0480147991142743
0.9996552729229287,0.9996552729229287
0.9567911474351449,0.9567911474351449
0.9172242623694985,0.9172242623694985
0.8875490985702635,0.8875490985702635
0.8666665758967279,0.8666665758967279
0.8567748546303163,0.8567748546303163
0.8567748546303163,0.8567748546303163
0.8655674957560155,0.8655674957560155
0.8754592170224271,0.8754592170224271
0.8710628964595776,0.8710628964595776
0.8358923319567807,0.8358923319567807
0.7468668405590762,0.7468668405590762
0.5896983804372026,0.5896983804372026
0.3533961501840361,0.3533961501840361
0.048950951206700684,0.048950951206700684
-0.30385377396198043,-0.30385377396198043
-0.6676493005377856,-0.6676493005377856
-1.005066903736493,-1.005066903736493
-1.280936019055306,-1.280936019055306
-1.4765722841021136,-1.4765722841021136
-1.5853812180326414,-1.5853812180326414
-1.617254542113301,-1.617254542113301
-1.5853812180326414,-1.5853812180326414
-1.5106437684641982,-1.5106437684641982
-1.4073302352372323,-1.4073302352372323
-1.2930259006031424,-1.2930259006031424
-1.1820188063911898,-1.1820188063911898
-1.084200673867786,-1.084200673867786
-1.0006705831736435,-1.0006705831736435
-0.9270322137459125,-0.9270322137459125
-0.848997523755332,-0.848997523755332
-0.7632692727797646,-0.7632692727797646
-0.663252979974936,-0.663252979974936
-0.5687320878736694,-0.5687320878736694
-0.48959831774237644,-0.48959831774237644
-0.4434369518324555,-0.4434369518324555
-0.4313470702846191,-0.4313470702846191
-0.45332867309886715,-0.45332867309886715
-0.49289555816451364,-0.49289555816451364
-0.540156004215147,-0.540156004215147
-0.5808219694215059,-0.5808219694215059
-0.6082989729393159,-0.6082989729393159
-0.6203888544871523,-0.6203888544871523
-0.6148934537835903,-0.6148934537835903
-0.5984072516729042,-0.5984072516729042
-0.5709302481550942,-0.5709302481550942
-0.5445523247779965,-0.5445523247779965
-0.5170753212601865,-0.5170753212601865
-0.49509371844593847,-0.49509371844593847
-0.4753102759131152,-0.4753102759131152
-0.46102223408385395,-0.46102223408385395
-0.44673419225459277,-0.44673419225459277
-0.4357433908474687,-0.4357433908474687
-0.4236535092996323,-0.4236535092996323
-0.41376178803322067,-0.41376178803322067
-0.40277098662609667,-0.40277098662609667
-0.39507742564110987,-0.39507742564110987
-0.38518570437469823,-0.38518570437469823
-0.3785912235304238,-0.3785912235304238
-0.3686995022640122,-0.3686995022640122
-0.36100594127902536,-0.36100594127902536
-0.35001513987190136,-0.35001513987190136
-0.34122249874620214,-0.34122249874620214
-0.3302316973390781,-0.3302316973390781
-0.3225381363540913,-0.3225381363540913
-0.31264641508767965,-0.31264641508767965
-0.30385377396198043,-0.30385377396198043
-0.29286297255485644,-0.29286297255485644
-0.2829712512884448,-0.2829712512884448
-0.2708813697406084,-0.2708813697406084
-0.26098964847419676,-0.26098964847419676
-0.24889976692636034,-0.24889976692636034
-0.23680988537852393,-0.23680988537852393
-0.2236209236899751,-0.2236209236899751
-0.21263012228285108,-0.21263012228285108
-0.20163932087572706,-0.20163932087572706
-0.19284667975002784,-0.19284667975002784
-0.185153118765041,-0.185153118765041
-0.179657718061479,-0.179657718061479
-0.1730632372172046,-0.1730632372172046
-0.16646875637293018,-0.16646875637293018
-0.15987427552865577,-0.15987427552865577
-0.15327979468438135,-0.15327979468438135
-0.14888347412153174,-0.14888347412153174
-0.14558623369939452,-0.14558623369939452
-0.14338807341796972,-0.14338807341796972
-0.14118991313654491,-0.14118991313654491
-0.1400908329958325,-0.1400908329958325
-0.1389917528551201,-0.1389917528551201
-0.1378926727144077,-0.1378926727144077
-0.1367935925736953,-0.1367935925736953
-0.1345954322922705,-0.1345954322922705
-0.13129819187013328,-0.13129819187013328
-0.1280009514479961,-0.1280009514479961
-0.12580279116657128,-0.12580279116657128
-0.12140647060372167,-0.12140647060372167
-0.11920831032229687,-0.11920831032229687
-0.11701015004087206,-0.11701015004087206
-0.11591106990015966,-0.11591106990015966
-0.11481198975944726,-0.11481198975944726
-0.11371290961873486,-0.11371290961873486
-0.11371290961873486,-0.11371290961873486
-0.11481198975944726,-0.11481198975944726
-0.11701015004087206,-0.11701015004087206
-0.12140647060372167,-0.12140647060372167
-0.12580279116657128,-0.12580279116657128
-0.1323972720108457,-0.1323972720108457
-0.1378926727144077,-0.1378926727144077
-0.14338807341796972,-0.14338807341796972
-0.14668531384010694,-0.14668531384010694
-0.14998255426224413,-0.14998255426224413
-0.15218071454366894,-0.15218071454366894
-0.15437887482509374,-0.15437887482509374
-0.15437887482509374,-0.15437887482509374
-0.15437887482509374,-0.15437887482509374
-0.15327979468438135,-0.15327979468438135
-0.15327979468438135,-0.15327979468438135
-0.15327979468438135,-0.15327979468438135
-0.15437887482509374,-0.15437887482509374
-0.15547795496580616,-0.15547795496580616
-0.15657703510651855,-0.15657703510651855
-0.15657703510651855,-0.15657703510651855
-0.15767611524723096,-0.15767611524723096
-0.15767611524723096,-0.15767611524723096
-0.15987427552865577,-0.15987427552865577
-0.16427059609150538,-0.16427059609150538
-0.16976599679506738,-0.16976599679506738
-0.1763604776393418,-0.1763604776393418
-0.18405403862432862,-0.18405403862432862
-0.19174759960931542,-0.19174759960931542
-0.20054024073501464,-0.20054024073501464
-0.20823380172000147,-0.20823380172000147
-0.2170264428457007,-0.2170264428457007
-0.2258190839713999,-0.2258190839713999
-0.23461172509709913,-0.23461172509709913
-0.2412062059413735,-0.2412062059413735
-0.24889976692636034,-0.24889976692636034
-0.25439516762992237,-0.25439516762992237
-0.26098964847419676,-0.26098964847419676
-0.2664850491777588,-0.2664850491777588
-0.2741786101627456,-0.2741786101627456
-0.2796740108663076,-0.2796740108663076
-0.28516941156986964,-0.28516941156986964
-0.28846665199200683,-0.28846665199200683
-0.29286297255485644,-0.29286297255485644
-0.29396205269556885,-0.29396205269556885
-0.29725929311770605,-0.29725929311770605
-0.29835837325841846,-0.29835837325841846
-0.30165561368055566,-0.30165561368055566
-0.30385377396198043,-0.30385377396198043
-0.3071510143841177,-0.3071510143841177
-0.30934917466554246,-0.30934917466554246
-0.31264641508767965,-0.31264641508767965
-0.3148445753691045,-0.3148445753691045
-0.3159436555098169,-0.3159436555098169
-0.3159436555098169,-0.3159436555098169
-0.3148445753691045,-0.3148445753691045
-0.31374549522839207,-0.31374549522839207
-0.31374549522839207,-0.31374549522839207
-0.31264641508767965,-0.31264641508767965
-0.31264641508767965,-0.31264641508767965
-0.31264641508767965,-0.31264641508767965
-0.31264641508767965,-0.31264641508767965
-0.31374549522839207,-0.31374549522839207
-0.3148445753691045,-0.3148445753691045
-0.31704273565052926,-0.31704273565052926
-0.3192408959319541,-0.3192408959319541
-0.3203399760726665,-0.3203399760726665
-0.32143905621337887,-0.32143905621337887
-0.3225381363540913,-0.3225381363540913
-0.3247362966355161,-0.3247362966355161
-0.3258353767762285,-0.3258353767762285
-0.3280335370576533,-0.3280335370576533
-0.32913261719836573,-0.32913261719836573
-0.3313307774797905,-0.3313307774797905
-0.3324298576205029,-0.3324298576205029
-0.33352893776121534,-0.33352893776121534
-0.3346280179019277,-0.3346280179019277
-0.3357270980426401,-0.3357270980426401
-0.3346280179019277,-0.3346280179019277
-0.33352893776121534,-0.33352893776121534
-0.3302316973390781,-0.3302316973390781
-0.32913261719836573,-0.32913261719836573
-0.3258353767762285,-0.3258353767762285
-0.3258353767762285,-0.3258353767762285
-0.3236372164948037,-0.3236372164948037
-0.3247362966355161,-0.3247362966355161
-0.3247362966355161,-0.3247362966355161
-0.3269344569169409,-0.3269344569169409
-0.3258353767762285,-0.3258353767762285
-0.3269344569169409,-0.3269344569169409
-0.3269344569169409,-0.3269344569169409
-0.32913261719836573,-0.32913261719836573
-0.32913261719836573,-0.32913261719836573
-0.3313307774797905,-0.3313307774797905
-0.3313307774797905,-0.3313307774797905
-0.3313307774797905,-0.3313307774797905
-0.3313307774797905,-0.3313307774797905
-0.3313307774797905,-0.3313307774797905
-0.3302316973390781,-0.3302316973390781
-0.3313307774797905,-0.3313307774797905
-0.3313307774797905,-0.3313307774797905
-0.3313307774797905,-0.3313307774797905
-0.3313307774797905,-0.3313307774797905
-0.3313307774797905,-0.3313307774797905
-0.3313307774797905,-0.3313307774797905
-0.3313307774797905,-0.3313307774797905
-0.3313307774797905,-0.3313307774797905
-0.3313307774797905,-0.3313307774797905
-0.3324298576205029,-0.3324298576205029
-0.33352893776121534,-0.33352893776121534
-0.3346280179019277,-0.3346280179019277
-0.3346280179019277,-0.3346280179019277
-0.3313307774797905,-0.3313307774797905
-0.32913261719836573,-0.32913261719836573
-0.3247362966355161,-0.3247362966355161
-0.3247362966355161,-0.3247362966355161
-0.3258353767762285,-0.3258353767762285
-0.3280335370576533,-0.3280335370576533
-0.3247362966355161,-0.3247362966355161
-0.3159436555098169,-0.3159436555098169
-0.29616021297699363,-0.29616021297699363
-0.269782289599896,-0.269782289599896
-0.23680988537852393,-0.23680988537852393
-0.20163932087572706,-0.20163932087572706
-0.16427059609150538,-0.16427059609150538
-0.12910003158870847,-0.12910003158870847
-0.09392946708591161,-0.09392946708591161
-0.06645246356810156,-0.06645246356810156
-0.047768101175990715,-0.047768101175990715
-0.04447086075385351,-0.04447086075385351
-0.05106534159812792,-0.05106534159812792
-0.07084878413095116,-0.07084878413095116
-0.09612762736733642,-0.09612762736733642
-0.1301991117294209,-0.1301991117294209
-0.16646875637293018,-0.16646875637293018
-0.21153104214213866,-0.21153104214213866
-0.25439516762992237,-0.25439516762992237
-0.29616021297699363,-0.29616021297699363
-0.32913261719836573,-0.32913261719836573
-0.34671789944976417,-0.34671789944976417
-0.35770870085688816,-0.35770870085688816
-0.35660962071617575,-0.35660962071617575
-0.35331238029403855,-0.35331238029403855
-0.3511142200126138,-0.3511142200126138
-0.34671789944976417,-0.34671789944976417
-0.34671789944976417,-0.34671789944976417
-0.34232157888691456,-0.34232157888691456
-0.34451973916833933,-0.34451973916833933
-0.35221330015332614,-0.35221330015332614
-0.3785912235304238,-0.3785912235304238
-0.4302479901439067,-0.4302479901439067
-0.5148771609787617,-0.5148771609787617
-0.61928977434644,-0.61928977434644
-0.7105134260255693,-0.7105134260255693
-0.7160088267291314,-0.7160088267291314
-0.5478495652001337,-0.5478495652001337
-0.12470371102585888,-0.12470371102585888
0.5688158577636669,0.5688158577636669
1.4612689320221375,1.4612689320221375
2.377901769376281,2.377901769376281
3.1054928225278915,3.1054928225278915
3.453901227133723,3.453901227133723
3.350587693906757,3.350587693906757
2.8439117490383397,2.8439117490383397
2.102032654057468,2.102032654057468
1.3128931130259633,1.3128931130259633
0.6369588264878359,0.6369588264878359
0.14457092344867967,0.14457092344867967
-0.15987427552865577,-0.15987427552865577
-0.32913261719836573,-0.32913261719836573
-0.4115636277517959,-0.4115636277517959
-0.455526833380292,-0.455526833380292
-0.47750843619454003,-0.47750843619454003
-0.49289555816451364,-0.49289555816451364
-0.49839095886807566,-0.49839095886807566
-0.5027872794309253,-0.5027872794309253
-0.4994900390087881,-0.4994900390087881
-0.4994900390087881,-0.4994900390087881
-0.49289555816451364,-0.49289555816451364
-0.49289555816451364,-0.49289555816451364
-0.49289555816451364,-0.49289555816451364
-0.4917964780238012,-0.4917964780238012
-0.49839095886807566,-0.49839095886807566
-0.49509371844593847,-0.49509371844593847
-0.5016881992902129,-0.5016881992902129
-0.4994900390087881,-0.4994900390087881
-0.5027872794309253,-0.5027872794309253
-0.5005891191495004,-0.5005891191495004
-0.5016881992902129,-0.5016881992902129
-0.5005891191495004,-0.5005891191495004
-0.5005891191495004,-0.5005891191495004
-0.4994900390087881,-0.4994900390087881
-0.49839095886807566,-0.49839095886807566
-0.49839095886807566,-0.49839095886807566
-0.49839095886807566,-0.49839095886807566
-0.49839095886807566,-0.49839095886807566
-0.49839095886807566,-0.49839095886807566
-0.4994900390087881,-0.4994900390087881
-0.49839095886807566,-0.49839095886807566
-0.49839095886807566,-0.49839095886807566
-0.49619279858665083,-0.49619279858665083
-0.49399463830522605,-0.49399463830522605
-0.48959831774237644,-0.48959831774237644
-0.4874001574609516,-0.4874001574609516
-0.483003836898102,-0.483003836898102
-0.48190475675738964,-0.48190475675738964
-0.4786075163352524,-0.4786075163352524
-0.47750843619454003,-0.47750843619454003
-0.4753102759131152,-0.4753102759131152
-0.4753102759131152,-0.4753102759131152
-0.4709139553502656,-0.4709139553502656
-0.4687157950688408,-0.4687157950688408
-0.46212131422456637,-0.46212131422456637
-0.45772499366171676,-0.45772499366171676
-0.44893235253601754,-0.44893235253601754
-0.44123879155103074,-0.44123879155103074
-0.4302479901439067,-0.4302479901439067
-0.4203562688774951,-0.4203562688774951
-0.4082663873296587,-0.4082663873296587
-0.39727558592253465,-0.39727558592253465
-0.38518570437469823,-0.38518570437469823
-0.3752939831082866,-0.3752939831082866
-0.3632041015604502,-0.3632041015604502
-0.35221330015332614,-0.35221330015332614
-0.3401234186054897,-0.3401234186054897
-0.3280335370576533,-0.3280335370576533
