ECG,PPG
-0.5843023774213755,-1.3054325540014982
-0.6255573711799195,-0.09463641298975227
-0.5976823753971194,0.16292128241092946
-0.5441623834941435,0.03918359956718557
-0.5185173873739676,0.1216753881296815
-0.5274373860244636,0.40214746924216765
-0.5207473870365915,0.6221255720754901
-0.47168739445886354,0.6963681817817364
-0.3925224064357116,0.7779433949157603
-0.31558741807518365,0.9401772457553356
-0.24088242937727972,1.113410001736577
-0.16617744067937576,1.196818365727545
-0.0992774508006558,1.2508963160074036
-0.04687245872899183,1.3489698868539264
0.01779753148710413,1.4736241451261425
0.11145751731731207,1.5304518216914176
0.220727500785888,1.5387010005476671
0.31661748627871994,1.5597822354025273
0.40135747345843187,1.6138601856823855
0.4916724597947038,1.6303585433948848
0.5864474454562237,1.6074441576830805
0.6522324355036317,1.5808634702573872
0.6711874326359357,1.5881960736851646
0.6644974336480637,1.5762805931150263
0.6723024324672477,1.5451170285469724
0.6979474285874236,1.4928722291240581
0.7035224277439837,1.4699578434122538
0.6611524341541277,1.4470434577004494
0.5864474454562237,1.4122135914185068
0.5150874562522558,1.3471367359969821
0.46268246418059183,1.3077239925726785
0.41585247126548786,1.2802267297185133
0.3667924786877599,1.2453968634365704
0.30769748762822396,1.1693211028733799
0.236337498424256,1.113410001736577
0.15828751023241605,1.0794967108831064
0.09361752001632008,1.0437502691726914
0.041212527944656116,0.9557590280393625
-0.01565246345225585,0.8842661446185327
-0.0858974528249118,0.8411870994803404
-0.13830244489657578,0.8045240823414533
-0.15614244219756776,0.7119499640657635
-0.15279744270363177,0.626708449217851
-0.15948744169150375,0.5707973480810482
-0.17286743966724774,0.5313846046567446
-0.17286743966724774,0.4415602126664713
-0.15725744202887976,0.3517358206761979
-0.15391244253494377,0.2884921161116177
-0.16617744067937576,0.2490793726873141
-0.15614244219756776,0.16842073498176252
-0.07363245468047981,0.08042949384843354
0.0690875237274561,0.005270308713715017
0.20065750382227202,-0.0378087364244773
0.25752249521918397,-0.10013586556058533
0.250832496231312,-0.1615464192682212
0.248602496568688,-0.2165409449765518
0.30100748864035193,-0.24312163240224494
0.39132247497662387,-0.279784649541132
0.47271746266239983,-0.3136979403946026
0.5195474555775038,-0.35127753296196185
0.5407324523724318,-0.36777589067446104
0.5485374511916158,-0.39252342724320977
0.5340424533845598,-0.4108549358126533
0.4916724597947038,-0.4392687740952908
0.43815246789172785,-0.4521008300939013
0.41362247160286386,-0.4676826123779283
0.4370374680604159,-0.4685991878064005
0.47383246249371186,-0.4759317912341779
0.47048746299977584,-0.47043233866334483
0.4080474724463039,-0.4750152158057057
0.3177324861100319,-0.4795980929480666
0.219612500954576,-0.5034290540883432
0.10588251816075207,-0.5162611100869536
-0.03683746024718384,-0.5327594677994528
-0.17063744000462375,-0.5446749483695912
-0.28882742212369567,-0.5730887866522286
-0.3992124054235836,-0.5877539935077835
-0.5397023841688955,-0.6015026249348662
-0.6857673620707674,-0.6134181055050044
-0.7950373455393434,-0.6500811226438915
-0.8563623362615033,-0.6757452346411125
-0.8808923325503673,-0.6968264694959726
-0.8797773327190553,-0.7133248272084717
-0.8886973313695513,-0.7527375706327754
-0.9511373219230232,-0.782067984343885
-1.0470273074158551,-0.8022326437702729
-1.084937301680463,-0.8168978506258278
-1.0236123109583033,-0.8563105940501313
-0.8474423376110073,-0.8865575831897132
-0.43712239968819155,-0.9076388180445732
0.3601024796998879,-0.9213874494716559
1.4639523126987672,-0.9553007403251265
2.5856421429986383,-0.9782151260369308
3.5646119948905737,-0.9910471820355413
4.35960687461603,-0.9956300591779023
4.6238618346369735,-1.0277101991744284
3.711791972623758,-1.0579571883140102
1.4985173074694391,-1.0808715740258148
-1.0682123042107832,-1.091870479167481
-2.6258670685536463,-1.134032948877201
-2.63924706652939,-1.1844445974431708
-1.7494772011424147,-1.233023095152196
-0.9689773192240152,-1.257770631720945
-0.7359423544798074,-1.2990165260021929
-0.8173373421655833,-1.351261325425107
-0.8686273344059353,-1.4126718791327428
-0.8463273377796953,-1.4438354437007968
-0.8808923325503673,-1.465833253984129
-0.9767823180431993,-1.4832481871251004
-0.9935073155128792,-1.518078053407043
-0.8909273310321753,-1.528160383120237
-0.7816573475635994,-1.5162449025500988
-0.7671623497565434,-1.475915583697323
-0.8195673418282073,-1.4511680471285742
-0.8440973381170713,-1.4209210579889924
-0.8195673418282073,-1.3741757111369113
-0.7649323500939194,-1.2788518665758049
-0.7225623565040634,-1.1835280220146984
-0.6813073627455194,-1.1019528088806747
-0.6333623699991034,-1.0286267746029005
-0.5753823787708795,-0.8911404603320741
-0.5307823855183995,-0.7224905814931935
-0.5240923865305275,-0.5730887866522286
-0.5352423848436475,-0.47043233866334483
-0.5296673856870875,-0.32286369467932435
-0.5006773900729755,-0.12671655298627846
-0.46165239597705554,0.057515108136629106
-0.4337774001942556,0.1647544332678738
-0.4114774035680156,0.28574238982620115
-0.37802740862865564,0.4635580229498035
-0.32339241689436765,0.6505394103581276
-0.2609524263408957,0.7541124337754836
-0.20743243443791973,0.8384373731949238
-0.15725744202887976,0.9575921788963069
-0.0948174514754078,1.0969116440240778
-0.01342246378963185,1.1693211028733799
0.08358252153451208,1.2105669971546278
0.202887503484896,1.2664780982914305
0.3522974808807039,1.3544693394247596
0.5028224581078238,1.4012146862768406
0.6042874427572158,1.413130166846979
0.6410824371905117,1.4122135914185068
0.6555774349975677,1.4323782508448946
0.6901424297682397,1.4323782508448946
0.7302824236954717,1.4158798931323955
0.7380874225146556,1.3810500268504526
0.7169024257197277,1.3682179708518423
0.6990624284187357,1.351719613139343
0.6923724294308637,1.3297218028560107
0.6689574329733117,1.2820598805754575
0.6087474420824638,1.248146589721987
0.5273524543966878,1.2188161760108773
0.46379746401190386,1.195901790299073
0.4247724699159839,1.1454901417331032
0.3857474758200639,1.1005779457379665
0.32442248509790395,1.0584154760282463
0.26198249454443195,1.030001637745609
0.215152501629328,0.9768402628942227
0.181702506689968,0.9282617651851972
0.13598751360617606,0.8824329937615883
0.07577752271532809,0.854935730907423
-0.0011574656451998587,0.8045240823414533
-0.0758624543431038,0.7449466794907619
-0.1260374467521438,0.6743703714984042
-0.12492244692083178,0.6276250246463232
-0.11042744911377579,0.5698807726525761
-0.14276244422182377,0.5002210400886906
-0.2230424320762877,0.4048971955275842
-0.2654124256661437,0.33340431210675436
-0.21969743258235172,0.26832745668522984
-0.13495744540263976,0.20050087497828872
-0.0903574521501598,0.10517703041718231
-0.0758624543431038,0.033684146996352506
-0.03237746092193584,-0.019477227855033762
0.05682252558302411,-0.07263860270642003
0.14490751225667206,-0.16704587183905426
0.20065750382227202,-0.24953766040155018
0.24079749774950399,-0.30636533696682516
0.30435248813428795,-0.33936205239182354
0.4002424736271199,-0.40168918152793154
0.5050524577704478,-0.4521008300939013
0.5775274468057278,-0.48234781923348313
0.5964824439380317,-0.4905969980897327
0.5752974471431038,-0.5245102889432033
0.5451924516976798,-0.5520075517973686
0.5217774552401278,-0.5694224849383399
0.4872124604694558,-0.5675893340813956
0.44149746738566387,-0.5886705689362557
0.41808247092811185,-0.6033357757918105
0.45264746569878384,-0.6125015300765323
0.5184324557461918,-0.6088352283626436
0.5351574532158718,-0.6262501615036149
0.43369246856647986,-0.6363324912168089
0.23410749876163198,-0.6436650946445863
0.025602530306288125,-0.6427485192161141
-0.13049744607739178,-0.668412631213335
-0.2330774305580957,-0.694076743210556
-0.3323124155448636,-0.7188242797793047
-0.4315474005316316,-0.7344060620633318
-0.5252073863618395,-0.7674027774883302
-0.5987973752284315,-0.7967331911994399
-0.6723873640950234,-0.8251470294820773
-0.7705073492504794,-0.8407288117661044
-0.8541323365988793,-0.8691426500487418
-0.8675123345746233,-0.8911404603320741
-0.8463273377796953,-0.9131382706154063
-0.8831223322129913,-0.9223040249001281
-0.9834723170310712,-0.9406355334695716
-1.044797307753231,-0.9516344386112378
-1.0135773124764953,-0.9644664946098482
-0.8987323298513593,-0.9672162208952647
-0.6121773732041754,-0.9809648523223474
0.023372530643664124,-0.9937969083209579
1.0001123828729754,-1.014878143175818
2.068282221269871,-1.0258770483174842
3.03833207451131,-1.0442085568869277
3.8678919490074377,-1.0607069145994268
4.309431882206989,-1.0854544511681756
3.7798069623337898,-1.0955367808813696
1.963472237126543,-1.1120351385938687
-0.5252073863618395,-1.1358660997341452
-2.4062121017851825,-1.1789451448723376
-2.824337038527182,-1.211941860297336
-2.0650221534037105,-1.2421888494369178
-1.135112294089503,-1.273352414004972
-0.7482073526242394,-1.3338463922841355
-0.8318323399726393,-1.3943403705632993
-0.9522523217543353,-1.4456685945577412
-0.9243773259715352,-1.4694995556980177
-0.8686273344059353,-1.5043294219799606
-0.8864673317069273,-1.5464918916896806
-0.9232623261402233,-1.5868212105424564
-0.9132273276584153,-1.5813217579716232
-0.8563623362615033,-1.569406277401485
-0.7693923494191673,-1.5767388808292624
-0.6746173637576475,-1.6051527191119
-0.6210973718546715,-1.5657399756875963
-0.6534323669627194,-1.4777487345542673
-0.7114123581909434,-1.4007563985626044
-0.7236773563353754,-1.3760088619938557
-0.6668123649384634,-1.2971833751452484
-0.5943373759031835,-1.145031854018867
-0.5341273850123355,-0.9919637574640136
-0.48395239260329553,-0.9149714214723507
-0.44492739850737556,-0.8113983980549947
-0.4203974022185116,-0.6289998877890315
-0.4114774035680156,-0.42093726552584726
-0.3969824057609596,-0.2926167055397425
-0.3546124121711036,-0.17071217355294296
-0.2999774204368157,0.009853185856075903
-0.2620674261722077,0.22983128868939837
-0.2531474275217117,0.38289938524425193
-0.2419974292085917,0.5057204926595237
-0.20966243410054372,0.6542057120720163
-0.16506244084806376,0.8448534011942291
-0.11154244894508779,0.9933386206067218
-0.027917461596687843,1.1060773983087995
0.08692752102844808,1.2087338462976833
0.19619750449702403,1.3370544062837881
0.273132492857552,1.4424605805580886
0.3500674812180799,1.5249523691205844
0.46825746333715185,1.5762805931150263
0.6098624419137757,1.6376911468226623
0.7001774282500477,1.6871862199601597
0.7046374275752957,1.7311818405268242
0.6678424331419998,1.745847047382379
0.6622674339854397,1.7595956788094618
0.7090974269005437,1.7641785559518226
0.7637324186348317,1.7797603382358496
0.7893774147550077,1.7724277348080721
0.7882624149236956,1.755929377095573
0.7693074177913917,1.7229326616705747
0.7235924247075997,1.7082674548150198
0.6500024358410077,1.6862696445316876
0.5831024459622878,1.6606055325344666
0.5485374511916158,1.6166099119678021
0.5240074549027518,1.600111554255303
0.46825746333715185,1.5836131965428037
0.3902074751453119,1.5579490845455828
0.32888248442315193,1.5002048325518356
0.30881248745953593,1.4699578434122538
0.28874249049591993,1.4525429102712826
0.230762499267696,1.4222959211317006
0.13598751360617606,1.3443870097115656
0.04901752676384011,1.294891936574068
-0.012307463958319852,1.2701444000053193
-0.06025245670473582,1.222482477724766
-0.10819744945115178,1.0849961634539396
-0.13718744506526376,0.937427519469919
-0.13384244557132777,0.8246887417678412
-0.11488744843902378,0.7394472269199288
-0.11377244860771178,0.6138763932192405
-0.11711744810164779,0.5029707663741071
-0.0870124526562238,0.4323944583817495
-0.004502465139135856,0.3929817149574459
0.08023752204057609,0.30957335096647776
0.12706751495568006,0.22249868526162095
0.14713751191929605,0.15650525441162422
0.191737505171776,0.12717484070051455
0.263097494375744,0.07309689042065612
0.3110424871221599,0.01993551556926985
0.3110424871221599,-0.024976680425866822
0.3277674845918399,-0.03964188728142166
0.4225424702533599,-0.0698888764210035
0.5641474488299838,-0.09555298841822445
0.6388524375278878,-0.12213367584391759
0.5819874461309757,-0.12763312841475064
0.45153246586747187,-0.145048061555722
0.3645624790251359,-0.15513039126891595
0.3890924753139999,-0.17254532440988732
0.49278745962601583,-0.1734618998383595
0.5920224446127837,-0.1853773804084978
0.6165524409016477,-0.19087683297933086
0.5418474522037438,-0.2055420398348857
0.3868624756513759,-0.20737519069183005
0.192852505003088,-0.2202072466904405
0.014452531993168132,-0.23028957640363446
-0.12715244658345579,-0.25412053754391106
-0.2364224300520317,-0.264202867257105
-0.35015241284585563,-0.28253437582654856
-0.46722739513361555,-0.29903273353904775
-0.5887623767466235,-0.3338625998209905
-0.6958023605525754,-0.3567769855327949
-0.7872323467201594,-0.3796913712445993
-0.8652823349119994,-0.398939455242515
-0.9132273276584153,-0.43743562323834645
-0.9143423274897273,-0.4630997352355674
-0.9043073290079193,-0.48509754551889966
-0.9399873236099032,-0.4997627523744545
-1.0113473128138712,-0.5327594677994528
-1.0459123075845431,-0.5520075517973686
-1.014692312307807,-0.5648396077959791
-0.9109973279957913,-0.5703390603668121
-0.6277873708425434,-0.5941700215070888
-0.010077464295695853,-0.6042523512202826
0.8841524004165275,-0.6088352283626436
1.817407259224671,-0.6106683792195879
2.6703821301783504,-0.6381656420737533
3.46760700956643,-0.6546639997862524
3.9537469360184616,-0.6647463294994463
3.4965970051805417,-0.672995508355696
1.758312268165135,-0.715157978065416
-0.6489723676374715,-0.7545707214897197
-2.4842620899770225,-0.7839011352008294
-2.9547920187906858,-0.803149219198745
-2.3170121152802223,-0.8526442923362426
-1.4473122468568629,-0.9048890917591568
-0.9656323197300792,-0.9498012877542934
-0.8820073323816793,-0.97363224889457
-0.9143423274897273,-1.0176278694612344
-0.9288373252967833,-1.072622395169565
-0.9700923190553272,-1.1312832225917844
-1.0381073087653592,-1.1569473345890053
-1.0392223085966712,-1.1816948711577542
-0.9444473229351512,-1.2091921340119194
-0.8429823382857593,-1.2522711791501118
-0.8173373421655833,-1.2623535088633058
-0.8541323365988793,-1.2541043300070562
-0.8786623328877433,-1.2302733688667795
-0.8597073357554393,-1.2293567934383074
-0.7983823450332793,-1.2110252848688638
-0.7459773529616154,-1.1688628151591436
-0.7247923561666874,-1.0882041774535922
-0.7292523554919353,-1.0231273220320676
-0.7125273580222554,-0.9608001928959595
-0.6612373657819034,-0.8874741586181853
-0.6155223726981115,-0.7536541460612475
-0.5909923764092475,-0.606085502077227
-0.5698073796143195,-0.4750152158057057
-0.5352423848436475,-0.3686924661029332
-0.5017923899042875,-0.2092083415487744
-0.48952739175985555,-0.013061199855728522
-0.48283739277198356,0.165671008696346
-0.4560773968204956,0.28207608811231244
-0.4070174042427676,0.42597843038244426
-0.3445774136892956,0.6147929686477127
-0.26652742549745567,0.7971914789136759
-0.18624743764299173,0.9007645023310319
-0.12938244624607978,1.00525410117686
-0.0981624509693438,1.1528227451608806
-0.03906745990980783,1.315973171428928
0.09027252052238409,1.403047837133785
0.26421249420705595,1.4626252399844764
0.40358747312105586,1.5451170285469724
0.46268246418059183,1.6560226553921058
0.46379746401190386,1.7128503319573807
0.45599246519271985,1.7311818405268242
0.47048746299977584,1.7412641702400182
0.4994774586138878,1.7779271873789053
0.5228924550714398,1.787092941663627
0.5362724530471839,1.770594583951128
0.5518824506855518,1.72934868966988
0.5741824473117918,1.710100605671964
0.5864474454562237,1.6844364936747431
0.5630324489986718,1.6541895045351613
0.5028224581078238,1.6046944313976639
0.43146246890385587,1.5817800456858595
0.3801724766635039,1.5661982634018323
0.35675748020595194,1.5496999056893332
0.33891748290495993,1.4956219554094747
0.30212248847166395,1.4516263348428102
0.222957500448512,1.4158798931323955
0.10365251849812808,1.3892992057067022
-0.03014746125931184,1.3278886519990665
-0.13384244557132777,1.2710609754337914
-0.18959243713692775,1.222482477724766
-0.20297243511267174,1.1894857622997677
-0.20185743528135974,1.1225757560212988
-0.19962743561873572,1.0483331463150525
-0.19851243578742372,0.9722573857518617
-0.19293743663086374,0.921845737185892
-0.18736243747430373,0.8531025800504787
-0.18736243747430373,0.7779433949157603
-0.20074243545004772,0.6927018800678477
-0.2252724317389117,0.636790778931045
-0.2498024280277757,0.5753802252234091
-0.2397674295459677,0.5084702189449402
-0.16506244084806376,0.4168126760977225
-0.024572462102751845,0.35081924524772573
0.12706751495568006,0.2949081441109229
0.217382501291952,0.24632964640189756
0.211807502135392,0.17117046126717905
0.16943750854553602,0.11250963384495972
0.181702506689968,0.07034716413523959
0.29097249015854393,0.04651620299496298
0.43257746873516784,-0.00022914385711804425
0.5072824574330718,-0.03505901013906077
0.4916724597947038,-0.057973395850865195
0.44484246687959983,-0.061639697564753904
0.42365747008467186,-0.08638723413350267
0.4147374714341759,-0.10105244098905751
0.3790574768321919,-0.1093016198453071
0.3333424837483999,-0.10471874270294622
0.33222748391708795,-0.12305025127238976
0.38128747649481587,-0.1331325809855837
0.4247724699159839,-0.14229833527030547
0.3968974741331839,-0.1413817598418333
0.27536249252017597,-0.15971326841127684
0.10030751900419208,-0.16796244726752643
-0.06136745653604782,-0.17437847526683167
-0.16060244152281575,-0.17529505069530385
-0.2419974292085917,-0.20370888897794134
-0.3746824091347196,-0.2284564255466901
-0.5709223794456315,-0.2532039621154389
-0.7381723541424314,-0.2678691689709937
-0.8251423409847674,-0.30361561068140863
-0.8786623328877433,-0.3329460243925183
-0.9288373252967833,-0.35952671181821144
-0.9533673215856473,-0.3732753432452941
-0.9500223220917112,-0.40443890781334807
-0.9823573171997593,-0.4264367180966803
-1.0782473026925912,-0.44568480209459604
-1.1696772888601752,-0.4521008300939013
-1.191977285486415,-0.4750152158057057
-1.1473772922339351,-0.49426329980362144
-1.0180373118017432,-0.5153445346584815
-0.6757323635889594,-0.523593713514731
0.00107253401742414,-0.5428417975126468
0.9588573891144315,-0.5547572780827851
1.982427234258847,-0.5675893340813956
2.90453209475387,-0.5685059095098678
3.648236982238974,-0.5831711163654226
3.9749319328133894,-0.5969197477925052
3.354992026603918,-0.6170844072188931
1.4895973088189431,-0.6253335860751428
-0.9790123177058232,-0.6464148209300028
-2.725102053540414,-0.6739120837841681
-2.960367017947246,-0.7160745534938883
-2.1698321375470386,-0.7454049672049979
-1.392677255122575,-0.7784016826299963
-1.105007298644079,-0.8113983980549947
-1.0827073020178393,-0.8663929237633253
-1.054832306235039,-0.9094719689015176
-1.0269573104522391,-0.9507178631827655
-1.0570623058976631,-0.9791317014654031
-1.0827073020178393,-1.0322930763167892
-1.0481423072471672,-1.0882041774535922
-0.9823573171997593,-1.1376992505910897
-0.9355273242846552,-1.144115278590395
-0.9109973279957913,-1.155114183732061
-0.8942723305261113,-1.1844445974431708
-0.8920423308634873,-1.22202419001053
-0.8920423308634873,-1.1917772008709482
-0.8831223322129913,-1.1376992505910897
-0.8296023403100153,-1.1221174683070627
-0.7526673519494874,-1.1523644574466445
-0.6969173603838874,-1.072622395169565
-0.6958023605525754,-0.8526442923362426
-0.7181023571788154,-0.5859208426508391
-0.7047223592030714,-0.3961897289570985
-0.6623523656132154,-0.20645861526335788
-0.6355923696617275,0.030017845282463797
-0.6266723710112314,0.26466115497134113
-0.5898773765779355,0.3957314412428624
-0.4984473904103515,0.5057204926595237
-0.40032740525489563,0.6670377680706268
-0.3568424118337276,0.8631849097636727
-0.3624174109902876,0.9832562908935278
-0.3445774136892956,1.0675812303129681
-0.2721024246540157,1.1748205554442128
-0.18847743730561572,1.3223891994282333
-0.14387744405313577,1.4259622228455893
-0.1093124492824638,1.4947053799810026
-0.017882463114879846,1.5496999056893332
0.14267751259404804,1.6248590908240517
0.3132724867847839,1.6743541639615493
0.44149746738566387,1.7027680022441867
0.5396174525411198,1.7073508793865477
0.6343924382026397,1.719266359956686
0.7057524274066077,1.7174332090997415
0.7180174255510396,1.7137669073858528
0.6812224311177437,1.6917690971025205
0.6622674339854397,1.6743541639615493
0.6946024290934877,1.646856901107384
0.7302824236954717,1.632191694251829
0.7079824270692316,1.600111554255303
0.6366224378652637,1.563448537116416
0.5819874461309757,1.5084540114080853
0.5730674474804798,1.475457295983087
0.5619174491673598,1.4369611279872554
0.49278745962601583,1.397548384562952
0.3745974775069439,1.3343046799983715
0.26755749370099197,1.2967250874310123
0.201772503653584,1.263728372006014
0.16051750989504004,1.2252322040101826
0.11480251681124806,1.1519061697324084
0.0668575240648321,1.1014945211664386
0.023372530643664124,1.0639149285990794
-0.024572462102751845,1.0217524588893594
-0.08478245299359981,0.9337612177560303
-0.12492244692083178,0.8668512114775614
-0.12492244692083178,0.823772166339369
-0.1037374501259038,0.781609696629649
-0.1048524499572158,0.6862858520685425
-0.12826744641476778,0.6037940635060466
-0.14833744337838375,0.5515492640831325
-0.14722244354707176,0.5093867943734124
-0.13941744472788778,0.41406294981230596
-0.1260374467521438,0.32515513325050477
-0.1048524499572158,0.2664943058282855
-0.04687245872899183,0.23074786411787054
0.0657425242335201,0.1491726509838468
0.230762499267696,0.06484771156440652
0.39132247497662387,0.004353733285242841
0.4838674609755198,-0.024060104997394645
0.4950174592886398,-0.07997120613419745
0.48609746063814385,-0.1331325809855837
0.5206624554088158,-0.17437847526683167
0.5998274434319677,-0.18721053126544215
0.6700724328046237,-0.21837409583349615
0.6957174289247997,-0.24587135868766147
0.6968324287561117,-0.2697023198279381
0.7012924280813597,-0.2733686215418268
0.6912574295995517,-0.29078355468279815
0.6321624385400157,-0.30269903525293645
0.5485374511916158,-0.31828081753696347
0.5173174559148798,-0.31828081753696347
0.5652624486612958,-0.33019629810710177
0.6132074414077118,-0.336612326106407
0.5697224479865438,-0.35127753296196185
0.44149746738566387,-0.3540272592473784
0.3032374883029759,-0.3659427398175167
0.212922501966704,-0.37144219238834975
0.13933251310011205,-0.38519082381543235
0.04901752676384011,-0.3870239746723767
-0.0937024516440958,-0.3998560306709872
-0.2654124256661437,-0.414521237526542
-0.4460423983386876,-0.4466013775230682
-0.5898773765779355,-0.4676826123779283
-0.6801923629142074,-0.4924301489466771
-0.7415173536363674,-0.5107616575161206
-0.7783123480696633,-0.5400920712272302
-0.7749673485757274,-0.553840702654313
-0.7548973516121114,-0.5685059095098678
-0.7827723473949113,-0.580421390080006
-0.8753173333938074,-0.6088352283626436
-0.9712073188866392,-0.6253335860751428
-1.0102323129825592,-0.637249066645281
-0.9087673283331673,-0.6482479717869472
-0.48395239260329553,-0.6794115363550012
0.4191974707594239,-0.6959098940675004
1.6512722843591832,-0.7059922237806943
2.8465521035256462,-0.7169911289223604
3.8400169532246378,-0.750904419775831
4.696336823672253,-0.766486202059858
5.170211751979853,-0.7701525037737467
4.569226842902685,-0.7866508614862459
2.5243171522764785,-0.8608934711924923
-0.22973243106415972,-0.947968136897349
-2.2445371262449423,-1.020377595746651
-2.6403620663607024,-1.0698726688841487
-1.8208371903463827,-1.1422821277334505
-0.9020773293452953,-1.2165247374396968
-0.5987973752284315,-1.2761021402903885
-0.7883473465514713,-1.2990165260021929
-0.9946223153441912,-1.3375126939980242
-1.0158073121391191,-1.3915906442778827
-0.9622873202361433,-1.4539177734139908
-0.9411023234412152,-1.465833253984129
-0.9277223254654713,-1.4585006505563516
-0.9043073290079193,-1.4530011979855186
-0.8953873303574232,-1.4722492819834343
-0.8864673317069273,-1.4511680471285742
-0.8385223389605113,-1.3925072197063548
-0.7638173502626073,-1.3191811854285806
-0.7370573543111194,-1.283434743718166
-0.7548973516121114,-1.2293567934383074
-0.7693923494191673,-1.1312832225917844
-0.7270223558293114,-0.9882974557501248
-0.6612373657819034,-0.870059225477214
-0.6132923730354874,-0.7619033249174971
-0.5976823753971194,-0.6390822175022254
-0.5898773765779355,-0.4640163106640396
-0.5620023807951355,-0.29536643182515904
-0.5118273883860955,-0.1496309386980829
-0.46945739479623955,-0.026809831282811177
-0.44492739850737556,0.13542401955676414
-0.4304324007003196,0.3114065018234221
-0.4114774035680156,0.4681409000921644
-0.38025740829127963,0.5744636497949369
-0.3323124155448636,0.6972847572102087
-0.2754474241479517,0.8430202503372848
-0.21523743325710373,0.9850894417504722
-0.14833744337838375,1.0648315040275516
-0.06582745586129582,1.1326580857344928
0.024487530474976125,1.216983025153933
0.10365251849812808,1.3150565960004559
0.16386250938897604,1.361801942852537
0.236337498424256,1.3801334514219805
0.3400324827362719,1.3966318091344796
0.46491246384321583,1.4369611279872554
0.5741824473117918,1.4488766085573939
0.6544624351662557,1.434211401701839
0.7135574262257917,1.4012146862768406
0.7570424196469596,1.3947986582775354
0.7804574161045117,1.3810500268504526
0.7782274164418876,1.3498864622823987
0.7570424196469596,1.2875593331462907
0.7336274231894077,1.2490631651504591
0.7269374242015356,1.2206493268678218
0.7347424230207197,1.1885691868712955
0.7336274231894077,1.1198260297358822
0.6934874292621757,1.072164107455329
0.6143224412390238,1.0428336937442193
0.5295824540593118,1.0171695817469983
0.46491246384321583,0.947509849183113
0.41362247160286386,0.8870158709039493
0.3411474825675839,0.8476031274796456
0.239682497918192,0.8164395629115916
0.13821751326880005,0.7403638023484009
0.0735475230527041,0.6670377680706268
0.038982528282032115,0.6120432423622961
0.005532533342672137,0.5753802252234091
-0.04352745923505583,0.4993044646602184
-0.08366745316228781,0.41772925152619467
-0.1048524499572158,0.3480695189623092
-0.12157744742689579,0.30224074753870034
-0.16283244118543974,0.22616498697550966
-0.20966243410054372,0.14000689669912503
-0.2330774305580957,0.05201565556579604
-0.21635243308841573,-0.008478322713367637
-0.17286743966724774,-0.08088778156266961
-0.1026224502945918,-0.15788011755433248
0.005532533342672137,-0.24770450954460582
0.15494251073848003,-0.3091150632522417
0.29543248948379197,-0.3650261643890445
0.3768274771695679,-0.41360466209806984
0.3980124739644959,-0.4786815175195944
0.4191974707594239,-0.5226771380862589
0.47829246181895985,-0.5556738535112573
0.5541124503481758,-0.5785882392230617
0.5998274434319677,-0.6207507089327818
0.6054024425885277,-0.6509976980723637
0.5831024459622878,-0.672995508355696
0.5373874528784958,-0.6839944134973621
0.47271746266239983,-0.7142414026369439
0.4225424702533599,-0.7362392129202762
0.42365747008467186,-0.7518209952043031
0.4671424635058398,-0.7518209952043031
0.5095124570956958,-0.7646530512029136
0.5095124570956958,-0.7637364757744415
0.46268246418059183,-0.7619033249174971
0.3835174761574399,-0.7591535986320805
0.28205249150804795,-0.7774851072015241
0.16832250871422402,-0.7839011352008294
0.04678752710121611,-0.7848177106293015
-0.06248245636735982,-0.7930668894855512
-0.18847743730561572,-0.8425619626230487
-0.35126741267716766,-0.8975564883313794
-0.5553123818072635,-0.9443018351834603
-0.7337123548171834,-0.9782151260369308
-0.8385223389605113,-1.0322930763167892
-0.8920423308634873,-1.0799549985973425
-0.9266073256341593,-1.1138682894508132
-0.9366423241159673,-1.1312832225917844
-0.9422173232725273,-1.1633633625883106
-0.9890473161876312,-1.1899440500140037
-1.054832306235039,-1.2091921340119194
-1.0459123075845431,-1.2137750111542804
-0.9533673215856473,-1.233023095152196
-0.8039573441898393,-1.2458551511508065
-0.4583073964831196,-1.2568540562924726
0.3210774856039679,-1.257770631720945
1.4684123120240151,-1.2715192631480274
2.6146321386127505,-1.2806850174327493
3.5568069960713897,-1.289850771717471
4.3428818771463495,-1.2907673471459433
4.700796822997501,-1.3090988557153869
3.9113769424286056,-1.3301800905702468
1.717057274406591,-1.3585939288528843
-0.9399873236099032,-1.3750922865653834
-2.5879570742890383,-1.404422700276493
-2.612487070577902,-1.4383359911299638
-1.6825772112636947,-1.4832481871251004
-0.8730873337311833,-1.511662025407738
-0.6545473667940315,-1.5419090145473198
-0.7827723473949113,-1.5712394282584294
-0.8742023335624953,-1.6198179259674548
-0.8507873371049434,-1.657397518534814
-0.8362923392978874,-1.6867279322459237
-0.8697423342372473,-1.694060535673701
-0.8663973347433113,-1.7133086196716167
-0.7939223457080313,-1.735306429954949
-0.7337123548171834,-1.7518047876674483
-0.7337123548171834,-1.7178914968139778
-0.7504373522868634,-1.672979300818841
-0.7292523554919353,-1.6436488871077313
-0.6924573610586394,-1.630816831109121
-0.6712723642637114,-1.5519913442605138
-0.6902273613960154,-1.4282536614167698
-0.7136423578535674,-1.3210143362855251
-0.7114123581909434,-1.2678529614341387
-0.6578923662879674,-1.160613636302894
-0.5675773799516955,-0.9809648523223474
-0.49510239091641556,-0.8068155209126338
-0.46499739547099156,-0.715157978065416
-0.46499739547099156,-0.5960031723640331
-0.47391739412148753,-0.3998560306709872
-0.46945739479623955,-0.19270998383627522
-0.43712239968819155,-0.07997120613419745
-0.3624174109902876,0.027268118997047265
-0.2654124256661437,0.20233402583523308
-0.19405243646217574,0.4113132235268894
-0.18290243814905574,0.5378006326560498
-0.20297243511267174,0.632207901788684
-0.19070743696823975,0.7614450372032611
-0.1093124492824638,0.9273451897567251
0.020027531149728127,1.0345845148879698
0.15940251006372805,1.098744794881022
0.29097249015854393,1.16107192401713
0.41362247160286386,1.2499797405789312
0.5150874562522558,1.3058908417157342
0.5752974471431038,1.3333881045698994
0.5953674441067197,1.3407207079976768
0.6221274400582077,1.3590522165671204
0.6867974302743037,1.3590522165671204
0.7681924179600796,1.3508030377108708
0.8139074110438717,1.3251389257136499
0.8061024122246876,1.3086405680011506
0.7704224176227037,1.283893031432402
0.7425474218399036,1.2664780982914305
0.7380874225146556,1.231648232009488
0.7380874225146556,1.1995680920129617
0.7057524274066077,1.1574056223032414
0.6176674407329598,1.1326580857344928
0.4994774586138878,1.0969116440240778
0.4091624722776159,1.0593320514567186
0.3679074785190719,1.0034209503199158
0.3456074818928319,0.9676745086095009
0.3032374883029759,0.9300949160421416
0.253062495893936,0.8915987480463101
0.21069250230408001,0.8292716189102021
0.16609250905160003,0.7898588754858985
0.09027252052238409,0.7568621600609001
-0.0022724654765118577,0.7192825674935409
-0.06694245569260782,0.6468731086442389
-0.07028745518654382,0.5946283092213248
-0.049102458391615825,0.5570487166539656
-0.04798745856030383,0.5148862469442455
-0.07697745417441582,0.4287281566678608
-0.0925874518127838,0.3609015749609197
-0.07809245400572781,0.315989378965783
-0.05021745822292783,0.2765766355414794
-0.03349246075324784,0.1895019698366226
0.0033025336800481383,0.11525936013037626
0.09807751934156808,0.07034716413523959
0.248602496568688,0.03185099613940815
0.3857474758200639,-0.07172202727794785
0.4571074650240318,-0.19087683297933086
0.47383246249371186,-0.28620067754043726
0.4939024594573278,-0.336612326106407
0.5373874528784958,-0.3916068518147376
0.5775274468057278,-0.42552014266820815
0.5853324456249117,-0.43743562323834645
0.5686074481552318,-0.42552014266820815
0.5541124503481758,-0.4392687740952908
0.5429624520350558,-0.45393398095084564
0.5206624554088158,-0.46584946152098394
0.49836245878257585,-0.46218315980709523
0.5117424567583199,-0.47776494209112225
0.5630324489986718,-0.4878472718043162
0.5931374444440958,-0.49792960151751015
0.5329274535532478,-0.49701302608903797
0.40135747345843187,-0.5153445346584815
0.27759249218279997,-0.5318428923709807
0.1939675048344,-0.5501744009404242
0.10142251883550407,-0.5575070043682017
-0.06359745619867181,-0.5822545409369504
-0.2609524263408957,-0.606085502077227
-0.4360073998568796,-0.6363324912168089
-0.5653473802890715,-0.6537474243577802
-0.6969173603838874,-0.6812446872119455
-0.8429823382857593,-0.7069087992091665
-0.9645173198987672,-0.740822090062637
-1.034762309271423,-0.7609867494890249
-1.0615223052229112,-0.7857342860577737
-1.0570623058976631,-0.8049823700556894
-1.0436823079219193,-0.8324796329098547
-1.0514873067411032,-0.8453116889084652
-1.1016622991501432,-0.8608934711924923
-1.154067291221807,-0.8737255271911027
-1.125077295607695,-0.9012227900452681
-0.8842373320443033,-0.9158879969008229
-0.2877124222923837,-0.9296366283279055
0.7001774282500477,-0.9415521088980437
1.8787322499468309,-0.9708825226091534
2.968087085138654,-0.9864643048931805
3.8612019500195656,-0.9983797854633187
4.45995685943411,-1.0112118414619293
4.297166884062557,-1.0478748586008164
2.8275971063933425,-1.0735389705980374
0.3299974842544639,-1.092787054595953
-1.9078071771887186,-1.1120351385938687
-2.713952055227294,-1.159697060874422
-2.1542221399086703,-1.2000263797271977
-1.231002279582335,-1.2293567934383074
-0.7392873539737433,-1.2495214528646952
-0.7147573576848794,-1.3035994031445537
-0.8396373387918233,-1.3686762585660783
-0.9210323264775993,-1.4255039351313532
-0.9522523217543353,-1.4511680471285742
-0.9645173198987672,-1.4905807905528778
-0.9689773192240152,-1.5455753162612085
-0.9622873202361433,-1.6033195682549555
-0.9399873236099032,-1.6124853225396774
-0.9065373286705433,-1.6051527191119
-0.8619373354180633,-1.6097355962542608
-0.8095323433463993,-1.6399825853938426
-0.7582423511060473,-1.620734501395927
-0.7392873539737433,-1.5565742214028746
-0.7459773529616154,-1.4869144888389891
-0.7638173502626073,-1.460333801413296
-0.7537823517807993,-1.4025895494195488
-0.7091823585283195,-1.2880176208605267
-0.6389373691556635,-1.139532401448034
-0.5720373792769435,-1.035959378030678
-0.5541973819759515,-0.932386354613322
-0.5909923764092475,-0.7903171632001346
-0.6300173705051675,-0.5996694740779218
-0.6077173738789274,-0.43743562323834645
-0.5140573880487195,-0.2962830072536312
-0.4092474039053916,-0.15054751412655507
-0.35349741233979165,0.04743277842343516
-0.34792241318323164,0.24266334468800885
-0.32896741605092766,0.40948007266994507
-0.2576074268469597,0.5405503589414664
-0.15837244186019175,0.6982013326386808
-0.0825524533309758,0.8631849097636727
-0.03683746024718384,1.0089204028907488
0.014452531993168132,1.09782821945255
0.10365251849812808,1.1940686394421285
0.224072500279824,1.3086405680011506
0.3456074818928319,1.4259622228455893
0.4392674677230399,1.486456201124753
0.49836245878257585,1.5304518216914176
0.5474224513603038,1.5808634702573872
0.6087474420824638,1.6486900519643284
0.6756474319611837,1.6743541639615493
0.7113274265631677,1.6798536165323823
0.7068674272379197,1.6798536165323823
0.6901424297682397,1.7064343039580754
0.6823374309490557,1.7110171811004364
0.6756474319611837,1.693602247959465
0.6600374343228157,1.6551060799636337
0.6566924348288797,1.6450237502504397
0.6723024324672477,1.6331082696803014
0.6745324321298717,1.6046944313976639
0.6299324388773917,1.5359512742622505
0.5563424500107997,1.486456201124753
0.4916724597947038,1.449793183985866
0.44038246755435184,1.4122135914185068
0.3667924786877599,1.3379709817122603
0.26086749471312,1.2875593331462907
0.14490751225667206,1.2600620702921252
0.0668575240648321,1.2362311091518488
0.03786752845072012,1.1592387731601859
0.038982528282032115,1.0886624651678283
0.03563752878809612,1.0382508166018585
0.01891253131841613,1.0025043748914435
-0.011192464127007851,0.9181794354720033
-0.037952460078495835,0.82835504348173
-0.056907457210799824,0.7513627074900671
-0.051332458054239825,0.7000344834956251
-0.026802461765375842,0.6166261195046571
0.01556753182448013,0.5295514537998003
0.07466252288401609,0.45072596695119305
0.16497750922028803,0.403980620099112
0.27424749268886395,0.3407369155345318
0.3679074785190719,0.27749321096995155
0.4102774721089279,0.2096666292630105
0.41139247194023987,0.17025388583870688
0.41808247092811185,0.12625826527204237
0.46825746333715185,0.08592894641926659
0.5541124503481758,0.03276757156788033
0.6388524375278878,0.002520582428298487
0.6789924314551197,-0.024976680425866822
0.6644974336480637,-0.036892160996005126
0.6087474420824638,-0.05980654670780955
0.5451924516976798,-0.06622257470711479
0.5039374579391358,-0.07447175356336438
0.4950174592886398,-0.07447175356336438
0.5162024560835679,-0.09280326213280791
0.5440774518663678,-0.09921929013211316
0.5485374511916158,-0.10838504441683493
0.5050524577704478,-0.11021819527377928
0.41362247160286386,-0.1285497038432228
0.29654748931510394,-0.1331325809855837
0.16051750989504004,-0.14046518441336112
0.013337532161856132,-0.14779778784113853
-0.14722244354707176,-0.1817110786946091
-0.2899424219550077,-0.20462546440641352
-0.4070174042427676,-0.2247901238328014
-0.4984473904103515,-0.2449547832591893
-0.5999123750597435,-0.2935332809682147
-0.7203323568414394,-0.3320294489640461
-0.8139923426716473,-0.3604432872466836
-0.8429823382857593,-0.38060794667307146
-0.8440973381170713,-0.4282698689536247
-0.8831223322129913,-0.471348914091817
-0.9511373219230232,-0.5043456295168154
-0.9745523183805752,-0.5208439872293146
-0.9500223220917112,-0.5547572780827851
-0.9321823247907193,-0.5795048146515339
-0.8719723338998713,-0.5969197477925052
-0.5631173806264475,-0.6005860495063939
0.14825251175060805,-0.6216672843612541
1.1584423589192794,-0.6344993403598645
2.1875872032202546,-0.6427485192161141
3.0595170713062383,-0.641831943787642
3.741896968069182,-0.662913178642502
4.03068192437899,-0.6803281117834734
3.414087017663454,-0.6968264694959726
1.6022122917814552,-0.7041590729237499
-0.7894623463827833,-0.7298231849209709
-2.476457091157838,-0.7490712689188866
-2.669352061974814,-0.7674027774883302
-1.8141471913585108,-0.7729022300591633
-0.9555973212482712,-0.7994829174848563
-0.6467423679748474,-0.8324796329098547
-0.6924573610586394,-0.8746421026195749
-0.7504373522868634,-0.8984730637598515
-0.7504373522868634,-0.932386354613322
-0.7738523487444153,-0.9727156734660978
-0.8240273411534553,-1.0295433500313729
-0.8407523386231354,-1.0698726688841487
-0.8061873438524634,-1.1037859597376192
-0.7604723507686714,-1.1230340437355348
-0.7325973549858714,-1.1569473345890053
-0.7080673586970074,-1.1826114465862263
-0.6701573644323995,-1.1972766534417811
-0.6289023706738555,-1.169779390587616
-0.6255573711799195,-1.1422821277334505
-0.6422823686495994,-1.1193677420216461
-0.6433973684809114,-1.1047025351660913
-0.5932223760718714,-1.0295433500313729
-0.5285523858557756,-0.9305532037563776
-0.5006773900729755,-0.8489779906223539
-0.5240923865305275,-0.803149219198745
-0.5698073796143195,-0.6959098940675004
-0.5865323770839995,-0.5355091940848694
-0.5330123851810236,-0.3906902763862654
-0.4293174008690076,-0.3164476666800191
-0.33565741503879964,-0.19637628555016393
-0.2921724216176317,-0.0011457192855902213
-0.2776774238105757,0.19225169612203913
-0.2509174278590877,0.2912418423970342
-0.19293743663086374,0.4158961006692503
-0.12938244624607978,0.6560388629289606
-0.0881274524875358,0.9621750560386678
-0.06359745619867181,1.1812365834435181
-0.017882463114879846,1.326055501142122
0.0679725238961441,1.450709759414338
0.18058750685865602,1.5716977159726655
0.28539749100198397,1.6166099119678021
0.3690224783503839,1.6221093645386353
0.43257746873516784,1.632191694251829
0.4872124604694558,1.678020465675438
0.5385024527098078,1.6963519742448816
0.5831024459622878,1.6917690971025205
0.6165524409016477,1.6725210131046049
0.6410824371905117,1.673437588533077
0.6667274333106877,1.662438683391411
0.7012924280813597,1.646856901107384
0.7247074245389117,1.6138601856823855
0.7068674272379197,1.5946121016844699
0.6544624351662557,1.5707811405441934
0.6154374410703357,1.553366207403222
0.6143224412390238,1.5148700394073904
0.6165524409016477,1.481873323982392
0.5741824473117918,1.4415440051296164
0.4916724597947038,1.4177130439893397
0.4024724732897439,1.3792168759935084
0.32442248509790395,1.3443870097115656
0.248602496568688,1.3013079645733732
0.17835750719603202,1.2774770034330967
0.12483751529305606,1.2408139862942096
0.09250252018500808,1.1995680920129617
0.05682252558302411,1.1354078120199091
0.00107253401742414,1.0914121914532446
-0.06248245636735982,1.0446668446011638
-0.10150745046327979,0.9988380731775549
-0.0992774508006558,0.9273451897567251
-0.06805745552391981,0.8778501166192275
-0.04798745856030383,0.8356876469095074
