ECG,PPG
-0.20155524570166275,-2.8952896589965524
-0.22260705032304495,-1.2975280718248012
-0.2063088790032652,-1.1245220400928282
-0.18186162202359554,-1.56212553212076
-0.18118253155193806,-1.715703079005827
-0.2117416027765251,-1.5297447240425832
-0.250449759661002,-1.3789426749927887
-0.2728597452256992,-1.44092879331387
-0.2715015642823842,-1.5204930645916757
-0.24841248824602957,-1.475159933282228
-0.23415158834122227,-1.3622896879811548
-0.30273972597862875,-1.3289837139578873
-0.44806508691333163,-1.3308340458480687
-0.4521396297432766,-1.2780995869778953
-0.03246171825894773,-1.1624538438415495
0.8299831807460646,-1.0847399044539252
1.8981924926632965,-1.0218286201877533
3.021408132784785,-0.9330126894590398
4.1391910491330135,-0.8136662825423311
4.871250577579787,-0.7248503518136177
4.553436236844083,-0.6166059362379981
3.0302363089163324,-0.4824568741998372
1.106373002710663,-0.3473826462165855
-0.15605618410061092,-0.26134221332314433
-0.4439905440833867,-0.09851300698716968
-0.2443379454160846,0.15960829169315377
-0.09018440834983439,0.44363423683601866
-0.0895053178781769,0.6258919280188994
-0.11259439391453156,0.7813198067941479
-0.10648257966961415,0.9450741790752133
-0.12210166051773642,1.1005020578504618
-0.18186162202359554,1.1615630102264525
-0.23822613117116723,1.2161478009868074
-0.254524302490947,1.3068140636057024
-0.25248703107597453,1.4261604705224111
-0.2735388356973567,1.4724187677769494
-0.3061351783369162,1.5112757374707615
-0.31224699258183364,1.5732618557918427
-0.28847882607382147,1.6741049438067361
-0.27625519758398664,1.7194380751161837
-0.27014338333906923,1.7508937172492698
-0.24841248824602957,1.7823493593823558
-0.18797343626851296,1.844335477703437
-0.1288925652343113,1.8674646263307062
-0.0956171321230943,1.8841176133423398
-0.08678895599154694,1.8905937749579753
-0.08203532268994451,1.930375910596878
-0.06166260854021981,1.9451785657183305
-0.020917180240770404,1.9581308889496012
0.023223700416966447,1.9433282338281488
0.05242459069823852,1.947028897608512
0.06532730965973083,1.930375910596878
0.08026730003619562,1.9238997489812428
0.11218455220409765,1.89614477062852
0.15225089003188955,1.8905937749579753
0.18077268984150413,1.87209045605616
0.1896008659730515,1.8693149582208877
0.19095904691636648,1.8387844820328925
0.20250358493454382,1.8202811631310771
0.23442083710244585,1.7851248572176281
0.2799198987034977,1.7712473680412666
0.3267771412478645,1.734240730237636
0.36208984577405395,1.7101864156652762
0.38517892181040864,1.6704042800263732
0.4001189121868734,1.6574519567951025
0.41709617397831067,1.624145982771835
0.4361107071847204,1.5954658384740212
0.4456179737879252,1.5390307158234846
0.4361107071847204,1.5075750736903986
0.42388707869488557,1.465942606161314
0.4367897976563779,1.4335617980831372
0.4761770450125123,1.371575679762056
0.49994521152052446,1.3354942079035161
0.46666977840930746,1.296637238209704
0.38178346945212116,1.268882259856981
0.2833153510617851,1.2041206437006275
0.2031826754062013,1.1643385080617246
0.14002726154205475,1.1273318702580941
0.08570002380945553,1.1023523897406433
0.03816369079343123,1.0385159395293806
0.006925529097186688,0.9941079741650239
-0.005977189864305623,0.9552510044712118
-0.008014461279278092,0.9358225196243057
-0.009372642222593073,0.8821628948090413
-0.014805365995852993,0.8497820867308645
-0.027708084957345305,0.8238774402683231
-0.046722618163755024,0.8174012786526877
-0.06641624184182224,0.7702178154530588
-0.07728168938834208,0.737837007374882
-0.07252805608673965,0.7110071949672497
-0.05894624665358984,0.7045310333516144
-0.05011807052204247,0.6591979020421669
-0.04604352769209753,0.627742259909081
-0.030424446843975265,0.5981369496661765
0.006925529097186688,0.5916607880505411
0.03952187173674621,0.5500283205214567
0.03273096702017131,0.5176475124432799
-0.012089004109223034,0.4843415384200123
-0.046722618163755024,0.47694021085928623
-0.04196898486215259,0.44363423683601866
-0.027028994485687814,0.4260560838792941
-0.05826715618193236,0.4047772671422065
-0.14451164608243358,0.40662759903238804
-0.24162158352945468,0.3797977866247559
-0.30545608786525874,0.35666863799748677
-0.3265078924866409,0.31781166830367463
-0.32175425918503847,0.3048593450724039
-0.3129260830534911,0.2761792007745902
-0.3081724497518887,0.26137654565313795
-0.30341881645028623,0.2326964013553242
-0.28983700701713644,0.22899573757496117
-0.27014338333906923,0.21234275056332738
-0.2572406643775769,0.2067917548927828
-0.2572406643775769,0.17811161059496908
-0.2579197548492344,0.16885995114406144
-0.24297976447276964,0.1540572960226092
-0.20834615041823765,0.16145862358333532
-0.16692163164713075,0.1512817981873369
-0.13636256042254372,0.15498246196769996
-0.12278075098939391,0.14758113440697385
-0.11870620815944896,0.16145862358333532
-0.11327348438618905,0.1540572960226092
-0.10037076542469674,0.1531321300775184
-0.08475168457657446,0.14203013873642925
-0.06641624184182224,0.17626127870478756
-0.05826715618193236,0.22159441001423505
-0.05826715618193236,0.2882063580607701
-0.0691326037284522,0.32706332775458224
-0.06437897042684977,0.3770222887894836
-0.056229884766959885,0.41217859470293267
-0.06641624184182224,0.45473622817710785
-0.08407259410491698,0.46583821951819704
-0.08475168457657446,0.4945183638160107
-0.09018440834983439,0.5213481762236429
-0.14926527938403603,0.5666813075330904
-0.23075613598293482,0.5824091285996335
-0.25588248343426195,0.6055382772269026
-0.2511288501326595,0.6184906004581733
-0.34416424474973567,0.6517965744814408
-0.5356677577571478,0.6591979020421669
-0.594069538319692,0.6721502252734376
-0.2748970166406717,0.6693747274381654
0.43746888812803536,0.6851025485047083
1.387516457976864,0.6814018847243453
2.4679493983839307,0.6851025485047083
3.5945604908637065,0.6712250593283469
4.437990856662309,0.6832522166145268
4.412185418739324,0.6823270506694361
3.2020461982456774,0.6888032122850715
1.3073837823212802,0.6665992296028931
-0.22668159315298989,0.6601230679872577
-0.7489021658575997,0.643470080975624
-0.522085948323998,0.6406945831403517
-0.21377887419149758,0.6110892728974472
-0.12345984146105139,0.5898104561603595
-0.11327348438618905,0.5555793161920013
-0.052155341937014946,0.5398514951254583
-0.006656280335963113,0.5074706870472815
-0.039252622975522636,0.4926680319258292
-0.08067714174662953,0.4695388832985601
-0.06302078948353479,0.46676338546328777
-0.014126275524195504,0.44363423683601866
0.0008137148522692776,0.4251309179342034
-0.03314080873060522,0.38812428013057276
-0.07728168938834208,0.371471293118939
-0.0962962225947518,0.34001565098585296
-0.08203532268994451,0.31688650235858384
-0.07388623703005463,0.2752540348294994
-0.07931896080331455,0.2576758818727749
-0.08746804646320443,0.22992090352005193
-0.06302078948353479,0.2040162570575105
-0.033819899202262714,0.14758113440697385
-0.044006256277125066,0.10964933065825247
-0.10851985108458662,0.06986719501934957
-0.19068979815514292,0.04488771450189891
-0.2477333977743721,-0.005996412478093171
-0.26335247862249433,-0.031901058940634594
-0.251807940604317,-0.05595537351299449
-0.22260705032304495,-0.0689076967442652
-0.17982435060862306,-0.11609115994389421
-0.12957165570596882,-0.14477130424170795
-0.08678895599154694,-0.16882561881406782
-0.050797160993699964,-0.18085277610024778
-0.0052980993926481324,-0.2280362392998768
0.06532730965973083,-0.258566715487872
0.15157179956023206,-0.2826210300602319
0.23509992757410333,-0.2927978554562303
0.30300897473985233,-0.3390561527107686
0.36480620766068395,-0.3705117948438546
0.43203616435477543,-0.39641644130639603
0.5053779352937844,-0.4047429348122129
0.5841524300060532,-0.44915090017656967
0.6676805580199245,-0.48153170825474645
0.7505295955621383,-0.5102118525525602
0.8130059189546274,-0.5176131801132863
0.8442440806508719,-0.5583204816972799
0.8557886186690492,-0.5916264557205475
0.869370428102199,-0.6240072637987243
0.8883849613086088,-0.6323337573045411
0.8904222327235812,-0.6684152291630809
0.8476395330091594,-0.7007960372412577
0.7539250479204257,-0.7396530069350699
0.6262560392488176,-0.7498298323310683
0.4924752163322921,-0.774809312848519
0.3736343837922313,-0.7923874658052436
0.26973354162863533,-0.821992776048148
0.1685490613516693,-0.8256934398285111
0.06261094777310088,-0.8358702652245095
-0.03585717061723519,-0.8312444354990557
-0.10716167014127163,-0.8441967587303264
-0.1451907365540911,-0.8395709290048725
-0.1777870791936506,-0.8414212608950541
-0.22803977409630485,-0.8229179419932388
-0.27897155947061664,-0.8210676101030572
-0.2742179261690142,-0.8034894571463327
-0.20155524570166275,-0.7933126317503343
-0.09697531306640929,-0.7600066577270668
-0.027028994485687814,-0.7396530069350699
0.01847006711536402,-0.7091225307470747
0.061931857301443384,-0.6924695437354409
0.13187817588216486,-0.6508370762063564
0.20861539917946123,-0.6240072637987243
0.26226354644040295,-0.597177451391092
0.2833153510617851,-0.5851502941049121
0.28942716530670254,-0.5250145076740124
0.2833153510617851,-0.439899240725662
0.2602262750254305,-0.3381309867656778
0.2500399179505681,-0.2789203662798689
0.2805989891751552,-0.21600908201369684
0.29485988907996247,-0.15772362747297863
0.22762993238587095,-0.08926134753626203
0.19842904210459889,-0.06150636918353908
0.46599068793764997,-0.03837722055626995
1.1382902548785652,-0.022649399489726944
2.1059941769904884,0.01435723831390366
3.265201612109824,0.02360889776481131
4.490280822979936,0.031010225325537433
5.290928489064116,0.024534063709902076
4.943234167575482,0.04303738261171738
3.3086634022959034,0.043962548556808145
1.257131087418626,0.04303738261171738
-0.082714413161602,0.017132736149175955
-0.37472331597432273,0.01250690642372213
-0.14654891749740606,0.001404915082632949
-0.0005444660910457025,-0.005071246533002407
-0.07116987514342467,-0.04207788433663301
-0.18797343626851296,-0.06428186701881138
-0.24977066918934454,-0.09111167942644356
-0.3013815450353138,-0.1059143345478958
-0.3801560397475826,-0.148471968022071
-0.4256551013486345,-0.1771521123198847
-0.37200695408769274,-0.2067574225627892
-0.24365885494442713,-0.21878457984896915
-0.12957165570596882,-0.258566715487872
-0.06369987995519227,-0.28724685978568576
-0.018879908825797934,-0.31962766786386254
0.03069369560519884,-0.33350515704022404
0.06396912871641586,-0.36958662889876387
0.0884163856960855,-0.39826677319657755
0.11082637126078267,-0.43342307911002664
0.1434227139003422,-0.44730056828638814
0.15768361380514948,-0.48153170825474645
0.1549672519185195,-0.5157628482231047
0.1481763472019446,-0.5684973070932784
0.1481763472019446,-0.6008781151714552
0.15428816144686203,-0.6425105827005395
0.16922815182332682,-0.6730410588885348
0.1896008659730515,-0.7174490242528915
0.2106526705944337,-0.7359523431547068
0.2167644848393511,-0.7618569896172482
0.2031826754062013,-0.7877616360797897
0.17941450889818916,-0.8451219246754171
0.17194451370995675,-0.8830537284241384
0.18892177550139402,-0.9200603662277691
0.21336903248106365,-0.9505908424157643
0.21268994200940616,-1.0125769607368456
0.18416814219979158,-1.0551345942110208
0.14953452814525958,-1.0902909001244698
0.1420645329570272,-1.1143452146968298
0.17533996606824423,-1.1670796735670033
0.24324901323399323,-1.1976101497549987
0.32881441266283695,-1.2170386346019046
0.42117071680825563,-1.2318412897233568
0.5176015637836192,-1.2882764123738937
0.6221814964188727,-1.334534709628432
0.7355896051856735,-1.3715413474320624
0.8530722567824193,-1.39282016416915
0.9658012750775626,-1.4455546230393237
1.070381207712816,-1.4816360948978635
1.1654538737448648,-1.5038400775800418
1.2428701875138186,-1.5130917370309496
1.274108349210063,-1.558424868340397
1.2354001923255862,-1.5926560083087553
1.1274248073320452,-1.6157851569360244
0.9868530796989448,-1.625036816386932
0.8476395330091594,-1.673145445531652
0.7172541624509212,-1.720328908731281
0.5970551489675455,-1.7619613762603654
0.5026615734071544,-1.7850905248876345
0.4496925166178702,-1.8331991540323542
0.4232079882232281,-1.8720561237261664
0.3878952836970386,-1.9025865999141616
0.33220986502112443,-1.9118382593650693
0.2602262750254305,-1.9488448971686998
0.20114540399122885,-1.992327696587966
0.1685490613516693,-2.044136989513049
0.1828099612564766,-2.070966801920681
0.191638137388024,-2.109823771614493
0.1434227139003422,-2.144980077527942
0.05921549541481342,-2.1912383747824804
0.02458188136028143,-2.2078913617941143
0.02729824324691139,-2.228245012586111
-0.018879908825797934,-2.240272169872291
-0.11870620815944896,-2.27542847578574
-0.15605618410061092,-2.291156296852283
-0.11123621297121658,-2.2976324584679184
-0.11191530344287406,-2.2698774801151953
-0.20970433136155264,-2.2559999909388337
-0.23550976928453726,-2.235646340146837
0.002171895795584258,-2.217143021245022
0.531183373216769,-2.1551569029239404
1.3318310393009498,-2.108898605669402
2.484926660175368,-2.0876197889323147
3.947008445653944,-2.0746674657010438
5.196534913503726,-1.9460693993334275
5.385322064624508,-1.7268050703469162
4.136474687246384,-1.499214247854588
2.129083253026843,-1.349337364749884
0.5970551489675455,-1.1791068308531834
0.157004523333492,-0.9774206548233966
0.3627689362457115,-0.7979384614757881
0.4788934068991423,-0.7146735264176193
0.33492622690775437,-0.605503944896909
0.19978722304791385,-0.4278720834394821
0.1760190565399017,-0.23636273280569367
0.12304999975061748,-0.14199580640643564
0.006925529097186688,-0.04577854811699607
-0.059625337125247334,0.10317316904261711
-0.0548717038236449,0.2706282051040456
-0.07931896080331455,0.3455666466563976
-0.1580934555155834,0.418654756318568
-0.21242069324818258,0.5454024907960028
-0.20359251711663523,0.7128575268574313
-0.18254071249525303,0.804448955421417
-0.19068979815514292,0.8766118991384967
-0.23618885975619475,0.970053659592664
-0.28508337371553405,1.092175564344645
-0.3149633544684636,1.1513861848304539
-0.2810088308855891,1.19486898424972
-0.19476434098508785,1.2503789409551658
-0.08746804646320443,1.344745867354424
0.017111886172049038,1.4002558240598697
0.11693818550570008,1.442813457534045
0.19978722304791385,1.474269099667131
0.24868173700725313,1.5307042223176677
0.27652444634521023,1.560309532560572
0.327456231719522,1.5862141790231135
0.4089470883184208,1.591765174693658
0.4754979545408548,1.615819489266018
0.495191578218922,1.615819489266018
0.5026615734071544,1.6213704849365627
0.5400115493483164,1.6065678298151105
0.5882269728359981,1.6139691573758366
0.6038460536841205,1.6111936595405643
0.5909433347226282,1.6250711487169256
0.597734239439203,1.6093433276503828
0.6493451152851722,1.596391004419112
0.7158959815076062,1.5584592006703906
0.7546041383920832,1.5455068774391199
0.7586786812220282,1.5149764012511246
0.7546041383920832,1.4872214228984018
0.7695441287685479,1.4289359683576834
0.8062150142380524,1.395629994334416
0.8503558948957893,1.3576981905856946
0.8802358756487189,1.3262425484526086
0.8727658804604865,1.2605557663511642
0.8204759141428597,1.2235491285475337
0.7396641480156184,1.1883928226340845
0.664285105661637,1.1615630102264525
0.6018087822691479,1.0940258962348266
0.5264297399151666,1.0523934287057422
0.41709617397831067,1.0200126206275653
0.2989344319099074,0.9931828082199331
0.20250358493454382,0.9126933709970365
0.13255726635382234,0.8488569207857738
0.05446186211321099,0.7998231256959633
-0.031103537315632753,0.772993313288331
-0.10444530825464168,0.7045310333516144
-0.11259439391453156,0.6545720723167131
-0.06641624184182224,0.6184906004581733
0.008962800512159159,0.5999872815563579
0.07008094296133326,0.537075997290186
0.10471455701586525,0.48804220220037536
0.1284827235238774,0.4491852325065633
0.17262360418161427,0.43160707954983873
0.2378162894607333,0.371471293118939
0.2996135223815649,0.3215123320840377
0.3342471364360969,0.280805030500044
0.3342471364360969,0.26137654565313795
0.27584535587355274,0.2040162570575105
0.16786997088001182,0.15590762791279072
0.1284827235238774,0.11149966254843399
0.3145535127580297,0.09114601175643716
0.768185947825233,0.03748638694117279
1.4642536812741602,-0.009697076258456233
2.4733821221571906,-0.05780570540317602
3.8023621751908987,-0.08093485403044515
4.988054138704876,-0.12996864912025569
5.201288546805328,-0.17437661448461242
4.0488720164025676,-0.22618590740969527
2.1284041625551855,-0.25301571981732746
0.5338997351033989,-0.29834885112677495
-0.13364619853591375,-0.3390561527107686
-0.11259439391453156,-0.3945661094162145
0.03476823843514378,-0.4260217515493005
0.013716433813761588,-0.4667290531332942
-0.11395257485784654,-0.4981846952663802
-0.20562978853160768,-0.542592660630737
-0.23686795022785223,-0.5601708135874615
-0.2667479309807818,-0.5870006259950936
-0.31088881163851867,-0.6138304384027259
-0.3339778876748733,-0.6711907269983532
-0.31835880682675105,-0.7054218669667116
-0.29798609267702636,-0.7424285047703422
-0.29526973079039637,-0.7859113041896082
-0.28576246418719153,-0.8756524008634123
-0.2395843121144822,-0.9505908424157643
-0.1703170840054182,-1.011651794791755
-0.10784076061292913,-1.046808100705204
-0.08543077504823196,-1.1041683893008314
-0.09290077023646434,-1.1411750271044618
-0.12142257004607893,-1.1661545076219126
-0.13772074136585868,-1.1726306692375479
-0.13228801759259876,-1.2142631367666323
-0.1166689367444765,-1.251269774570263
-0.11395257485784654,-1.2836505826484397
-0.13839983183751617,-1.2873512464288028
-0.18050344108028057,-1.3206572204520703
-0.21581614560647006,-1.3604393560909733
-0.22668159315298989,-1.4057724874004207
-0.22736068362464737,-1.40484732145533
-0.24365885494442713,-1.4029969895651484
-0.286441554658849,-1.3974459938946038
-0.34416424474973567,-1.408547985235693
-0.3998496634256498,-1.3789426749927887
-0.4460278154983592,-1.3428612031342488
-0.48745233426946605,-1.3123307269462534
-0.5200486769090256,-1.3206572204520703
-0.5363468482288053,-1.2873512464288028
-0.5377050291721204,-1.2225896302724493
-0.5397423005870928,-1.1402498611593712
-0.5472122957753252,-1.105093555245922
-0.5465332053036677,-1.0449577688150224
-0.527518672097258,-0.9524411743059459
-0.5010341437026159,-0.8293941036088741
-0.47319143436465877,-0.7553808280016129
-0.4358414584234968,-0.6748913907787163
-0.38423058257752757,-0.5694224730383691
-0.3394106114481332,-0.4167700920983929
-0.32175425918503847,-0.29742368518168416
-0.3332987972032158,-0.18732893771588313
-0.3618205970128304,-0.07908452214026361
-0.41343147285879966,0.07449302474480339
-0.48337779143952114,0.2095672527280551
-0.5519659290769277,0.33076399153494535
-0.592711357376377,0.4251309179342034
-0.6158004334127317,0.5657561415879997
-0.6354940570907989,0.7119323609123406
-0.6599413140704685,0.8497820867308645
-0.6843885710501382,0.9358225196243057
-0.7129103708597527,1.0459172670901067
-0.7387158087827373,1.1680391718420877
-0.7482230753859422,1.289235910648978
-0.7529767086875446,1.35214719491515
-0.7774239656672143,1.434486964028228
-0.8317512033998135,1.5390307158234846
-0.8650266365110305,1.6565267908500116
-0.864347546039373,1.7111115816103668
-0.8616311841527431,1.7666215383158128
-0.8758920840575504,1.8350838182525293
-0.8894738934907002,1.9266752468165151
-0.8976229791505901,1.9655322165103273
-0.9302193217901495,1.9988381905335948
-0.9791138357494888,2.030293832666681
-0.997449278484241,2.0895044531524896
-0.9818301976361188,2.1061574401641234
-1.005598364144131,2.1218852612306667
-1.0891264921580022,2.1311369206815742
-1.1176482919676167,2.170919056320477
-0.9193538742436297,2.1810958817164754
-0.43448327748018184,2.191272707112474
0.2860317129484151,2.1820210476615665
1.2272511066656964,2.2023746984535633
2.4387485081026585,2.203299864398654
3.70185678538559,2.206075362233926
4.337485466857,2.178320383881203
3.678088618877578,2.1755448860459308
1.9172070258697063,2.1625925628146603
0.11693818550570008,2.1588918990342973
-0.7998339512319115,2.120034929340485
-0.8752129935858929,2.099681278548488
-0.7183430946330127,2.071926300195765
-0.6789558472768783,2.0608243088546763
-0.6796349377485358,2.0127156797099564
-0.6504340474672636,1.9766342078514165
-0.6646949473720709,1.9294507446517875
-0.7448276230276548,1.9044712641343366
-0.7957594084019666,1.8517368052641632
-0.7842148703837892,1.8110295036801696
-0.7692748800073245,1.7582950448099959
-0.793722136986994,1.7323903983474545
-0.832430293871471,1.6842817692027348
-0.8650266365110305,1.6454247995089226
-0.8935484363206451,1.5889896768583858
-0.9247865980168897,1.560309532560572
-0.9621365739580516,1.5168267331413061
-0.9981283689558985,1.4816704272278571
-1.0273292592371706,1.4215346407969573
-1.0293665306521431,1.3891538327187807
-1.0144265402756782,1.3484465311347869
-0.998807459427556,1.320691552782064
-0.9791138357494888,1.2707325917471626
-0.9451593121666143,1.253154438790438
-0.896264798207275,1.2281749582729875
-0.8575566413227981,1.1957941501948106
-0.8432957414179908,1.107903385411188
-0.8412584700030183,1.0357404416941083
-0.8290348415131835,0.9728291574279363
-0.8066248559484863,0.9385980174595779
-0.7882894132137341,0.8784622310286783
-0.7787821466105292,0.8442310910603199
-0.7590885229324621,0.8192516105428693
-0.7190221851046702,0.8137006148723247
-0.6653740378437284,0.7674423176177865
-0.6185167952993617,0.7332111776494281
-0.5784504574715698,0.7026807014614329
-0.5377050291721204,0.7008303695712513
-0.492885058042726,0.6675243955479838
-0.459609624931509,0.6480959107010777
-0.43108782512189436,0.627742259909081
-0.3801560397475826,0.6342184215247163
-0.283725192772219,0.6110892728974472
-0.16827981259044575,0.5962866177759949
-0.07931896080331455,0.5713071372585442
-0.044006256277125066,0.5759329669839981
-0.0412898943904951,0.556504482137092
-0.044006256277125066,0.544477324850912
-0.04196898486215259,0.5139468486629168
-0.05894624665358984,0.5139468486629168
-0.11531075580116151,0.5083958529923722
-0.2185325074931,0.5259740059490967
-0.3434851542780782,0.5268991718941876
-0.4623259868181389,0.5491031545763659
-0.5533241100202426,0.5574296480821828
-0.6198749762426766,0.5824091285996335
-0.6714858520886459,0.5851846264349058
-0.7224176374629576,0.6055382772269026
-0.7753866942522418,0.6120144388425379
-0.8229230272682662,0.6369939193599886
-0.8528030080211957,0.6406945831403517
-0.8507657366062232,0.6601230679872577
-0.829713931984841,0.6684495614930746
-0.8059457654768288,0.7026807014614329
-0.8025503131185414,0.7230343522534297
-0.7998339512319115,0.7572654922217881
-0.8011921321752264,0.7720681473432403
-0.8229230272682662,0.8016734575861447
-0.8426166509463333,0.812775448927234
-0.8202066653816362,0.8368297634995938
-0.7794612370821867,0.8396052613348661
-0.792363956043679,0.8599589121268629
-0.8249602986832386,0.8682854056326799
-0.7814985084971593,0.8941900520952213
-0.7027240137848904,0.8978907158755843
-0.7448276230276548,0.9126933709970365
-0.8602730032094281,0.9080675412715827
-0.7597676134041196,0.9191695326126719
-0.2796506499422741,0.9126933709970365
0.4483343356745552,0.9173192007224904
1.3454128487340995,0.9062172093814012
2.529746631304762,0.9182443666675811
3.881815760374825,0.9154688688323088
4.68925433117558,0.9173192007224904
4.179936477432463,0.8904893883148582
2.4054730749914417,0.883088060754132
0.36480620766068395,0.8682854056326799
-0.8921902553773301,0.8645847418523168
-1.1298719204574517,0.8349794316094123
-0.8969438886789326,0.8257277721585047
-0.7570512515174896,0.8118502829821431
-0.799154860760254,0.8090747851468709
-0.8378630176447309,0.7711429813981495
-0.832430293871471,0.7470886668257896
-0.8758920840575504,0.7174833565828851
-0.9723229310329139,0.7073065311868867
-1.0239338068788832,0.6712250593283469
-1.0218965354639107,0.6554972382618038
-1.0354783448970606,0.6397694171952608
-1.074865592253195,0.6397694171952608
-1.0755446827248525,0.6064634431719933
-1.0293665306521431,0.5824091285996335
-0.9954120070692686,0.5509534864665474
-1.000165640370871,0.5389263291803674
-1.0225756259355683,0.5009945254316461
-1.0280083497088282,0.4723143811338324
-1.0273292592371706,0.43623290927529257
-1.0232547164072257,0.4242057519891126
-1.0185010831056234,0.3899746120207543
-1.009672906974076,0.3631447996131221
-0.9865838309377213,0.3224374980291284
-0.9533083978265042,0.30670967696258544
-0.9186747837719722,0.2789546986098625
-0.8887948030190427,0.265077209433501
-0.8541611889645107,0.23639706513568728
-0.8093412178351164,0.2308460694651427
-0.7652003371773795,0.21419308245350893
-0.7441485325559973,0.20864208678296434
-0.7482230753859422,0.18181227437533215
-0.7570512515174896,0.17441094681460603
-0.7509394372725722,0.15775795980297225
-0.7359994468961074,0.1531321300775184
-0.7217385469913001,0.12630231766988623
-0.7047612851998629,0.11982615605425088
-0.6646949473720709,0.10317316904261711
-0.5988231716212944,0.0902208458113464
-0.5173323150223956,0.03933671883135432
-0.4487441773849891,-0.0013705827526393464
-0.41411056333045715,-0.04392821622681454
-0.42158055851868953,-0.06150636918353908
-0.4283714632352644,-0.09758784104207892
-0.38423058257752757,-0.11516599399880345
-0.27829246899895915,-0.13366931290061876
-0.17235435542039068,-0.1271931512849834
-0.12617620334768137,-0.13922030857116335
-0.14586982702574858,-0.13644481073589104
-0.18729434579685547,-0.1429209723515264
-0.22056977890807247,-0.13366931290061876
-0.24909157871768706,-0.1512474658573433
-0.2932324593754239,-0.164199789088614
-0.35502969229625553,-0.19010443555115542
-0.42701328229194946,-0.18732893771588313
-0.48677324379780856,-0.19010443555115542
-0.522085948323998,-0.1725262825944309
-0.5363468482288053,-0.1669752869238863
-0.5526450195485851,-0.1456964701867987
-0.5770922765282548,-0.1429209723515264
-0.6049349858662119,-0.13181898101043724
-0.623270428600964,-0.14199580640643564
-0.6409267808640589,-0.13551964479080028
-0.6633367664287559,-0.1373699766809818
-0.6871049329367681,-0.11794149183407575
-0.6972912900116305,-0.11054016427334963
-0.6972912900116305,-0.0901865134813528
-0.6959331090683155,-0.0874110156460805
-0.7040821947282053,-0.07445869241480979
-0.7251339993495876,-0.08093485403044515
-0.7577303419891471,-0.07538385835990055
-0.7930430465153365,-0.08278518592062667
-0.8168112130233487,-0.0661321989089929
-0.8188484844383211,-0.05780570540317602
-0.8120575797217463,-0.03375139083081612
-0.8236021177399236,-0.03282622488572536
-0.8697802698126329,-0.03097589299554383
-0.9234284170735747,-0.05317987567772219
-0.9505920359398743,-0.06058120323844831
-0.9573829406564491,-0.07723419025008209
-0.9926956451826386,-0.07445869241480979
-1.0578883304617577,-0.08371035186571744
-1.0925219445162897,-0.07353352646971903
-1.037515616312033,-0.08000968808535439
-0.9193538742436297,-0.08186001997553591
-0.8039084940618564,-0.10683950049298657
-0.7237758184062726,-0.11424082805371269
-0.6653740378437284,-0.12996864912025569
-0.6205540667143341,-0.13459447884570952
-0.5838831812448296,-0.16234945719843247
-0.5506077481336127,-0.1725262825944309
-0.5146159531357657,-0.18732893771588313
-0.48813142474112353,-0.19010443555115542
-0.4786241581379187,-0.2178594139038784
-0.47998233908123367,-0.22896140524496755
-0.47998233908123367,-0.2437640603664198
-0.48813142474112353,-0.24561439225660134
-0.5037505055892458,-0.27336937060932426
-0.5132577721924507,-0.28539652789550424
-0.5085041388908482,-0.30112434896204726
-0.5112205007774782,-0.302049514907138
-0.5343095768138328,-0.32980449325986094
-0.560794105208475,-0.3418316505460409
-0.5560404719068726,-0.3575594716125839
-0.524802310210628,-0.3584846375576747
-0.5037505055892458,-0.38531444996530684
-0.528876853040573,-0.3973416072514868
-0.5906740859614046,-0.41306942831802984
-0.659262223598811,-0.4139945942631206
-0.7108730994447803,-0.44637540234129736
-0.7529767086875446,-0.4722800488038388
-0.797796679816939,-0.5055860228271063
-0.8439748318896483,-0.5176131801132863
-0.872496631699263,-0.5481436563012815
-0.8765711745292079,-0.5647966433129152
-0.8589148222661132,-0.5879257919401845
-0.8290348415131835,-0.5888509578852752
-0.7910057751003641,-0.6073542767870905
-0.7556930705741747,-0.6184562681281797
-0.7366785373677649,-0.6434357486456304
-0.7387158087827373,-0.6471364124259934
-0.7482230753859422,-0.6637893994376272
-0.7461858039709698,-0.6730410588885348
-0.7169849136896976,-0.699870871296167
-0.666053128315386,-0.7072721988568931
-0.6124049810544442,-0.7211496880332546
-0.5764131860565973,-0.71559869236271
-0.5492495671902976,-0.7257755177587084
-0.5139368626641082,-0.7202245220881638
-0.4759077962512887,-0.7267006837037991
-0.4453487250267017,-0.71559869236271
-0.4229387394620045,-0.7239251858685268
-0.37743967786095267,-0.7211496880332546
-0.3149633544684636,-0.7285510155939807
-0.26538975003746684,-0.7100476966921654
-0.2647106595658093,-0.70357153507653
-0.3040979069219438,-0.6896940459001686
-0.3265078924866409,-0.687843714009987
-0.3068142688085737,-0.6462112464809027
-0.29119518796045146,-0.593476787610729
-0.3400897019197907,-0.5287151714543754
-0.41207329191548464,-0.4935588655409264
-0.4419532726684142,-0.4380489088354805
-0.4854150628544936,-0.38531444996530684
-0.6504340474672636,-0.3261038294794979
-0.8256393891548961,-0.30575017868750104
-0.7108730994447803,-0.2678183749387797
-0.16080981740221334,-0.2224852436293322
0.6703969199065545,-0.15864879341806942
1.6374217515468203,-0.13089381506534645
2.753846486951734,-0.10036333887735122
3.849898508206923,-0.07075802863444673
4.313038209877331,-0.02172423354463618
3.559247786337517,-0.0022957486977301113
1.7569416745585384,0.01805790209426672
-0.14179528419580362,0.031010225325537433
-1.210683686584693,0.06524136529389574
-1.2942118145985642,0.07634335663498493
-0.9342938646200944,0.08837051392116486
-0.6843885710501382,0.0846698501408018
-0.6558667712405236,0.10039767120734482
-0.6701276711453309,0.10039767120734482
-0.6395685999207438,0.10409833498770787
-0.6164795238843892,0.08281951825062028
-0.6212331571859916,0.07726852258007569
-0.6028977144512394,0.05969036962335115
-0.5546822909635576,0.05506453989789732
-0.527518672097258,0.031010225325537433
-0.5363468482288053,0.021758565874629782
-0.5336304863421754,0.003255246972814479
-0.49628051040101345,-0.00044541680754858125
-0.4528187202149341,-0.02727522921518077
-0.42158055851868953,-0.047628880007177604
-0.39781239201067736,-0.08278518592062667
-0.3597833255978579,-0.09851300698716968
-0.3265078924866409,-0.13181898101043724
-0.3149633544684636,-0.1558732955827971
-0.3305824353165859,-0.19658059716679077
-0.357066963711228,-0.21508391606860608
-0.37132786361603526,-0.24283889442132903
-0.37743967786095267,-0.2567163835976905
-0.3862678539925,-0.28539652789550424
-0.39849148248233485,-0.2909475235660488
-0.4093569300288547,-0.3076005105776826
-0.42158055851868953,-0.32055283380895333
-0.44059509172509925,-0.3603349694478562
-0.459609624931509,-0.3825389521300346
-0.4697959820063713,-0.40936876453766674
-0.4718332534213438,-0.4269469174943913
-0.4623259868181389,-0.4722800488038388
-0.4290505537069219,-0.4972595293212894
-0.37472331597432273,-0.52223900983874
-0.3271869829582984,-0.5370416649601923
-0.3102097211668612,-0.5823747962696398
-0.3203960782417235,-0.6110549405674536
-0.33873152097647574,-0.636959587029995
-0.3502760589946531,-0.6480615783710841
-0.33805243050481826,-0.6924695437354409
-0.27897155947061664,-0.7248503518136177
-0.16760072211878826,-0.7535304961114314
-0.04536443722044004,-0.7600066577270668
0.03273096702017131,-0.790537133915062
0.04767095739663609,-0.8108907847070588
0.03952187173674621,-0.8303192695539648
0.05582004305652597,-0.8266186057736018
0.1013191046575778,-0.8460470906205079
0.13731089965542478,-0.8627000776321416
0.1359527187121098,-0.888604724094683
0.11354273314741262,-0.8858292262594107
0.1149009140907276,-0.8997067154357723
0.14545998531531465,-0.9145093705572245
0.15836270427680696,-0.947815344580492
0.09996092371426282,-0.9487405105255828
-0.019558999297455422,-0.9450398467452198
-0.13432528900757124,-0.9302371916237675
-0.19068979815514292,-0.9385636851295844
-0.20291342664497775,-0.9191352002826784
-0.2192115979647575,-0.8895298900397738
-0.26267338815083685,-0.8386457630597818
-0.31564244494012106,-0.8145914484874218
-0.3563878732395705,-0.774809312848519
-0.3828724016342126,-0.731326513429253
-0.40528238719890974,-0.6628642334925364
-0.4304087346502369,-0.6184562681281797
-0.45485599162990653,-0.5657218092580061
-0.4779450676662612,-0.514837682278014
-0.49628051040101345,-0.43249791316493585
-0.5098623198341632,-0.36681113106349156
-0.5173323150223956,-0.29834885112677495
-0.5193695864373681,-0.24468922631151058
-0.5214068578523405,-0.15957395936316018
-0.5315932149272029,-0.0846355178108082
-0.5472122957753252,-0.010622242203546997
-0.5506077481336127,0.03656122099608202
-0.527518672097258,0.11612549227388783
-0.4840568819111786,0.19476459760660286
-0.44466963455504416,0.2752540348294994
-0.42497601087697695,0.31873683424876537
-0.41411056333045715,0.39737593958148043
-0.38830512540747253,0.5037700232669184
-0.34212697333476316,0.6323680896345347
-0.2871206451305065,0.706381365241796
-0.24094249305779716,0.7655919857276049
-0.21377887419149758,0.8118502829821431
-0.20698796947492268,0.8710609034679522
-0.20902524088989513,0.8877138904795859
-0.2130997837198401,0.8978907158755843
-0.22260705032304495,0.8978907158755843
-0.2443379454160846,0.922870196393035
-0.25927793579254943,0.9219450304479442
-0.2389052216428247,0.9154688688323088
-0.18865252674017044,0.8886390564246767
-0.16013072693055586,0.8877138904795859
-0.18661525532519796,0.8738364013032245
-0.24162158352945468,0.8664350737424983
-0.2681061119240968,0.8359045975545031
-0.25588248343426195,0.8294284359388677
-0.24501703588774212,0.8174012786526877
-0.27693428805564413,0.812775448927234
-0.3366942495615033,0.7748436451785126
-0.37879785880426764,0.7526396624963342
-0.37472331597432273,0.7248846841436113
-0.3475596971080231,0.7119323609123406
-0.33533606861818827,0.6684495614930746
-0.35502969229625553,0.6406945831403517
-0.38490967304918505,0.6092389410072656
-0.40120784436896484,0.5981369496661765
-0.39917057295399233,0.5583548140272735
-0.3957751205957049,0.5305998356745506
-0.39781239201067736,0.4954435297611015
-0.4018869348406223,0.4834163724749216
-0.40799874908553974,0.4473349006163817
-0.42497601087697695,0.41957992226365876
-0.4514605392716191,0.38257328446002814
-0.4650423487047689,0.3686957952836667
-0.4514605392716191,0.3353898212603991
-0.41139420144382716,0.3104103407429485
-0.37200695408769274,0.2697030391589548
-0.3332987972032158,0.25305005214732107
-0.30273972597862875,0.22344474190441657
-0.2674270214524393,0.20124075922223822
-0.23347249786956478,0.158683125748063
-0.21649523607812754,0.13832947495606618
-0.20970433136155264,0.11149966254843399
-0.19748070287171782,0.0929963436466187
-0.18186162202359554,0.047663212337171204
-0.1832198029669105,0.02360889776481131
-0.18254071249525303,-0.0032209146428208765
-0.1642052697605008,-0.012472574093728527
-0.19612252192840282,-0.04485338217190531
-0.3394106114481332,-0.05688053945808525
-0.43312509653686687,-0.07260836052462825
-0.17982435060862306,-0.07630902430499131
0.500624301992182,-0.11424082805371269
1.4038146292966436,-0.1429209723515264
2.398003079803209,-0.17437661448461242
3.488622377285138,-0.18085277610024778
4.389775433174627,-0.20953292039806148
4.409469056852695,-0.2280362392998768
3.164017131832858,-0.25116538792714593
1.1966920354411092,-0.24468922631151058
-0.4304087346502369,-0.25301571981732746
-1.108141025364412,-0.25209055387223667
-1.0354783448970606,-0.26411771115841665
-0.7489021658575997,-0.25209055387223667
-0.5730177336983098,-0.25394088576241824
-0.523444129267313,-0.24931505603696438
-0.5017132341742734,-0.2650428771035074
-0.46164689634648143,-0.25394088576241824
-0.4168269252170871,-0.24746472414678286
-0.38490967304918505,-0.22896140524496755
-0.3631787779561454,-0.2335872349704214
-0.34416424474973567,-0.21323358417842456
-0.3332987972032158,-0.1854786058257016
-0.3265078924866409,-0.132744146955528
-0.31835880682675105,-0.10406400265771427
-0.3102097211668612,-0.06243153512862984
-0.31835880682675105,-0.030050727050453065
-0.323791530600011,0.01620757020408519
-0.31156790211017615,0.031935391270628194
-0.27014338333906923,0.05876520367826039
-0.23211431692624981,0.0846698501408018
-0.20902524088989513,0.13925464090115694
-0.20223433617332023,0.17811161059496908
-0.20087615523000527,0.2225195759593258
-0.18593616485354048,0.24749905647677647
-0.1451907365540911,0.2900566899509517
-0.07863987033165705,0.31688650235858384
-0.0052980993926481324,0.35204280827203294
0.04835004786829358,0.36499513150330365
0.06872276201801827,0.3918249439109358
0.06464821918807334,0.4047772671422065
0.053103681169896014,0.43068191360474795
0.03884278126508872,0.43345741144002026
0.019149157587021508,0.4454845687262002
-0.005977189864305623,0.44085873900074635
-0.018879908825797934,0.45473622817710785
0.002171895795584258,0.4482600665614725
0.05717822399984095,0.44455940278110945
0.12372909022227498,0.418654756318568
0.17873541842653168,0.4149540925382049
0.21948084672598106,0.4010766033618435
0.2643008178553754,0.3890494460756635
0.3240607793612345,0.3474169785465791
0.39129073605532605,0.3261381618094915
0.4490134261462127,0.3020838472371316
0.4911170353889771,0.28543086022549785
0.5277879208584816,0.23639706513568728
0.567175168214616,0.2095672527280551
0.6004506013258329,0.18736327004587675
0.6052042346274354,0.17441094681460603
0.567175168214616,0.12537715172479547
0.4917961258606346,0.09669700742698176
0.4014770931301884,0.07449302474480339
0.31183715087139974,0.06339103340371421
0.22695084191421347,0.009731408588449834
0.14478089484365717,-0.03560172272099765
0.0741554857912782,-0.07445869241480979
0.023223700416966447,-0.09666267509698816
-0.019558999297455422,-0.14939713396716175
-0.07456532750171212,-0.1854786058257016
-0.13568346995088623,-0.21138325228824303
-0.16895890306210323,-0.2197097457940599
-0.16760072211878826,-0.26596804304859817
-0.17235435542039068,-0.3103760084129549
-0.22056977890807247,-0.35478397377731163
-0.29187427843210895,-0.3788382883496715
-0.3305824353165859,-0.4278720834394821
-0.31224699258183364,-0.4639535552980219
-0.2715015642823842,-0.4972595293212894
-0.25588248343426195,-0.5074363547172879
-0.27693428805564413,-0.5453681584660092
-0.3074933592802312,-0.5832999622147306
-0.31835880682675105,-0.6341840891947227
-0.3061351783369162,-0.6628642334925364
-0.3007024545636563,-0.7072721988568931
-0.3265078924866409,-0.7396530069350699
-0.37879785880426764,-0.7812854744641543
-0.423617829933662,-0.7970132955306973
-0.4358414584234968,-0.8256934398285111
-0.4107151109721697,-0.8562239160165063
-0.3801560397475826,-0.9108087067768614
-0.3624996874844879,-0.9468901786354013
-0.3692905922010628,-0.9857471483292134
-0.3706487731443778,-1.0135021266819364
-0.3733651350310077,-1.0606855898815655
-0.3957751205957049,-1.085665070399016
-0.44127418219675674,-1.109719384971376
-0.4847359723828361,-1.1263723719830097
-0.5071459579475333,-1.1717055032924573
-0.5023923246459309,-1.200385647590271
-0.4453487250267017,-1.2244399621626307
-0.32854516390161337,-1.2336916216135385
-0.2246443217380174,-1.266997595636806
-0.23550976928453726,-1.2818002507582582
-0.3428060638064207,-1.2929022420993475
-0.37811876833261016,-1.2975280718248012
-0.1587725459872409,-1.3373102074637042
0.3668434790756564,-1.365990351761518
1.1654538737448648,-1.389119500388787
2.228909552360494,-1.4029969895651484
3.5055996390765753,-1.448330120874596
4.617270741179887,-1.479785763007682
4.851556953901721,-1.5019897456898603
3.7534676612315594,-1.5140169029760402
1.8010825552162752,-1.5593500342854878
0.15157179956023206,-1.5917308423636645
-0.4439905440833867,-1.6148599909909336
-0.2660688405091243,-1.625036816386932
-0.03653626108889267,-1.673145445531652
-0.052155341937014946,-1.7194037427861901
-0.14111619372414613,-1.7610362103152746
-0.18118253155193806,-1.7850905248876345
-0.24501703588774212,-1.834124319977445
-0.35231333040962554,-1.8711309577810755
-0.4100360205005122,-1.90073626802398
-0.3930587587090749,-1.91276342531016
-0.3828724016342126,-1.9488448971686998
-0.41886419663205954,-1.9812257052468767
-0.45417690115824905,-2.0126813473799627
-0.44806508691333163,-2.0265588365563243
-0.42158055851868953,-2.0607899765246827
-0.39781239201067736,-2.0913204527126776
-0.39237966823741743,-2.125551592681036
-0.38423058257752757,-2.141279413747579
-0.3794769492759251,-2.172735055880665
-0.37200695408769274,-2.2014152001784786
-0.37472331597432273,-2.2384218379821093
-0.37132786361603526,-2.2559999909388337
-0.3366942495615033,-2.2846801352366475
-0.2681061119240968,-2.3161357773697335
-0.19068979815514292,-2.369795402184998
-0.12753438429099634,-2.4058768740435377
-0.08678895599154694,-2.4456590096824407
-0.05351352288032993,-2.4780398177606173
-0.0012235565627031924,-2.534474940411154
0.09249092852603043,-2.579808071720602
0.21948084672598106,-2.622365705194777
