ECG,PPG
-0.165597808481131,-0.7369520048566082
-0.11570665419005842,0.052039105816799464
-0.11833250441590434,0.12816982702212826
-0.15772025780359322,-0.11268009097291196
-0.1866046102878984,-0.21718680826386333
-0.1866046102878984,-0.14382447692054648
-0.1866046102878984,-0.09468555686983424
-0.21286311254635765,-0.16597159581664211
-0.24699916548235468,-0.25179168153901277
-0.26800596728912207,-0.2628652409870606
-0.27325766774081395,-0.238641829694456
-0.27588351796665983,-0.2711704105730965
-0.27850936819250577,-0.34314854698540737
-0.27325766774081395,-0.38536649238108966
-0.26538011706327613,-0.3860585898465927
-0.26800596728912207,-0.40889780620819133
-0.27850936819250577,-0.46495770091393346
-0.28901276909588947,-0.5147887184301486
-0.2916386193217354,-0.5334753499987294
-0.29426446954758134,-0.5521619815673101
-0.29951616999927316,-0.5916115371009805
-0.3021420202251191,-0.6379820672896808
-0.2968903197734272,-0.6622054785822854
-0.2863869188700435,-0.6802000126853631
-0.2811352184183517,-0.7023471315814587
-0.28376106864419764,-0.7397203947186202
-0.28901276909588947,-0.7639438060112248
-0.2863869188700435,-0.7784778527867875
-0.2811352184183517,-0.7943960944933562
-0.2811352184183517,-0.8290009677685057
-0.2916386193217354,-0.8553006714576193
-0.3021420202251191,-0.8698347182331821
-0.3021420202251191,-0.8850608624742479
-0.2968903197734272,-0.9245104180079182
-0.28376106864419764,-0.9584231938175647
-0.27588351796665983,-0.9771098253861454
-0.270631817514968,-0.9951043594892232
-0.2627542668374302,-1.0393985972814144
-0.2601284166115843,-1.0816165426770967
-0.270631817514968,-1.1079162463662104
-0.2863869188700435,-1.127987072865797
-0.29951616999927316,-1.1757417979855034
-0.2968903197734272,-1.2283412053637306
-0.2863869188700435,-1.267098663431898
-0.27850936819250577,-1.2878615873969876
-0.27588351796665983,-1.325926947999652
-0.27588351796665983,-1.3729895756538553
-0.26538011706327613,-1.4158996185150405
-0.24174746503066283,-1.4338941526181184
-0.2181148129980495,-1.452580784186699
-0.20235971164297395,-1.4816488777378245
-0.1866046102878984,-1.516945848478477
-0.16297195825528507,-1.5245589205990098
-0.12621005509344213,-1.51763794594398
-0.08419645147990733,-1.512101166219956
-0.05793794922144808,-1.525251018064513
-0.05268624876975622,-1.516945848478477
-0.06318964967313992,-1.4781883904103095
-0.06318964967313992,-1.4165917159805435
-0.036931147414680676,-1.3722974781883521
0.010334156650545974,-1.32315855813764
0.07072871184500225,-1.2525646166563351
0.1284974168136126,-1.1480578993653838
0.16788517020130148,-1.0532405465914743
0.1705110204271474,-0.9708809481966185
0.1390008177169963,-0.8864450574052538
0.1074906150068452,-0.7577149288216979
0.09173551365176964,-0.617219143324591
0.08910966342592372,-0.4961020868615679
0.04709605981238892,-0.4012847340876584
-0.0395569976405266,-0.2711704105730965
-0.1550944075777473,-0.11129589604190598
-0.25487671615989244,0.0305840843862068
-0.31001957090265686,0.12263304729810436
-0.3021420202251191,0.23682912910609757
-0.26800596728912207,0.3904747664477612
-0.2601284166115843,0.5365073316688919
-0.27850936819250577,0.6195590275292506
-0.2811352184183517,0.7129921853721541
-0.2811352184183517,0.8707904075068357
-0.3441556238386539,1.0576567231926428
-0.480699835582642,1.1773895847246598
-0.6014889459715546,1.2389862591544258
-0.5883596948423249,1.287433081739635
-0.2496250157082006,1.3428008789798742
0.7587014710166345,1.35802702322094
2.628306831818933,1.3393403916523594
4.862905374013815,1.3171932727562636
6.3176263991324575,1.3241142474112935
6.128565182871551,1.3213458575492816
4.524170694879691,1.294354056394665
2.5862932282053985,1.2459072338094557
1.233980361894747,1.220299627585845
0.5985246072400332,1.2036892884137733
0.2965518312677518,1.1739290973971448
0.05234776026408077,1.107487740708858
-0.11833250441590434,1.0465831637445948
-0.1445910066743636,1.0009047310213977
-0.12621005509344213,0.9607630780222243
-0.18923046051374431,0.8894770390754163
-0.3073937206768109,0.8209593899906205
-0.35991072519372946,0.7669757876813873
-0.33627807316111613,0.7296025245442258
-0.32052297180604056,0.6666216551834538
-0.3546590247420376,0.5981040060986579
-0.3835433772263428,0.5365073316688919
-0.3677882758712672,0.4963656786697185
-0.34152977361280795,0.44168997889498235
-0.34152977361280795,0.3828616943272283
-0.3651624256454213,0.3205729224319593
-0.3651624256454213,0.2797391719672829
-0.34678147406449983,0.23682912910609757
-0.3178971215801946,0.1966874761069242
-0.30476787045096504,0.14893275098721795
-0.3073937206768109,0.11848046250508643
-0.3073937206768109,0.09079656388496686
-0.2968903197734272,0.07210993231638615
-0.28901276909588947,0.043041838765260604
-0.28376106864419764,0.025739402127685874
-0.270631817514968,0.011205355352123103
-0.24699916548235468,0.007744868024608157
-0.23124406412727913,-0.006789178750954615
-0.23124406412727913,-0.015786445802493474
-0.23649576457897098,-0.022707420457523365
-0.22336651344974134,-0.013018055940481518
-0.19185631073959025,-0.007481276216457605
-0.165597808481131,0.004976478162596201
-0.15772025780359322,0.011897452817626091
-0.15772025780359322,0.025047304662182884
-0.14984270712605544,0.02989198692070381
-0.14196515644851768,0.040273448903248646
-0.13933930622267174,0.043041838765260604
-0.1340876057709799,0.049270715954787506
-0.1130808039642125,0.04581022862727256
-0.0920740021574451,0.052039105816799464
-0.08419645147990733,0.05342330074780544
-0.0815706012540614,0.052039105816799464
-0.0710672003506777,0.03542876664472772
-0.06581549989898584,0.027815694524194842
-0.06581549989898584,0.02020262240366196
-0.060563799447294,0.01328164774863207
-0.04480869809221845,-0.01094176354397255
-0.03167944696298883,-0.026860005250541302
-0.036931147414680676,-0.039317759629595106
-0.05793794922144808,-0.049699221612139945
-0.06844135012483177,-0.07945941262876847
-0.06318964967313992,-0.10506701885237908
-0.05268624876975622,-0.12513784535196576
-0.04743454831806437,-0.13897979466202554
-0.042182847866372525,-0.1680478882131511
-0.036931147414680676,-0.19434759190226467
-0.021176046059605127,-0.2178789057293663
0.0024566059730081993,-0.2317208550394261
0.026089258005621525,-0.2566363637975337
0.0339668086831593,-0.2773992877626234
0.020837557553929673,-0.2940096269346951
0.0024566059730081993,-0.30369899145173695
-0.01329849538206735,-0.3265382078133356
-0.026427746511296975,-0.3507616191059402
-0.04480869809221845,-0.37567712786404783
-0.06844135012483177,-0.3909032721051136
-0.0920740021574451,-0.4158187808632212
-0.1130808039642125,-0.44419477694884374
-0.1340876057709799,-0.47741545529298723
-0.15772025780359322,-0.4988704767235799
-0.1761012093845147,-0.5251701804126935
-0.1866046102878984,-0.557006663825831
-0.1866046102878984,-0.5992246092215133
-0.18397876006205247,-0.6289848002381419
-0.1866046102878984,-0.6566686988582614
-0.199733861417128,-0.6919656695989139
-0.21548896277220358,-0.744565076977141
-0.2286182139014332,-0.7847067299763144
-0.23386991435312504,-0.8144669209929429
-0.23124406412727913,-0.8456113069405775
-0.2286182139014332,-0.8954423244567927
-0.23386991435312504,-0.9300471977319421
-0.25487671615989244,-0.9515022191625349
-0.27588351796665983,-0.9861070924376842
-0.28376106864419764,-1.060853618712007
-0.27588351796665983,-1.134215950055324
-0.25487671615989244,-1.1833548701060361
-0.23386991435312504,-1.2207281332431976
-0.23386991435312504,-1.2754038330179338
-0.25487671615989244,-1.316929680948113
-0.2811352184183517,-1.3342321175856877
-0.2916386193217354,-1.3480740668957476
-0.28376106864419764,-1.392368304687939
-0.270631817514968,-1.438046737411136
-0.2627542668374302,-1.463654343634747
-0.26538011706327613,-1.4816488777378245
-0.26538011706327613,-1.5300957003230338
-0.2627542668374302,-1.5840793026322668
-0.26800596728912207,-1.6207604683039254
-0.27850936819250577,-1.6415233922690151
-0.28901276909588947,-1.6837413376646972
-0.2916386193217354,-1.7391091349049366
-0.28901276909588947,-1.7861717625591398
-0.2863869188700435,-1.8076267839897324
-0.28376106864419764,-1.83254229274784
-0.27588351796665983,-1.8692234584194984
-0.26800596728912207,-1.9093651114186718
-0.26538011706327613,-1.9218228657977257
-0.2601284166115843,-1.9197465734012167
-0.24437331525650874,-1.9218228657977257
-0.21548896277220358,-1.9384332049697974
-0.1866046102878984,-1.9335885227112763
-0.14984270712605544,-1.902444136763642
-0.1025774030608288,-1.8574578015059475
-0.05531209899560215,-1.83254229274784
-0.0395569976405266,-1.8007058093347026
-0.06581549989898584,-1.7398012323704395
-0.08682230170575325,-1.6415233922690151
-0.060563799447294,-1.5508586242881235
0.0024566059730081993,-1.4705753182897767
0.054973610489926696,-1.3833710376364001
0.0864838132000778,-1.24910412932882
0.11536816568438298,-1.1030715641076894
0.14950421862038,-0.9805703127136604
0.16788517020130148,-0.8822924726122359
0.14950421862038,-0.7369520048566082
0.1074906150068452,-0.557006663825831
0.07072871184500225,-0.39990053915665247
0.041844359360697074,-0.29747011426221004
0.0129600068763919,-0.16458740088563614
-0.060563799447294,0.018818427472655982
-0.18397876006205247,0.1897665014518943
-0.29951616999927316,0.28666014662231276
-0.32840052248357837,0.39324315630977313
-0.28376106864419764,0.5579623530994845
-0.24699916548235468,0.7254499397512079
-0.2627542668374302,0.8147305128010935
-0.28376106864419764,0.8929375264029313
-0.28376106864419764,1.0168229727279663
-0.31001957090265686,1.1545503683630611
-0.4045501790331102,1.2230680174478572
-0.5463460912287901,1.2715148400330665
-0.6645093513918567,1.353874438427922
-0.5962372455198627,1.4583811557188735
0.015585857102237824,1.5109805630971007
1.5201980365119527,1.5407407541137292
3.746919028029297,1.5891875766989383
5.776701252608198,1.6632420055077581
6.493558364264135,1.7026915610414286
5.514116230023605,1.7213781926100094
3.547354410865007,1.740756921644093
1.7486470061605484,1.7836669645052783
0.7534497705649428,1.805814083401374
0.3910824393982051,1.812735058056404
0.19939537291145257,1.808582473263386
0.0024566059730081993,1.8238086175044517
-0.10782910351252065,1.8321137870904876
-0.10782910351252065,1.8328058845559905
-0.11833250441590434,1.809966668194392
-0.2076114120946658,1.794740523953326
-0.3021420202251191,1.7774380873157514
-0.32577467225773243,1.7635961380056917
-0.29951616999927316,1.7262228748685302
-0.28901276909588947,1.688849611731369
-0.31001957090265686,1.6480158612666924
-0.34152977361280795,1.6203319626465729
-0.3572848749678835,1.5753456273888786
-0.3546590247420376,1.5255146098726633
-0.34678147406449983,1.4673784227704123
-0.32840052248357837,1.4279288672367418
-0.3178971215801946,1.3787899471860297
-0.3126454211285028,1.3199616626182755
-0.32577467225773243,1.2417546490164377
-0.32840052248357837,1.1850026568451928
-0.31001957090265686,1.1337874443979714
-0.2811352184183517,1.0811880370197444
-0.26538011706327613,1.0029810234179066
-0.26538011706327613,0.9427685439191466
-0.2601284166115843,0.8984743061269552
-0.2391216148048169,0.8597168480587878
-0.22336651344974134,0.7932754913705009
-0.22336651344974134,0.7406760839922737
-0.22599236367558728,0.7053791132516213
-0.21023726232051174,0.6776952146315016
-0.17347535915866877,0.6154064427362327
-0.14196515644851768,0.5572702556339816
-0.13146175554513398,0.5171286026348082
-0.13671345599682583,0.49982616599723345
-0.14196515644851768,0.467297585118593
-0.13671345599682583,0.4458425636880003
-0.12358420486759619,0.43546110170545543
-0.11045495373836657,0.4396136864984734
-0.1025774030608288,0.42369544479190463
-0.09469985238329102,0.4133139828093598
-0.08419645147990733,0.4091613980163419
-0.07369305057652363,0.4126218853438568
-0.060563799447294,0.39185896137876713
-0.042182847866372525,0.3745565247411924
-0.03430529718883475,0.3607145754311326
-0.042182847866372525,0.3524094058450968
-0.060563799447294,0.3226492148284682
-0.06318964967313992,0.29634951113935465
-0.04480869809221845,0.275586587174265
-0.03430529718883475,0.2638209302607141
-0.04743454831806437,0.23336864177858263
-0.05531209899560215,0.20706893808946902
-0.03430529718883475,0.1842297217278704
-0.00016924425283772564,0.1710798698833136
0.0129600068763919,0.14339597126319403
0.007708306424700049,0.11778836503958344
0.0024566059730081993,0.09287285628147582
0.015585857102237824,0.07903090697141604
0.041844359360697074,0.05273120328230245
0.06285116116746448,0.027815694524194842
0.07335456207084817,0.0022080883005842437
0.07072871184500225,-0.013018055940481518
0.054973610489926696,-0.03793356469858913
0.026089258005621525,-0.0656174633187087
-0.010672645156221426,-0.09953023912835517
-0.04743454831806437,-0.12098526055894783
-0.0710672003506777,-0.1479770617135644
-0.0815706012540614,-0.17635305779918695
-0.08682230170575325,-0.21303422347084539
-0.10782910351252065,-0.23656553729794702
-0.13933930622267174,-0.26009685112504866
-0.165597808481131,-0.2912412370726832
-0.18135290983620656,-0.34245644951990434
-0.20235971164297395,-0.3825981025190777
-0.23386991435312504,-0.41305039100120927
-0.2575025663857384,-0.44350267948334077
-0.2601284166115843,-0.492641599534053
-0.2522508659340465,-0.5293227652057114
-0.25487671615989244,-0.552854079032813
-0.27850936819250577,-0.5798458801874297
-0.29951616999927316,-0.6338294824966628
-0.30476787045096504,-0.6815842076163691
-0.2968903197734272,-0.7113443986329976
-0.2863869188700435,-0.7348757124600992
-0.28376106864419764,-0.7812462426487995
-0.28376106864419764,-0.817927408320458
-0.2863869188700435,-0.8366140398890386
-0.28901276909588947,-0.8525322815956073
-0.2968903197734272,-0.8947502269912897
-0.3021420202251191,-0.9314313926629482
-0.30476787045096504,-0.9501180242315288
-0.29426446954758134,-0.9653441684725946
-0.28376106864419764,-1.0096384062647858
-0.28901276909588947,-1.0525484491259713
-0.30476787045096504,-1.0788481528150848
-0.31527127135434874,-1.0982268818491685
-0.3073937206768109,-1.1439053145723659
-0.29426446954758134,-1.1888916498300601
-0.29426446954758134,-1.2158834509846768
-0.30476787045096504,-1.2352621800187604
-0.31001957090265686,-1.2816327102074607
-0.3021420202251191,-1.3383847023787057
-0.28901276909588947,-1.384755232567406
-0.27850936819250577,-1.4131312286530286
-0.27850936819250577,-1.456041271514214
-0.2811352184183517,-1.507948581426938
-0.27850936819250577,-1.5577795989431533
-0.2627542668374302,-1.5861555950287758
-0.24699916548235468,-1.6145315911143985
-0.24174746503066283,-1.6498285618550508
-0.24437331525650874,-1.6948148971127452
-0.23124406412727913,-1.7211146008018587
-0.1866046102878984,-1.7321881602499065
-0.13146175554513398,-1.7321881602499065
-0.10520325328667472,-1.7432617196979545
-0.1130808039642125,-1.7460301095599664
-0.1340876057709799,-1.7314960627844036
-0.12883590531928804,-1.6837413376646972
-0.08944815193159918,-1.6373708074759972
-0.0290535967371429,-1.5999975443388357
0.026089258005621525,-1.5605479888051652
0.06285116116746448,-1.4698832208242738
0.08123211274838595,-1.3612239187403044
0.08910966342592372,-1.2754038330179338
0.09698721410346149,-1.2124229636571617
0.09961306432930743,-1.0906138097286355
0.08385796297423187,-0.9265867104044272
0.04972191003823485,-0.7999328742173802
-0.005420944704529576,-0.7272626403395663
-0.04743454831806437,-0.5611592486188489
-0.1025774030608288,-0.25248377900451574
-0.20235971164297395,0.08318349176443397
-0.3178971215801946,0.3108835579149174
-0.3651624256454213,0.49359728880770654
-0.3231488220318865,0.6991502360620944
-0.270631817514968,0.8832481618858894
-0.270631817514968,0.9614551754877272
-0.2863869188700435,1.0161308752624634
-0.28901276909588947,1.1303269570704566
-0.3231488220318865,1.2728990349640723
-0.43343453151741534,1.3434929764453771
-0.5909855450681708,1.3815583370480415
-0.7275297568121589,1.4500759861328376
-0.693393703876162,1.5469696313032562
-0.15772025780359322,1.5947243564229623
1.2549871637015144,1.614795182922549
3.447572102282862,1.6507842511287045
5.5587556838629855,1.7172256078169914
6.43841550952137,1.7559830658851587
5.595517587024829,1.7725934050572305
3.6550142701246897,1.7836669645052783
1.7906606097740831,1.816195545383919
0.7298171185323294,1.8348821769524994
0.34119128510713254,1.8411110541420264
0.15738176929791778,1.8307295921594815
-0.026427746511296975,1.8321137870904876
-0.13671345599682583,1.8265770073664638
-0.14984270712605544,1.8203481301769369
-0.17347535915866877,1.794740523953326
-0.2522508659340465,1.7753617949192424
-0.32577467225773243,1.7539067734886498
-0.34678147406449983,1.742141116575099
-0.3441556238386539,1.7089204382309555
-0.3441556238386539,1.6687787852317821
-0.34678147406449983,1.618947767715567
-0.34678147406449983,1.5850349919059203
-0.34940732429034577,1.5407407541137292
-0.34152977361280795,1.4874492492699989
-0.3336522229352702,1.416855307788694
-0.32577467225773243,1.3663321928069758
-0.33890392338696207,1.3192695651527726
-0.33627807316111613,1.2680543527055514
-0.32052297180604056,1.1912315340347197
-0.30476787045096504,1.1330953469324685
-0.3073937206768109,1.0888011091402772
-0.3126454211285028,1.047275261210098
-0.3021420202251191,0.97598922226329
-0.27850936819250577,0.9178530351610389
-0.26800596728912207,0.8770192846963626
-0.27325766774081395,0.846566996214231
-0.2863869188700435,0.786354516715471
-0.2863869188700435,0.7351393042682498
-0.27325766774081395,0.7019186259241063
-0.2496250157082006,0.6839240918210285
-0.2181148129980495,0.6403219514943402
-0.199733861417128,0.6001802984951669
-0.19185631073959025,0.5738805948060532
-0.19185631073959025,0.5655754252200175
-0.1866046102878984,0.5392757215309039
-0.17872705961036062,0.5205890899623231
-0.1761012093845147,0.5095155305142753
-0.17347535915866877,0.5108997254452813
-0.16297195825528507,0.4922130938767006
-0.14984270712605544,0.4769869496356348
-0.1445910066743636,0.465913390187587
-0.14721685690020953,0.464529195256581
-0.1550944075777473,0.4458425636880003
-0.16034610802943916,0.4326927118434435
-0.16034610802943916,0.42161915239539566
-0.14984270712605544,0.4195428599988867
-0.12621005509344213,0.398779936033797
-0.09995155283498287,0.38147749939622233
-0.08682230170575325,0.3641750627586476
-0.09469985238329102,0.3558698931726117
-0.1130808039642125,0.33303067681101306
-0.12621005509344213,0.31434404524243237
-0.11833250441590434,0.29634951113935465
-0.0920740021574451,0.2873522440878158
-0.05793794922144808,0.26451302772621715
-0.015924345607913275,0.2409817138991155
0.026089258005621525,0.21398991274449894
0.06022531094161855,0.19876376850343316
0.07860626252254002,0.17523245467633153
0.0759804122966941,0.1523932383147329
0.06810286161915632,0.12332514476360734
0.054973610489926696,0.10602270812603262
0.026089258005621525,0.08456768669543996
-0.02380189628545105,0.06380476273035028
-0.0815706012540614,0.032660376782715765
-0.12095835464175027,0.01328164774863207
-0.12883590531928804,-0.005404983819948637
-0.12621005509344213,-0.025475810319535323
-0.14721685690020953,-0.05800439119817581
-0.1866046102878984,-0.0780752176977625
-0.22599236367558728,-0.09468555686983424
-0.24437331525650874,-0.11821687069693587
-0.2575025663857384,-0.16320320595463017
-0.27850936819250577,-0.19503968936776767
-0.3021420202251191,-0.2178789057293663
-0.3178971215801946,-0.25525216886652774
-0.32577467225773243,-0.3341512799338685
-0.3441556238386539,-0.41166619607020327
-0.3782916767746509,-0.4677260907759454
-0.3966726283555724,-0.5092519387061247
-0.3861692274521887,-0.5660039308773699
-0.35991072519372946,-0.6075297788075492
-0.34940732429034577,-0.62621641037613
-0.35991072519372946,-0.6386741647551837
-0.35991072519372946,-0.6802000126853631
-0.34152977361280795,-0.7189574707535304
-0.3126454211285028,-0.7397203947186202
-0.3073937206768109,-0.7528702465631769
-0.3336522229352702,-0.7937039970278533
-0.37041412609711316,-0.8317693576305177
-0.3940467781297265,-0.8532243790611104
-0.3887950776780346,-0.8670663283711701
-0.38091752700049686,-0.9058237864393376
-0.3966726283555724,-0.9438891470420019
-0.4308086812915694,-0.9674204608691036
-0.45444133332418274,-0.9819545076446663
-0.4386862319691072,-1.0200198682473307
-0.3992984785814183,-1.062237813643013
-0.37303997632295904,-1.0947663945216535
-0.37041412609711316,-1.1141451235557374
-0.37303997632295904,-1.1535946790894076
-0.36253657541957535,-1.2027335991401198
-0.3336522229352702,-1.2477199343978143
-0.3073937206768109,-1.2747117355524307
-0.31527127135434874,-1.3100087062930832
-0.3546590247420376,-1.3549950415507774
-0.3992984785814183,-1.4082865463945076
-0.4071760292589561,-1.44358351713516
-0.3651624256454213,-1.4691911233587707
-0.30476787045096504,-1.4871856574618485
-0.2601284166115843,-1.513485361150962
-0.24699916548235468,-1.5287115053920277
-0.2496250157082006,-1.5314798952540398
-0.2601284166115843,-1.511409068754453
-0.27325766774081395,-1.4975671194443934
-0.2811352184183517,-1.4851093650653395
-0.270631817514968,-1.4671148309622617
-0.23386991435312504,-1.4096707413255136
-0.18923046051374431,-1.3418451897062207
-0.14721685690020953,-1.2899378797934966
-0.11570665419005842,-1.2525646166563351
-0.0815706012540614,-1.1612077512099406
-0.036931147414680676,-1.0317855251608816
0.005082456198854124,-0.9217420281459063
0.018211707328083748,-0.8566848663886253
-0.01329849538206735,-0.745257174442644
-0.06844135012483177,-0.5729249055323997
-0.09469985238329102,-0.41374248846671224
-0.10782910351252065,-0.3279224027443416
-0.13933930622267174,-0.21718680826386333
-0.23124406412727913,-0.03516517483657717
-0.35203317451619165,0.14824065352171495
-0.4255569808398776,0.2465184936231394
-0.4071760292589561,0.3441042362590609
-0.34940732429034577,0.5067471406522633
-0.33627807316111613,0.6839240918210285
-0.38091752700049686,0.780125639525944
-0.41767943016233977,0.8569484581967759
-0.42293113061403165,0.980833904521811
-0.4386862319691072,1.1296348596049537
-0.5200875889703309,1.2126865554653123
-0.6776386025210863,1.2680543527055514
-0.8509447174269175,1.351798146031413
-0.8483188672010715,1.4653021303739033
-0.3231488220318865,1.5345118769242023
1.0790551985698373,1.5732693349923697
3.305776190087182,1.616871475319058
5.582388335895598,1.6840049294728479
6.6852454307508875,1.7262228748685302
5.8843611118678805,1.74698579883362
3.681272772383149,1.7566751633506619
1.444048379962421,1.7822827695742725
0.19676952268560666,1.794740523953326
-0.11045495373836657,1.7995852062118471
-0.11833250441590434,1.7898958416948052
-0.1866046102878984,1.7919721340913142
-0.2601284166115843,1.7898958416948052
-0.2601284166115843,1.7905879391603083
-0.2627542668374302,1.7725934050572305
-0.32840052248357837,1.7518304810921408
-0.3992984785814183,1.7220702900755123
-0.4308086812915694,1.7047678534379376
-0.4360603817432613,1.6722392725592972
-0.4413120821949531,1.6327897170256267
-0.4386862319691072,1.5774219197853876
-0.4413120821949531,1.5407407541137292
-0.4570671835500287,1.5019832960455617
-0.4701964346792583,1.4563048633223645
-0.4596930337758746,1.3884793117030716
-0.409801879484802,1.3414166840488684
-0.35991072519372946,1.301967128515198
-0.3336522229352702,1.2549045008609947
-0.34940732429034577,1.176697487259157
-0.3861692274521887,1.1178692026914028
-0.409801879484802,1.0770354522267265
-0.3992984785814183,1.0272044347105111
-0.3651624256454213,0.9199293275575479
-0.33102637270942425,0.8098858305425726
-0.32052297180604056,0.7282183296132199
-0.34152977361280795,0.6846161892865316
-0.37041412609711316,0.6334009768393104
-0.37041412609711316,0.597411908633155
-0.33627807316111613,0.5808015694610832
-0.3021420202251191,0.5856462517196042
-0.2968903197734272,0.5697280100130353
-0.31001957090265686,0.5545018657719696
-0.31001957090265686,0.5455045987204308
-0.2863869188700435,0.5531176708409636
-0.2575025663857384,0.5434283063239218
-0.24699916548235468,0.5351231367378859
-0.2575025663857384,0.5254337722208441
-0.26800596728912207,0.528894259548359
-0.2601284166115843,0.5219732848933291
-0.23649576457897098,0.5226653823588321
-0.21023726232051174,0.5219732848933291
-0.19185631073959025,0.5275100646173531
-0.17347535915866877,0.5157444077038023
-0.16297195825528507,0.5067471406522633
-0.165597808481131,0.49498148373871254
-0.18135290983620656,0.4901368014801916
-0.199733861417128,0.47352646230811984
-0.199733861417128,0.46176080539456904
-0.17084950893282286,0.44861095355001224
-0.11045495373836657,0.4444583687569943
-0.05268624876975622,0.4278480295849226
-0.036931147414680676,0.4133139828093598
-0.05531209899560215,0.3925510588442701
-0.060563799447294,0.38147749939622233
-0.026427746511296975,0.3627908678276416
0.015585857102237824,0.3496410159830848
0.020837557553929673,0.33303067681101306
-0.00016924425283772564,0.32749389708698917
-0.010672645156221426,0.31503614270793534
0.005082456198854124,0.30257838832888156
0.020837557553929673,0.2797391719672829
0.005082456198854124,0.2672814175882291
-0.0500603985439103,0.25136317588166035
-0.11045495373836657,0.23682912910609757
-0.1550944075777473,0.21191362034798997
-0.16297195825528507,0.19807167103793016
-0.15246855735190137,0.1842297217278704
-0.15246855735190137,0.16831148002130164
-0.17872705961036062,0.13509080167715817
-0.22599236367558728,0.11294368278106251
-0.270631817514968,0.09633334360899078
-0.29951616999927316,0.07833880950591306
-0.3178971215801946,0.03888925397224267
-0.3441556238386539,0.008436965490111146
-0.37303997632295904,-0.012325958474978528
-0.3940467781297265,-0.031704687509062225
-0.3966726283555724,-0.07323053543924157
-0.3966726283555724,-0.10714331124888804
-0.4071760292589561,-0.12790623521397773
-0.4150535799364939,-0.14451657438604945
-0.4203052803881857,-0.1853503248507258
-0.4203052803881857,-0.22064729559137827
-0.42818283106572347,-0.2434865119529769
-0.43343453151741534,-0.2580205587285397
-0.4386862319691072,-0.29331752946919215
-0.44393793242079904,-0.3244619154168266
-0.4491896328724909,-0.34314854698540737
-0.44393793242079904,-0.35353000896795217
-0.4203052803881857,-0.3839822974500837
-0.3940467781297265,-0.41374248846671224
-0.3887950776780346,-0.43381331496629894
-0.3992984785814183,-0.44557897187984974
-0.4045501790331102,-0.4746470654309753
-0.3992984785814183,-0.5030230615165978
-0.3861692274521887,-0.5251701804126935
-0.37303997632295904,-0.5376279347917473
-0.35991072519372946,-0.5653118334118669
-0.35203317451619165,-0.5929957320319864
-0.35203317451619165,-0.6158349483935851
-0.3546590247420376,-0.6289848002381419
-0.34940732429034577,-0.6573607963237644
-0.33102637270942425,-0.6919656695989139
-0.3126454211285028,-0.7300310302015783
-0.3073937206768109,-0.7542544414941829
-0.31527127135434874,-0.7874751198383264
-0.32577467225773243,-0.8283088703030027
-0.32052297180604056,-0.879524082750224
-0.29951616999927316,-0.9155131509563794
-0.26800596728912207,-0.9473496343695169
-0.2496250157082006,-0.9736493380586305
-0.24437331525650874,-1.0158672834543128
-0.23649576457897098,-1.0511642541949653
-0.21023726232051174,-1.074003470556564
-0.18135290983620656,-1.069850885763546
-0.16822365870697692,-1.0774639578840788
-0.17347535915866877,-1.0989189793146714
-0.18397876006205247,-1.1099925387627194
-0.17347535915866877,-1.0414748896779233
-0.1340876057709799,-0.9203578332149003
-0.060563799447294,-0.8040854590103981
0.026089258005621525,-0.7244942504775543
0.09961306432930743,-0.6082218762730522
0.1390008177169963,-0.4559604338623946
0.1390008177169963,-0.3258461103478326
0.11536816568438298,-0.2594047536595457
0.08123211274838595,-0.1618190110236242
0.04972191003823485,-0.0005603015614277129
0.018211707328083748,0.1579300180387568
-0.03430529718883475,0.23959751896810952
-0.09732570260913695,0.3302622869490011
-0.18923046051374431,0.48667631415267665
-0.28901276909588947,0.658316485597418
-0.36253657541957535,0.7524417409058245
-0.375665826548805,0.8334171443696742
-0.34678147406449983,0.9628393704187332
-0.31527127135434874,1.1164850077603967
-0.31001957090265686,1.2050734833447794
-0.32577467225773243,1.2652859628435396
-0.34678147406449983,1.351798146031413
-0.37041412609711316,1.4653021303739033
-0.4255569808398776,1.5331276819931963
-0.5410943907770983,1.5725772375268667
-0.7012712545536997,1.618947767715567
-0.7721692106515397,1.6902338066623748
-0.4728222849051042,1.737296434316578
0.5538851534006525,1.7642882354711946
2.4287422146546427,1.7802064771777635
4.676470007978755,1.812042960590901
6.230973341679542,1.8314216896249846
6.1679529362592405,1.8411110541420264
4.56355844826738,1.8334979820214936
2.494388470300791,1.8328058845559905
1.018660643375381,1.8265770073664638
0.35432053623636217,1.8224244225734458
0.09173551365176964,1.798893108746344
-0.08419645147990733,1.7753617949192424
-0.1866046102878984,1.7456016039026139
-0.20498556186881986,1.7282991672650392
-0.22599236367558728,1.6964626838519017
-0.29426446954758134,1.6563210308527283
-0.36253657541957535,1.6009532336124892
-0.39142092790388056,1.5649641654063338
-0.4071760292589561,1.5262067073381664
-0.4255569808398776,1.4770677872874542
-0.43343453151741534,1.4030133584786344
-0.42293113061403165,1.3490297561694011
-0.409801879484802,1.3047355183772098
-0.3992984785814183,1.2549045008609947
-0.40192432880726425,1.17046861006963
-0.41242772971064795,1.10333515591584
-0.4255569808398776,1.0555804307961338
-0.409801879484802,1.0126703879349483
-0.38091752700049686,0.9316949844710987
-0.3651624256454213,0.8617931404552968
-0.37041412609711316,0.8168068051976025
-0.3835433772263428,0.7856624192499679
-0.3782916767746509,0.719913160027184
-0.3572848749678835,0.658316485597418
-0.3441556238386539,0.6181748325982446
-0.33890392338696207,0.5987961035641609
-0.33627807316111613,0.5538097683064666
-0.32577467225773243,0.5102076279797783
-0.3126454211285028,0.48113953442865276
-0.30476787045096504,0.47421855977362287
-0.30476787045096504,0.44999514848101824
-0.3021420202251191,0.42854012705042555
-0.28901276909588947,0.4140060802748628
-0.26538011706327613,0.41677447013687474
-0.24174746503066283,0.40500881322332394
-0.22336651344974134,0.3946273512407791
-0.21548896277220358,0.3842458892582343
-0.21286311254635765,0.3870142791202462
-0.21023726232051174,0.3807854019307193
-0.20235971164297395,0.38147749939622233
-0.19185631073959025,0.37940120699971336
-0.18135290983620656,0.38493798672373725
-0.1761012093845147,0.3773249146032044
-0.17347535915866877,0.3738644272756894
-0.16822365870697692,0.3669434526206595
-0.15246855735190137,0.36625135515515655
-0.14196515644851768,0.35448569824160575
-0.1445910066743636,0.3454884311900669
-0.16297195825528507,0.3323385793455101
-0.1761012093845147,0.32749389708698917
-0.16822365870697692,0.3122677528459234
-0.1550944075777473,0.2984258035358636
-0.1550944075777473,0.27766287957077396
-0.16822365870697692,0.2658972226572231
-0.17347535915866877,0.2479026885541454
-0.16297195825528507,0.23198444684757666
-0.1445910066743636,0.20845313302047502
-0.1445910066743636,0.1973795735724272
-0.15246855735190137,0.18146133186585844
-0.15246855735190137,0.16277470029727772
-0.13933930622267174,0.13024611941863723
-0.1340876057709799,0.11155948785005654
-0.15246855735190137,0.0942570512124818
-0.1761012093845147,0.0693415424543742
-0.19448216096543616,0.018818427472655982
-0.20498556186881986,-0.022707420457523365
-0.22599236367558728,-0.05385180640515788
-0.24437331525650874,-0.08084360755977446
-0.2496250157082006,-0.12582994281746876
-0.24437331525650874,-0.15905062116161223
-0.24437331525650874,-0.17842935019569592
-0.2575025663857384,-0.19573178683327067
-0.270631817514968,-0.238641829694456
-0.28376106864419764,-0.27324670296960546
-0.29426446954758134,-0.2926254320036891
-0.3073937206768109,-0.3092357711757609
-0.3231488220318865,-0.3542221064334552
-0.33890392338696207,-0.3964400518291375
-0.35203317451619165,-0.4227397555182511
-0.3546590247420376,-0.4421184845523348
-0.3441556238386539,-0.48848901474103507
-0.3336522229352702,-0.5320911550677234
-0.3336522229352702,-0.5604671511533459
-0.33890392338696207,-0.5798458801874297
-0.33890392338696207,-0.620679630652106
-0.33627807316111613,-0.6594370887202734
-0.33102637270942425,-0.685044694943884
-0.33102637270942425,-0.6995787417194468
-0.32840052248357837,-0.7321073225980873
-0.3231488220318865,-0.7632517085457218
-0.32052297180604056,-0.7853988274418174
-0.32577467225773243,-0.7978565818208713
-0.33102637270942425,-0.8248483829754878
-0.32052297180604056,-0.8525322815956073
-0.29951616999927316,-0.876063595422709
-0.2916386193217354,-0.8892134472672658
-0.3021420202251191,-0.9168973458873854
-0.3126454211285028,-0.9480417318350198
-0.30476787045096504,-0.9784940203171514
-0.2863869188700435,-0.997872749351235
-0.2811352184183517,-1.0269408429023605
-0.28901276909588947,-1.0615457161775101
-0.29426446954758134,-1.1016873691766835
-0.2916386193217354,-1.129371267796803
-0.28901276909588947,-1.1605156537444374
-0.2916386193217354,-1.197196819416096
-0.29426446954758134,-1.2477199343978143
-0.28901276909588947,-1.2892457823279935
-0.27850936819250577,-1.321082265741131
-0.2522508659340465,-1.3439214821027297
-0.2181148129980495,-1.3771421604468732
-0.19185631073959025,-1.4089786438600107
-0.1866046102878984,-1.4311257627561063
-0.19448216096543616,-1.4290494703595973
-0.18923046051374431,-1.4318178602216094
-0.14984270712605544,-1.44358351713516
-0.08944815193159918,-1.45742546644522
-0.05531209899560215,-1.4297415678251004
-0.060563799447294,-1.384063135101903
-0.0815706012540614,-1.3522266516887655
-0.07894475102821548,-1.3425372871717236
-0.036931147414680676,-1.2857852950004787
0.018211707328083748,-1.1881995523645572
0.06285116116746448,-1.1044557590386954
0.09961306432930743,-1.066390398436031
0.1390008177169963,-0.9909517746962052
0.17313687065299332,-0.8566848663886253
0.17576272087883923,-0.7258784454085604
0.13637496749115038,-0.6601291861857764
0.09173551365176964,-0.5763853928599147
0.05759946071577263,-0.427584437776772
0.041844359360697074,-0.2642494359180666
-0.010672645156221426,-0.17012418060966006
-0.11045495373836657,-0.08361199742178642
-0.22599236367558728,0.0561916906098174
-0.2916386193217354,0.2229871797960378
-0.29426446954758134,0.32957018948349814
-0.26538011706327613,0.4091613980163419
-0.24437331525650874,0.5157444077038023
-0.23649576457897098,0.6507034134768851
-0.24174746503066283,0.7448286687852916
-0.2627542668374302,0.8091937330770697
-0.3231488220318865,0.8756350897653565
-0.4308086812915694,0.9656077602807451
-0.5594753423580198,1.0348175068310441
-0.6041147961974005,1.0804959395542413
-0.37041412609711316,1.1102561305708698
0.44359944391512357,1.1497056861045403
2.071626583939597,1.1787737796556659
4.264211522520944,1.1974604112242466
6.055041376547865,1.1967683137587435
6.3596400027459925,1.1988446061552525
5.028333938242109,1.1981525086897495
3.048442867954281,1.2023050934827675
1.543830688544566,1.1870789492417018
0.7954633741784776,1.162163440483594
0.41734094165666435,1.1261743722774387
0.1284974168136126,1.10333515591584
-0.036931147414680676,1.0714986725027025
-0.06581549989898584,1.0272044347105111
-0.08419645147990733,0.9683761501427571
-0.16034610802943916,0.9351554717986136
-0.2391216148048169,0.9012426959889671
-0.27325766774081395,0.8334171443696742
-0.2916386193217354,0.7039949183206152
-0.32052297180604056,0.5794173745300772
-0.34152977361280795,0.4859842166871737
-0.33890392338696207,0.4174665676023777
-0.32052297180604056,0.33303067681101306
-0.29951616999927316,0.2686656125192351
-0.28901276909588947,0.2340607392440856
-0.29426446954758134,0.21606620514100788
-0.3178971215801946,0.16623518762479267
-0.33102637270942425,0.11571207264307447
-0.3336522229352702,0.081799296833428
-0.3178971215801946,0.07280202978188914
-0.2916386193217354,0.04442603369626658
-0.26538011706327613,0.014665842679638049
-0.2496250157082006,-0.008173373681960593
-0.24437331525650874,-0.006789178750954615
-0.24174746503066283,-0.015094348336990485
-0.24174746503066283,-0.021323225526517386
-0.2391216148048169,-0.028936297647050267
-0.23649576457897098,-0.01924693313000842
-0.22336651344974134,-0.014402250871487497
-0.20498556186881986,-0.0033286914234396696
-0.1866046102878984,0.0022080883005842437
-0.1761012093845147,0.016742135076147018
-0.17084950893282286,0.025739402127685874
-0.1550944075777473,0.041657643834254625
-0.13146175554513398,0.05134700835129648
-0.11045495373836657,0.06380476273035028
-0.10520325328667472,0.06726525005786523
-0.10782910351252065,0.07903090697141604
-0.11045495373836657,0.08664397909194892
-0.1025774030608288,0.09564124614348778
-0.0920740021574451,0.09010446641946386
-0.07894475102821548,0.08456768669543996
-0.0710672003506777,0.07349412724739213
-0.06318964967313992,0.06795734752336821
-0.05793794922144808,0.05273120328230245
-0.05268624876975622,0.03750505904123669
-0.042182847866372525,0.017434232541650007
-0.03167944696298883,0.006360673093602179
-0.026427746511296975,-0.011633861009475539
-0.021176046059605127,-0.031704687509062225
-0.015924345607913275,-0.06215697599119375
-0.005420944704529576,-0.08084360755977446
0.0024566059730081993,-0.10022233659385815
0.005082456198854124,-0.11960106562794184
-0.00016924425283772564,-0.15212964650658234
-0.005420944704529576,-0.173584667937175
-0.00016924425283772564,-0.19157920204025272
0.018211707328083748,-0.20818954121232447
0.03134095845731338,-0.24210231702197094
0.026089258005621525,-0.26632572831457557
0.007708306424700049,-0.28362816495215026
0.005082456198854124,-0.29677801679670707
0.018211707328083748,-0.3258461103478326
0.0234634077797756,-0.34314854698540737
0.005082456198854124,-0.35353000896795217
-0.0290535967371429,-0.36737195827801195
-0.05531209899560215,-0.40543731888067636
-0.0815706012540614,-0.43727380229381385
-0.11045495373836657,-0.45734462879340054
-0.13671345599682583,-0.47533916289647826
-0.14196515644851768,-0.5175571082921606
-0.13933930622267174,-0.5521619815673101
-0.14984270712605544,-0.5715407106013938
-0.17084950893282286,-0.5881510497734656
-0.18923046051374431,-0.6317531901001538
-0.19448216096543616,-0.6732790380303332
-0.1971080111912821,-0.7009629366504527
-0.21023726232051174,-0.7210337631500394
-0.22336651344974134,-0.7653280009422307
-0.2286182139014332,-0.808930141268919
-0.22074066322389543,-0.8386903322855476
-0.2181148129980495,-0.8594532562506373
-0.2286182139014332,-0.8989028117843076
-0.2391216148048169,-0.936968172386972
-0.2391216148048169,-0.9639599735415886
-0.2391216148048169,-0.9798782152481573
-0.24699916548235468,-1.0130988935923009
-0.2522508659340465,-1.0483958643329534
-0.2496250157082006,-1.0774639578840788
-0.24437331525650874,-1.0968426869181624
-0.25487671615989244,-1.1252186830037851
-0.2627542668374302,-1.1542867765549107
-0.2601284166115843,-1.1798943827785213
-0.2522508659340465,-1.195120527019587
-0.2575025663857384,-1.2193439383121916
-0.26538011706327613,-1.2484120318633172
-0.2627542668374302,-1.2809406127419576
-0.2575025663857384,-1.3023956341725502
-0.2522508659340465,-1.3293874353271669
-0.24437331525650874,-1.3653765035333223
-0.23649576457897098,-1.4131312286530286
-0.23124406412727913,-1.451196589255693
-0.24437331525650874,-1.4844172675998364
-0.2627542668374302,-1.5183300434094829
-0.27325766774081395,-1.568853158391201
-0.270631817514968,-1.6152236885799014
-0.26538011706327613,-1.650520659320554
-0.2575025663857384,-1.6719756807511466
-0.24699916548235468,-1.7107331388193139
-0.23124406412727913,-1.763332546197541
-0.21286311254635765,-1.8055504915932234
-0.1971080111912821,-1.7958611270761815
-0.17084950893282286,-1.764024643663044
-0.13671345599682583,-1.7453380120944635
-0.0920740021574451,-1.7411854273014455
-0.060563799447294,-1.6837413376646972
-0.05531209899560215,-1.5854634975632729
-0.08682230170575325,-1.507256483961435
-0.1130808039642125,-1.4747279030827947
-0.08682230170575325,-1.3930604021534418
-0.0185501958337592,-1.2414910572082873
0.041844359360697074,-1.0954584919871566
0.07335456207084817,-1.0193277707818278
0.10223891455515335,-0.9203578332149003
0.14425251816868814,-0.749409759235662
0.15475591907207184,-0.5715407106013938
0.11011646523269113,-0.47533916289647826
0.0654770113933104,-0.3798297126570658
0.05234776026408077,-0.21580261333285733
0.054973610489926696,-0.024783712854032334
-0.010672645156221426,0.09633334360899078
-0.1340876057709799,0.19391908624491225
-0.2522508659340465,0.33441487174201906
-0.31001957090265686,0.5046708482557544
-0.31527127135434874,0.6202511249947535
-0.29426446954758134,0.7046870157861183
-0.270631817514968,0.8050411482840517
-0.2522508659340465,0.9316949844710987
-0.2601284166115843,1.0244360448484993
-0.2863869188700435,1.0901853040712832
-0.34152977361280795,1.1531661734320553
-0.4570671835500287,1.236217869292414
-0.6093664966490924,1.303351323446204
-0.690767853650316,1.3545665358934251
-0.4701964346792583,1.3919397990305864
0.36219808691389993,1.4424629140123046
2.032238830551908,1.48537295687349
4.277340773650174,1.5234383174761543
6.102306680613092,1.5428170465102382
6.414782857488757,1.5670404578028427
5.04671488982303,1.5891875766989383
3.0011775638890543,1.617563572784561
1.4387966795107292,1.6251766449050937
0.6799259642412568,1.6272529373016027
0.3438171353329784,1.61963986518107
0.10223891455515335,1.6251766449050937
-0.042182847866372525,1.61963986518107
