ECG,PPG
1.48085320905733,-0.22029801933273252
1.8789323205307682,0.09227173500094574
1.5454286706721176,-0.26780311415437086
1.3868509548079555,-0.4798548417640028
1.6108215431934219,-0.33871651656928026
1.7555032736468068,-0.24921416400677324
1.6427005685475575,-0.3628133037976475
1.5307152743548242,-0.4516271767250583
1.5454286706721176,-0.4096299189841896
1.532350096167857,-0.38415617248562994
1.4162777474425423,-0.4337267062125569
1.2969357550911624,-0.4715930861428483
1.2225513625981792,-0.45713501380582794
1.1310013410683535,-0.4481847785495772
0.996128541493164,-0.45713501380582794
0.8571686873853929,-0.4612658916164052
0.7378266950340131,-0.45713501380582794
0.6266588117477963,-0.46815068796736725
0.5122212848355142,-0.4812318010341952
0.39451411429716693,-0.48398571957458003
0.285798463730499,-0.4812318010341952
0.18525692222899406,-0.48467419920967625
0.09207207888613585,-0.4812318010341952
-0.010921695334917988,-0.4798548417640028
-0.10165430595822732,-0.4812318010341952
-0.17603869845121065,-0.4963783530063118
-0.23162264009431907,-0.5046401086274662
-0.2863891708309112,-0.5067055475327549
-0.3280771270632425,-0.5046401086274662
-0.3624083851369271,-0.5177212216942942
-0.3926525886780302,-0.5280484162207373
-0.4327057230973289,-0.5328677736664108
-0.45722805029281793,-0.5280484162207373
-0.46294992663843204,-0.536998651476988
-0.45722805029281793,-0.5521452034491046
-0.47030662479707874,-0.5693571943265098
-0.48992448655346993,-0.5755535110423756
-0.5013682392446982,-0.586569185203915
-0.48992448655346993,-0.5996502982707429
-0.47357626842314393,-0.6182392484183405
-0.45722805029281793,-0.623058605864014
-0.4457842976015897,-0.6237470854991102
-0.4253490249386822,-0.623058605864014
-0.405731163182291,-0.6354512392957458
-0.3926525886780302,-0.6471553930923812
-0.3926525886780302,-0.6602365061592091
-0.3926525886780302,-0.6705637006856523
-0.39346999958454654,-0.6870872119279613
-0.3926525886780302,-0.6939720082789234
-0.397557054117128,-0.6967259268193082
-0.3926525886780302,-0.6939720082789234
-0.37875660326725313,-0.7049876824404627
-0.3607735633238945,-0.7180687955072906
-0.3501472215391826,-0.7332153474794072
-0.3280771270632425,-0.7414771031005617
-0.2700409527005852,-0.7552466958024858
-0.16704717847953135,-0.765573890328929
-0.0468877752216352,-0.7772780441255644
0.05937564262548384,-0.7889821979222
0.14275155509014648,-0.8130789851505673
0.22122300211571128,-0.8364872927438384
0.2972422164217272,-0.8557647225265321
0.3503739253452867,-0.8598956003371094
0.3462868708127052,-0.8681573559582639
0.285798463730499,-0.8839923875654767
0.19751808582673858,-0.9122200526044212
0.12395110424027156,-0.9308090027520188
0.08798502435355435,-0.9452670750890392
0.09207207888613585,-0.9549057899803861
0.10515065339039666,-0.9790025772087533
0.09207207888613585,-1.0024108848020243
0.029131439084380723,-1.0223767942198143
-0.0697752806040916,-1.0258191923952955
-0.18503021842288994,-1.0292615905707765
-0.29619810170910676,-1.0258191923952955
-0.4016441086497095,-1.0292615905707765
-0.48992448655346993,-1.0258191923952955
-0.5659437008594859,-1.0230652738549106
-0.6190754097830454,-1.0024108848020243
-0.661580776921893,-0.9741832197630799
-0.6836508713978331,-0.9308090027520188
-0.6934598022760288,-0.8846808672005729
-0.6836508713978331,-0.8123905055154711
-0.6762941732391864,-0.7263305511284451
-0.6836508713978331,-0.623058605864014
-0.694277213182545,-0.5246060180452563
-0.6836508713978331,-0.4096299189841896
-0.6910075695564798,-0.2801957475861026
-0.7809227692732729,-0.12528782968945587
-0.9108911034093646,0.026866169666806015
-0.941952717856984,0.18246256719854895
-0.8136192055339249,0.33048568874423356
-0.5544999481682577,0.49021296408655374
-0.10492394958429252,0.6513171986990663
0.6732512334192253,0.8220601482029258
1.6868407574994377,0.9804104642750536
2.5794534674152376,1.1298105450909306
3.1181272548094796,1.2530483997731519
3.3878728539598586,1.3673360191991222
3.4156648247814125,1.4630346884774952
2.935027211749828,1.5566679188505794
1.7636773827119698,1.6365315565217395
0.253102027469847,1.7225915109087655
-0.9787362086502175,1.8045205874852142
-1.6531002065261653,1.8885151029669514
-1.9620815291893268,1.9518552293958025
-2.169703899444467,2.006933600203499
-2.329916437121662,2.043423020863598
-2.36343028428883,2.0778470026184084
-2.2726976736655207,2.099189871306391
-2.1378248740903314,2.125352097440047
-2.0258395798975983,2.1384332105068746
-1.9114020529853162,2.1487604050333178
-1.7528243371211538,2.1439410475876444
-1.5558283086507254,2.1487604050333178
-1.3776327310301721,2.149448884668414
-1.232951000576787,2.1487604050333178
-1.1087045427863091,2.1239751381698544
-0.974649154117636,2.1012553102116796
-0.8479504636076095,2.0744046044429276
-0.7155298967519689,2.0537502153900413
-0.5863789735223934,2.0165723150948462
-0.45722805029281793,1.982836812975132
-0.3697650832955738,1.9449704330448405
-0.3280771270632425,1.9119234105602225
-0.315815963465498,1.8623528768332955
-0.29619810170910676,1.8169132209169458
-0.2643190763549711,1.7673426871900189
-0.23162264009431907,1.7225915109087655
-0.20464808017928116,1.6606283437501068
-0.16704717847953135,1.6041730136722177
-0.11636770227552072,1.542209846513559
-0.0697752806040916,1.48575451643567
-0.041165898876021095,1.4120871954803758
-0.005199818989303886,1.343239231970755
0.05201894446683713,1.2695719110154609
0.12395110424027156,1.2014124271409363
0.1868917440420267,1.1167294320241028
0.253102027469847,1.0354888350827502
0.3299386526823792,0.9487404010606281
0.41494938696007444,0.8695652430245642
0.4909686012660904,0.7814398497322496
0.5767967464503019,0.7036416509663781
0.680607931577872,0.6279088911057953
0.8024021566488008,0.5618148461365593
0.9086655744959198,0.4791972899250144
0.996128541493164,0.3958912540783733
1.072965166705696,0.31189673859663597
1.1579759009833914,0.2533759696134583
1.2413518134480541,0.20242847661633895
1.3198232604736189,0.15836577997018167
1.3852161329949229,0.09915653135190781
1.4489741837031942,0.03994728273363396
1.50292330353327,-0.024081323330313348
1.5454286706721176,-0.07847121450291375
1.5666813542415416,-0.13286110567551415
1.5781251069327698,-0.1727929245110942
1.5822121614653513,-0.21203626371157802
1.5781251069327698,-0.2443948065610998
1.5437938488590852,-0.28432662539667986
1.48085320905733,-0.3153082089760092
1.3982947074991836,-0.3442243536500499
1.3198232604736189,-0.3628133037976475
1.2421692243545703,-0.387598570661111
1.1579759009833914,-0.4096299189841896
1.050895072229756,-0.4378575840231341
0.9315530798783762,-0.45713501380582794
0.8113936766204801,-0.47641244358852175
0.7059476696798773,-0.4812318010341952
0.5972320191132094,-0.48260876030438765
0.47952484857486216,-0.4812318010341952
0.35527839078438456,-0.49293595483083075
0.253102027469847,-0.5046401086274662
0.17054352591170066,-0.5129018642486207
0.09207207888613585,-0.5046401086274662
-0.0068346408023364875,-0.500509230816889
-0.10165430595822732,-0.5046401086274662
-0.17930834207727583,-0.5225405791399677
-0.23162264009431907,-0.5280484162207373
-0.28148470539181336,-0.5287368958558335
-0.3280771270632425,-0.5280484162207373
-0.3689476723890575,-0.543194968192854
-0.3926525886780302,-0.5521452034491046
-0.41145303952790513,-0.5548991219894894
-0.4253490249386822,-0.5521452034491046
-0.44333206488204085,-0.5645378368808364
-0.45722805029281793,-0.5755535110423756
-0.4678543920775298,-0.5810613481231454
-0.45722805029281793,-0.5755535110423756
-0.43924501034945934,-0.5838152666635301
-0.4253490249386822,-0.5996502982707429
-0.4269838467517148,-0.6182392484183405
-0.4253490249386822,-0.623058605864014
-0.4130878613409377,-0.6251240447693026
-0.3926525886780302,-0.623058605864014
-0.38774812323893243,-0.6326973207553609
-0.3926525886780302,-0.6471553930923812
-0.3983744650236443,-0.6657443432399789
-0.3926525886780302,-0.6705637006856523
-0.3902003559584813,-0.6705637006856523
-0.3926525886780302,-0.6705637006856523
-0.39919187593016064,-0.6843332933875764
-0.3926525886780302,-0.6939720082789234
-0.37875660326725313,-0.7042992028053665
-0.3607735633238945,-0.7180687955072906
-0.332164181595824,-0.7456079809111389
-0.26350166544845477,-0.765573890328929
-0.15560342578830313,-0.7779665237606607
-0.037078844343439596,-0.7889821979222
0.05365376627986973,-0.815144424055856
0.12395110424027156,-0.8364872927438384
0.19915290763977117,-0.8502568854457625
0.285798463730499,-0.8598956003371094
0.34792169262573786,-0.8846808672005729
0.3503739253452867,-0.9074006951587478
0.2841636419174664,-0.9232357267659606
0.18852656585505928,-0.9308090027520188
0.11332476245555965,-0.9542173103452899
0.09207207888613585,-0.9783140975736572
0.10923770792297816,-0.9982800069914471
0.12395110424027156,-1.0024108848020243
0.08798502435355435,-1.0127380793284675
-0.005199818989303886,-1.0258191923952955
-0.12535922224720003,-1.044408142542893
-0.23162264009431907,-1.0499159796236628
-0.32562489434369357,-1.0533583777991438
-0.4253490249386822,-1.0499159796236628
-0.5389691409444479,-1.0533583777991438
-0.6190754097830454,-1.0499159796236628
-0.6525892569502137,-1.0389003054621233
-0.6509544351371811,-1.0024108848020243
-0.6648504205479582,-0.9576597085207709
-0.6836508713978331,-0.9074006951587478
-0.6926423913695124,-0.8619610392423981
-0.6836508713978331,-0.7889821979222
-0.6787464059587354,-0.6932835286438271
-0.6836508713978331,-0.5755535110423756
-0.694277213182545,-0.46333133052169384
-0.7155298967519689,-0.33871651656928026
-0.7825575910863054,-0.20583994699571218
-0.9100736925028483,-0.054374427274546486
-1.0253286303216467,0.09296021463604195
-0.974649154117636,0.2533759696134583
-0.6362410388198877,0.4158571634961633
-0.005199818989303886,0.5852231537298304
0.819567785685643,0.739442591991381
1.707276030162345,0.8929735506178352
2.509973540361352,1.0306694776370768
3.096874571240056,1.1539073323192979
3.3821509776142444,1.246852083057286
3.2906009560844187,1.343239231970755
2.6824472416362912,1.4458226976000899
1.513549645317982,1.5566679188505794
0.07735868256884244,1.6441048325077978
-1.0711036410865595,1.7225915109087655
-1.6261256466111274,1.79075099478329
-1.7822511297557406,1.864418315738584
-1.9114020529853162,1.9250045236270505
-2.1051284378296793,1.982836812975132
-2.2171137320224124,2.023457111445808
-2.169703899444467,2.0537502153900413
-2.0544489616256687,2.063388930281388
-1.944098489245968,2.0778470026184084
-1.8288435514271697,2.089551156415044
-1.684979231880301,2.1012553102116796
-1.527218926922655,2.089551156415044
-1.3621019238063623,2.0778470026184084
-1.205976440661749,2.062011971011196
-1.0711036410865595,2.0537502153900413
-0.9664750450524731,2.028964948526578
-0.8454982308880605,2.006933600203499
-0.7008165004346755,1.979394414799651
-0.5544999481682577,1.9594285053818608
-0.45641063938630166,1.9229390847217618
-0.3926525886780302,1.8885151029669514
-0.3436079342870522,1.8478948044962753
-0.29619810170910676,1.8169132209169458
-0.2602320218223896,1.7721620446356923
-0.23162264009431907,1.7225915109087655
-0.20219584745973226,1.658562904844818
-0.16704717847953135,1.6041730136722177
-0.13353333131236303,1.5435868057837514
-0.10165430595822732,1.48575451643567
-0.07304492423015681,1.4113987158452796
-0.037078844343439596,1.343239231970755
0.003791700982375416,1.2695719110154609
0.05937564262548384,1.2014124271409363
0.12231628242723895,1.117417911659199
0.18852656585505928,1.0354888350827502
0.24983238384378179,0.9473634417904356
0.3176774890846347,0.8695652430245642
0.39369670339065066,0.7835052886375382
0.47952484857486216,0.7036416509663781
0.5694400482916552,0.6168932169442559
0.6732512334192253,0.5377180589081921
0.7762450076402791,0.45028114525097374
0.8669776182635885,0.37179446685000606
0.9323704907848925,0.2933077884490384
0.996128541493164,0.22996766202018726
1.0721477557991799,0.16593905595623995
1.1579759009833914,0.11154916478363955
1.2299080607568258,0.049585997624980865
1.2871268242129668,-0.006869332452908158
1.3353540676974285,-0.07089793851685547
1.3843987220884066,-0.12528782968945587
1.4228170346946727,-0.17967772086205627
1.4489741837031942,-0.22029801933273252
1.4546960600488084,-0.26780311415437086
1.4489741837031942,-0.3153082089760092
1.4334433764793846,-0.37038657978370576
1.4162777474425423,-0.4096299189841896
1.3819464893688578,-0.4399230229284228
1.3198232604736189,-0.45713501380582794
1.2339951152894073,-0.48260876030438765
1.1579759009833914,-0.5046401086274662
1.0876785630229895,-0.5321792940313146
0.996128541493164,-0.5521452034491046
0.8669776182635885,-0.5721111128668946
0.7378266950340131,-0.5755535110423756
0.6323806880934103,-0.5762419906774718
0.5441003101896499,-0.5755535110423756
0.44437617959466125,-0.5907000630144922
0.3503739253452867,-0.5996502982707429
0.2678154237871404,-0.603092696446224
0.18852656585505928,-0.5996502982707429
0.08961984616658694,-0.609977492797186
-0.005199818989303886,-0.623058605864014
-0.08040162238880351,-0.6320088411202647
-0.13435074221887933,-0.623058605864014
-0.18911727295547145,-0.6182392484183405
-0.23162264009431907,-0.623058605864014
-0.2626842545419385,-0.6409590763765154
-0.29619810170910676,-0.6471553930923812
-0.3501472215391826,-0.646466913457285
-0.3926525886780302,-0.6471553930923812
-0.4049137522757747,-0.6616134654294016
-0.3926525886780302,-0.6705637006856523
-0.3902003559584813,-0.672629139590941
-0.3926525886780302,-0.6705637006856523
-0.3959222323040954,-0.6836448137524802
-0.3926525886780302,-0.6939720082789234
-0.3967396432106117,-0.6981028860895007
-0.3926525886780302,-0.6939720082789234
-0.38039142508028573,-0.7042992028053665
-0.3607735633238945,-0.7180687955072906
-0.3468775779131174,-0.732526867844311
-0.3280771270632425,-0.7414771031005617
-0.3166333743720143,-0.7566236550726783
-0.3280771270632425,-0.765573890328929
-0.3681302614825412,-0.7683278088693138
-0.3926525886780302,-0.765573890328929
-0.3754869596411879,-0.7745241255851797
-0.3280771270632425,-0.7889821979222
-0.3084592653068513,-0.805505709164509
-0.3280771270632425,-0.8123905055154711
-0.3452427561000848,-0.8227177000419142
-0.29619810170910676,-0.8364872927438384
-0.17767352026424324,-0.8612725596073019
-0.037078844343439596,-0.8839923875654767
0.07408903894277724,-0.901892858077978
0.15664754050092355,-0.9074006951587478
0.2146837148635809,-0.9163509304149985
0.253102027469847,-0.9308090027520188
0.2792591764783686,-0.9583481881558671
0.3176774890846347,-0.9783140975736572
0.3577306235039334,-0.9934606495457737
0.3503739253452867,-1.0024108848020243
0.2743547110392708,-1.0237537534900067
0.18852656585505928,-1.0499159796236628
0.15092566415530947,-1.0795206039327996
0.15664754050092355,-1.096732594810205
0.15419530778137466,-1.1125676264174176
0.12395110424027156,-1.1208293820385722
0.061827875345032736,-1.1345989747404963
-0.037078844343439596,-1.1442376896318431
-0.17195164391862913,-1.160072721239056
-0.29619810170910676,-1.1683344768602104
-0.3795740141737694,-1.1752192732111726
-0.4253490249386822,-1.1683344768602104
-0.47439367932966026,-1.160072721239056
-0.5218035119076057,-1.1442376896318431
-0.5716655772051,-1.129779617294823
-0.6190754097830454,-1.096732594810205
-0.669754885987056,-1.0568007759746247
-0.6836508713978331,-1.0024108848020243
-0.6550414896697626,-0.9438901158188467
-0.6190754097830454,-0.8598956003371094
-0.6109013007178824,-0.7607545328832556
-0.6190754097830454,-0.6471553930923812
-0.6648504205479582,-0.5376871311120842
-0.7809227692732729,-0.4096299189841896
-0.8929080634660059,-0.2657376752490822
-0.8454982308880605,-0.10187952209618481
-0.6117187116243987,0.05165143653026949
-0.29619810170910676,0.20587087479182
0.12068146061420636,0.3566479148778895
0.8024021566488008,0.5143097513149211
1.6860233465929213,0.6520056783341626
2.4184235188315264,0.7745550533812875
2.7952499467355407,0.8771385190106225
2.9677236480104803,0.9879837402611119
2.970175880730029,1.1015828800519862
2.482998980446314,1.2248207347342073
1.3369888895104611,1.3342889967145044
-0.005199818989303886,1.4382494216140316
-0.9027169943442016,1.5236208963659614
-1.232951000576787,1.6041730136722177
-1.363736745619395,1.6654477011957802
-1.5558283086507254,1.7225915109087655
-1.7577288025602518,1.7680311668251152
-1.8468265913705284,1.8169132209169458
-1.8353828386793003,1.8547796008472373
-1.7822511297557406,1.8885151029669514
-1.711953791795339,1.9022846956688757
-1.6204037702655132,1.9119234105602225
-1.5165925851379431,1.909857971654934
-1.3947983600670144,1.9119234105602225
-1.2574733277722758,1.9015962160337794
-1.1038000773472114,1.8885151029669514
-0.9615705796133752,1.860975917563103
-0.8454982308880605,1.8410100081453131
-0.7670267838624958,1.8155362616467534
-0.6836508713978331,1.793504913323675
-0.5798396862702629,1.7570154926635757
-0.45722805029281793,1.7225915109087655
-0.3624083851369271,1.6826596920731853
-0.29619810170910676,1.6509896288587598
-0.24551862550509618,1.6062384525775064
-0.19892620383366705,1.5566679188505794
-0.16377753485346613,1.4919508331515359
-0.13435074221887933,1.4382494216140316
-0.11473288046248813,1.3790401729957578
-0.10165430595822732,1.319830924377484
-0.08448867692138501,1.2440981645169011
-0.037078844343439596,1.177315639912569
0.02095733001921772,1.1070907171327558
0.05937564262548384,1.0354888350827502
0.07654127166232615,0.9466749621553394
0.12395110424027156,0.8695652430245642
0.2089618385179668,0.7972748813394623
0.285798463730499,0.7270499585596492
0.3152252563650858,0.6320397689163725
0.3503739253452867,0.5377180589081921
0.4419239468751124,0.44752722671058887
0.5767967464503019,0.37179446685000606
0.680607931577872,0.2850460328278839
0.7378266950340131,0.20587087479182
0.7762450076402791,0.13633443164710302
0.8350985929094528,0.08745237755527228
0.9004914654307569,0.03099704747738326
0.9642495161390282,-0.030966119681275425
1.0337294431929138,-0.10601039990676206
1.1260968756292558,-0.1727929245110942
1.2021160899352716,-0.23957544911542633
1.2225513625981792,-0.2912114217476419
1.2037509117483043,-0.3428473943798575
1.2225513625981792,-0.38622161139091854
1.2854920023999343,-0.4364806247529417
1.3198232604736189,-0.4812318010341952
1.2756830715217387,-0.5246060180452563
1.2225513625981792,-0.5521452034491046
1.216829486252565,-0.5776189499476643
1.2225513625981792,-0.5996502982707429
1.1718718863941686,-0.6285664429447837
1.0934004393686036,-0.6471553930923812
1.0386339086320115,-0.6616134654294016
0.996128541493164,-0.6705637006856523
0.9029436981503057,-0.6877756915630575
0.7705231312946651,-0.6939720082789234
0.6511811389432852,-0.696037447184212
0.5767967464503019,-0.6939720082789234
0.5146735175550631,-0.7070531213457513
0.4476458232207265,-0.7180687955072906
0.36590473256909645,-0.7235766325880603
0.285798463730499,-0.7180687955072906
0.2089618385179668,-0.7180687955072906
0.15664754050092355,-0.7180687955072906
0.12068146061420636,-0.7208227140476755
0.09207207888613585,-0.7180687955072906
0.04629706812122303,-0.7201342344125793
-0.005199818989303886,-0.7180687955072906
-0.0665056369780264,-0.7180687955072906
-0.13435074221887933,-0.7180687955072906
-0.20955254561837897,-0.7297729493039262
-0.26350166544845477,-0.7414771031005617
-0.29047622536349266,-0.7497388587217162
-0.29619810170910676,-0.7414771031005617
-0.3002851562416883,-0.7373462252899845
-0.29619810170910676,-0.7414771031005617
-0.291293636270009,-0.7586890939779669
-0.29619810170910676,-0.765573890328929
-0.3190856070915632,-0.765573890328929
-0.3280771270632425,-0.765573890328929
-0.3149985525589817,-0.7800319626659493
-0.29619810170910676,-0.7889821979222
-0.30518962168078606,-0.7910476368274887
-0.3280771270632425,-0.7889821979222
-0.3411557015675033,-0.8013748313539317
-0.3280771270632425,-0.8123905055154711
-0.31091149802640017,-0.8172098629611445
-0.29619810170910676,-0.8123905055154711
-0.2929284580830416,-0.8213407407717218
-0.29619810170910676,-0.8364872927438384
-0.3043722107742698,-0.8530108039861474
-0.29619810170910676,-0.8598956003371094
-0.2716757745136178,-0.8715997541337449
-0.23162264009431907,-0.8839923875654767
-0.17031682210559654,-0.8998274191726895
-0.0697752806040916,-0.9074006951587478
0.04384483540167413,-0.9177278896851908
0.12395110424027156,-0.9308090027520188
0.16318682775305396,-0.9555942696154822
0.22122300211571128,-0.9783140975736572
0.32339936543024883,-0.9969030477212547
0.41494938696007444,-1.0024108848020243
0.4108623324274929,-1.010672640423179
0.3176774890846347,-1.0258191923952955
0.2179533584896461,-1.0526698981640477
0.18852656585505928,-1.0733242872169337
0.22776228936784168,-1.0891593188241466
0.285798463730499,-1.096732594810205
0.3119556127390206,-1.110502187512129
0.285798463730499,-1.1208293820385722
0.18852656585505928,-1.1332220154703039
0.027496617271348125,-1.1442376896318431
-0.15642083669481943,-1.1683344768602104
-0.29619810170910676,-1.1917427844534816
-0.3852958905193835,-1.213085653141464
-0.45722805029281793,-1.2151510920467525
-0.5324298536923175,-1.216528051316945
-0.5544999481682577,-1.2151510920467525
-0.530795031879285,-1.2227243680328108
-0.5218035119076057,-1.2151510920467525
-0.5765700426441978,-1.200004540074636
-0.6190754097830454,-1.1683344768602104
-0.6141709443439476,-1.1325335358352075
-0.6190754097830454,-1.0733242872169337
-0.6607633660153767,-0.9989684866265434
-0.6509544351371811,-0.9074006951587478
-0.5839267408028445,-0.8199637815015294
-0.5863789735223934,-0.7180687955072906
-0.6877379259304146,-0.6010272575409353
-0.7155298967519689,-0.45713501380582794
-0.5871963844289096,-0.314619729340913
-0.3926525886780302,-0.1727929245110942
-0.09756725142564582,-0.04473571238319958
0.5122212848355142,0.08745237755527228
1.3623286276124664,0.21413263041297448
2.0301533382362837,0.348386159256735
2.3432217154320267,0.48263968810049546
2.6121499036758897,0.6327282485514687
2.9244008699651163,0.7773089719216724
2.741300826905465,0.9170703378462025
1.6451528012671064,1.0354888350827502
0.12395110424027156,1.1539073323192979
-0.9378656633244025,1.2626871146644987
-1.2648300259309226,1.3673360191991222
-1.301613516724156,1.4499535754106672
-1.459373821681802,1.5325711316222121
-1.7184930790474693,1.6076154118476986
-1.8795230276311805,1.675086416087127
-1.894236423948474,1.7136412756525148
-1.8468265913705284,1.7459998185020364
-1.805138635138197,1.776981402081366
-1.7495546934950887,1.8169132209169458
-1.6473783301805511,1.8368791303347358
-1.4912528470359379,1.8410100081453131
-1.3138746803219006,1.8251749765381002
-1.135679102701347,1.8169132209169458
-1.0032585358457065,1.8045205874852142
-0.941952717856984,1.793504913323675
-0.9207000342875602,1.7673426871900189
-0.8128017946274085,1.7459998185020364
-0.6002749589331705,1.7198375923683806
-0.3926525886780302,1.6984947236803982
-0.307641854400335,1.6626937826553954
-0.29619810170910676,1.6275813212654888
-0.28720658173742747,1.5800762264438504
-0.29619810170910676,1.5325711316222121
-0.3493298106326663,1.4706079644635535
-0.3607735633238945,1.4141526343856643
-0.2569623781963244,1.353566426497198
-0.10165430595822732,1.2957341371491167
-0.024817680745695094,1.2227552958289187
-0.037078844343439596,1.1539073323192979
-0.0624185824454449,1.0802400113640036
-0.037078844343439596,1.011392047854383
0.030766260897413324,0.9218896952918759
0.12395110424027156,0.8220601482029258
0.19833549673325487,0.7091494880471477
0.22122300211571128,0.6086314613231014
0.2179533584896461,0.5088019142341513
0.285798463730499,0.41929956167164434
0.4362020705294983,0.32704329056875253
0.5767967464503019,0.2533759696134583
0.6242065790282473,0.1872819246442224
0.6413722080650897,0.1349574723769106
0.7108521351189752,0.07437126448844435
0.8350985929094528,0.016538975140362903
0.9356401344109577,-0.0468011512884882
0.996128541493164,-0.10187952209618481
1.042720963164593,-0.1638426892548435
1.0934004393686036,-0.22029801933273252
1.1301839301618373,-0.2767533494106216
1.1579759009833914,-0.3153082089760092
1.1874026936179782,-0.3531745889063006
1.2225513625981792,-0.38622161139091854
1.2454388679806356,-0.42753038949669103
1.255247798858831,-0.45713501380582794
1.2478911007001845,-0.48467419920967625
1.2225513625981792,-0.5046401086274662
1.1751415300202337,-0.5328677736664108
1.1260968756292558,-0.5521452034491046
1.0786870430513102,-0.5686687146914136
1.0288249777538159,-0.5755535110423756
0.9544405852608326,-0.5907000630144922
0.8669776182635885,-0.5996502982707429
0.7795146512663443,-0.6051581353515126
0.7059476696798773,-0.5996502982707429
0.6291110444673451,-0.5996502982707429
0.5441003101896499,-0.5996502982707429
0.44437617959466125,-0.6037811760813202
0.3503739253452867,-0.5996502982707429
0.2637283692545589,-0.5996502982707429
0.18852656585505928,-0.5996502982707429
0.10842029701646184,-0.6037811760813202
0.027496617271348125,-0.5996502982707429
-0.048522597034667804,-0.5975848593654544
-0.10165430595822732,-0.5996502982707429
-0.14824672762965643,-0.6141083706077632
-0.19892620383366705,-0.623058605864014
-0.25777978910284066,-0.6271894836745913
-0.29619810170910676,-0.623058605864014
-0.3141811416524654,-0.6258125244043988
-0.3280771270632425,-0.623058605864014
-0.3615909742304108,-0.6223701262289177
-0.3926525886780302,-0.623058605864014
-0.4049137522757747,-0.6375166782010343
-0.3926525886780302,-0.6471553930923812
-0.38774812323893243,-0.6499093116327661
-0.3926525886780302,-0.6471553930923812
-0.40082669774319324,-0.6574825876188244
-0.3926525886780302,-0.6705637006856523
-0.3869307123324161,-0.6788254563068068
-0.3926525886780302,-0.6705637006856523
-0.405731163182291,-0.6664328228750751
-0.3926525886780302,-0.6705637006856523
-0.3681302614825412,-0.6870872119279613
-0.3607735633238945,-0.6939720082789234
-0.3836610687063509,-0.696037447184212
-0.3926525886780302,-0.6939720082789234
-0.3754869596411879,-0.7056761620755589
-0.3607735633238945,-0.7180687955072906
-0.3779391923607368,-0.7318383882092148
-0.3926525886780302,-0.7414771031005617
-0.3820262468933183,-0.7573121347077745
-0.3607735633238945,-0.765573890328929
-0.3460601670066011,-0.7683278088693138
-0.29619810170910676,-0.765573890328929
-0.19075209476850405,-0.7745241255851797
-0.0697752806040916,-0.7889821979222
0.01605286458011992,-0.8061941887996052
0.09207207888613585,-0.8123905055154711
0.18852656585505928,-0.822029220406818
0.285798463730499,-0.8364872927438384
0.32912124177586294,-0.8626495188774942
0.3176774890846347,-0.8839923875654767
0.27598953285230343,-0.8998274191726895
0.22122300211571128,-0.9074006951587478
0.15909977322047247,-0.9197933285904795
0.12395110424027156,-0.9308090027520188
0.13294262421195085,-0.9459555547241354
0.15664754050092355,-0.9549057899803861
0.13702967874453237,-0.9686753826823102
0.05937564262548384,-0.9783140975736572
-0.0526096515672493,-0.9927721699106775
-0.16704717847953135,-1.0024108848020243
-0.28148470539181336,-1.0168689571390448
-0.3926525886780302,-1.0258191923952955
-0.4931941301795352,-1.0389003054621233
-0.5544999481682577,-1.0499159796236628
-0.5921008498680075,-1.067127970501068
-0.6190754097830454,-1.0733242872169337
-0.6583111332958278,-1.0705703686765489
-0.6836508713978331,-1.0499159796236628
-0.6901901586499635,-1.0292615905707765
-0.6836508713978331,-1.0024108848020243
-0.6828334604913168,-0.9755601790332723
-0.6836508713978331,-0.9308090027520188
-0.6787464059587354,-0.8791730301198032
-0.6836508713978331,-0.8123905055154711
-0.7457741002930719,-0.7407886234654655
-0.8773772562421963,-0.6471553930923812
-0.9844580849958317,-0.5438834478279501
-0.9100736925028483,-0.4337267062125569
-0.5814745080832956,-0.3394049962043764
-0.037078844343439596,-0.2443948065610998
0.6789731097648395,-0.1466306983774383
1.5454286706721176,-0.030966119681275425
2.420058340644559,0.08538693864998366
3.0641781349794037,0.20587087479182
3.3674375812969513,0.32015849421779047
3.3551764176992065,0.4427078692649154
2.9219486372455674,0.560437886866367
1.8691233896525727,0.680233343373107
0.35854803441044975,0.7862592071779231
-0.974649154117636,0.8929735506178352
-1.6539176174326815,0.9893606995313042
-1.8468265913705284,1.0829939299043885
-2.0135784162998536,1.1573497304947788
-2.266975797319907,1.2248207347342073
-2.403483418708129,1.2743912684611343
-2.3315512589346943,1.319830924377484
-2.1876869393878255,1.352877946862102
-2.0732494124755436,1.3907443267923933
-1.952272598311131,1.4182835121962416
-1.7822511297557406,1.4382494216140316
-1.595881443070024,1.4375609419789355
-1.42667738542115,1.4382494216140316
-1.2803608331547323,1.436183982708743
-1.135679102701347,1.4382494216140316
-0.9967192485935761,1.4182835121962416
-0.8454982308880605,1.3907443267923933
-0.6983642677151265,1.3576973043077754
-0.5544999481682577,1.343239231970755
-0.4416972430690082,1.3246502818231574
-0.3607735633238945,1.2957341371491167
-0.3190856070915632,1.2447866441519972
-0.29619810170910676,1.2014124271409363
-0.27085836360710147,1.1628575675755486
-0.23162264009431907,1.1298105450909306
-0.18421280751637364,1.0740436946481378
-0.13435074221887933,1.011392047854383
-0.09593242961261322,0.945298002885147
-0.0697752806040916,0.8929735506178352
-0.0477051861281515,0.8344527816346575
-0.005199818989303886,0.7745550533812875
0.057740820812451236,0.7022646916961857
0.12395110424027156,0.6327282485514687
0.17299575863124958,0.5569954886908859
0.22122300211571128,0.49021296408655374
0.2784417655718523,0.41792260240145196
0.3503739253452867,0.348386159256735
0.42394090693175374,0.27058796049086353
0.5122212848355142,0.20587087479182
0.6086757718044377,0.14390770763316132
0.7059476696798773,0.08745237755527228
0.7852365276119585,0.022046812221132563
0.8669776182635885,-0.030966119681275425
0.9601624616064467,-0.07984817377310617
1.061521414014468,-0.12528782968945587
1.146532148292163,-0.18862795611830696
1.2225513625981792,-0.2443948065610998
1.2912138787455483,-0.2884575032072571
1.3517022858277545,-0.3153082089760092
1.3982947074991836,-0.3504206703659158
1.4489741837031942,-0.38622161139091854
1.5021058926267539,-0.42753038949669103
1.5454286706721176,-0.45713501380582794
1.5560550124568295,-0.48742811775006106
1.5454286706721176,-0.5046401086274662
1.5200889325701124,-0.520475140234679
1.48085320905733,-0.5280484162207373
1.4187299801620912,-0.5438834478279501
1.3517022858277545,-0.5521452034491046
1.2887616460259994,-0.5576530405298743
1.2225513625981792,-0.5521452034491046
1.123644642909707,-0.5528336830842008
0.996128541493164,-0.5521452034491046
0.8588035091984255,-0.5555876016245856
0.7378266950340131,-0.5521452034491046
0.6250239899347636,-0.553522162719297
0.5122212848355142,-0.5521452034491046
0.39124447067110174,-0.5555876016245856
0.285798463730499,-0.5521452034491046
0.19751808582673858,-0.5514567238140083
0.12395110424027156,-0.5521452034491046
0.043027424495157826,-0.5652263165159326
-0.037078844343439596,-0.5755535110423756
-0.12127216771461853,-0.5824383073933377
-0.19892620383366705,-0.5755535110423756
-0.274945418139683,-0.5727995925019909
-0.3280771270632425,-0.5755535110423756
-0.364860617856476,-0.5907000630144922
-0.3926525886780302,-0.5996502982707429
-0.43025349037778005,-0.6037811760813202
-0.45722805029281793,-0.5996502982707429
-0.46621957026449723,-0.6072235742568012
-0.45722805029281793,-0.623058605864014
-0.45559322847978534,-0.643024515281804
-0.45722805029281793,-0.6471553930923812
-0.4604976939188831,-0.6457784338221888
-0.45722805029281793,-0.6471553930923812
-0.45968028301236685,-0.6623019450644978
-0.45722805029281793,-0.6705637006856523
-0.4490539412276549,-0.672629139590941
-0.4253490249386822,-0.6705637006856523
-0.4049137522757747,-0.6829563341173841
-0.3926525886780302,-0.6939720082789234
-0.3942874104910628,-0.699479845359693
-0.3926525886780302,-0.6939720082789234
-0.3926525886780302,-0.7015452842649816
-0.3926525886780302,-0.7180687955072906
-0.3967396432106117,-0.7373462252899845
-0.3926525886780302,-0.7414771031005617
-0.389382945051965,-0.7414771031005617
-0.3926525886780302,-0.7414771031005617
-0.3967396432106117,-0.7538697365322934
-0.3607735633238945,-0.765573890328929
-0.27412800723316666,-0.7793434830308531
-0.16704717847953135,-0.7889821979222
-0.07958421148228721,-0.8034402702592204
-0.005199818989303886,-0.8123905055154711
0.08226314800794024,-0.8234061796770104
0.18852656585505928,-0.8364872927438384
0.277624354665336,-0.8619610392423981
0.3176774890846347,-0.8839923875654767
0.3037815036738576,-0.9005158988077857
0.253102027469847,-0.9074006951587478
0.18525692222899406,-0.9197933285904795
0.12395110424027156,-0.9308090027520188
0.08880243526007064,-0.9452670750890392
0.09207207888613585,-0.9549057899803861
0.10596806429691295,-0.9693638623174065
0.09207207888613585,-0.9783140975736572
0.026679206364831825,-0.9913952106404851
-0.0697752806040916,-1.0024108848020243
-0.17930834207727583,-1.0203113553145258
-0.29619810170910676,-1.0258191923952955
-0.42126197040610075,-1.027884631300584
-0.5218035119076057,-1.0258191923952955
-0.588013795335426,-1.0333924683813538
-0.6190754097830454,-1.0258191923952955
-0.6542240787632463,-1.007918721882794
-0.6836508713978331,-0.9783140975736572
-0.6991816786216428,-0.9535288307101937
-0.6836508713978331,-0.9074006951587478
-0.669754885987056,-0.8440605687298967
-0.6836508713978331,-0.765573890328929
-0.7114428422193874,-0.6925950490087309
-0.7155298967519689,-0.5996502982707429
-0.7286084712562296,-0.4881165973851573
-0.8128017946274085,-0.3628133037976475
-0.9378656633244025,-0.24921416400677324
-0.974649154117636,-0.12528782968945587
-0.8610290381118703,0.004146341708631165
-0.6190754097830454,0.1349574723769106
-0.18503021842288994,0.23960637691153416
0.5767967464503019,0.348386159256735
1.5805773396523186,0.4702470546687637
2.482998980446314,0.6086314613231014
3.0502821495686265,0.7360001938158999
3.3551764176992065,0.8695652430245642
3.426291166566125,1.001753332963036
2.999602673364616,1.1298105450909306
1.8797497314372846,1.2275746532745921
0.38225295069942244,1.319830924377484
-0.8806468998682615,1.4120871954803758
-1.5885247449113775,1.509162824028941
-1.9024105330136367,1.5766338282683694
-2.1051284378296793,1.6275813212654888
-2.286593659076298,1.668201619736165
-2.36343028428883,1.7225915109087655
-2.3021244663001075,1.7639002890145379
-2.169703899444467,1.793504913323675
-2.0536315507191523,1.8017666689448293
-1.944098489245968,1.8169132209169458
-1.7904252388209037,1.8293058543486775
-1.5885247449113775,1.8410100081453131
-1.4029724691321774,1.8293058543486775
-1.2648300259309226,1.8169132209169458
-1.1610188408033524,1.8010781893097332
-1.0392246157324236,1.793504913323675
-0.9018995834376853,1.7700966057304037
-0.7482263330126209,1.7459998185020364
-0.6092664789048498,1.7163951941928994
-0.48992448655346993,1.6984947236803982
-0.41145303952790513,1.6668246604659727
-0.3607735633238945,1.6275813212654888
-0.3264423052502099,1.5731914300928884
-0.29619810170910676,1.5325711316222121
-0.26513648726148736,1.4953932313270168
-0.23162264009431907,1.4616577292073027
-0.19892620383366705,1.4045139194943175
-0.16704717847953135,1.343239231970755
-0.13680297493842822,1.2771451870015191
-0.10165430595822732,1.2248207347342073
-0.05914893881937971,1.1649230064808371
-0.005199818989303886,1.1064022374976596
0.04629706812122303,1.0334233961774615
0.09207207888613585,0.9645754326678408
0.14029932237059756,0.8881541931721617
0.22122300211571128,0.8220601482029258
0.32176454361721624,0.749769786517824
0.41494938696007444,0.680233343373107
0.47789002676182957,0.6010581853370431
0.5441003101896499,0.5377180589081921
0.6323806880934103,0.4764433713846296
0.7378266950340131,0.41929956167164434
0.8342811820029364,0.3456322407163501
0.9315530798783762,0.2774727568418256
1.0320946213798812,0.21137871187258966
1.1260968756292558,0.15836577997018167
1.1939419808701086,0.09709109244661919
1.255247798858831,0.03994728273363396
1.3198232604736189,-0.021327404789928516
1.3843987220884066,-0.07847121450291375
1.4228170346946727,-0.14387677983705346
1.4489741837031942,-0.19688971173946146
1.4775835654312648,-0.24026392875052255
1.513549645317982,-0.26780311415437086
1.5282630416352754,-0.30360405517937367
1.513549645317982,-0.33871651656928026
1.4702268672726182,-0.3800252946750527
1.4162777474425423,-0.4096299189841896
1.3541545185473034,-0.4399230229284228
1.2871268242129668,-0.45713501380582794
1.2094727880939182,-0.47365852504813694
1.1260968756292558,-0.4812318010341952
1.031277210473365,-0.49500139373611934
0.9315530798783762,-0.5046401086274662
0.8212026074986757,-0.5190981809644867
0.7059476696798773,-0.5280484162207373
0.5866056773284976,-0.543194968192854
0.47952484857486216,-0.5521452034491046
0.37898330707335726,-0.5590299998000666
0.285798463730499,-0.5521452034491046
0.1860743331355104,-0.5493912849087198
0.09207207888613585,-0.5521452034491046
0.002974290075859116,-0.5679802350563173
-0.0697752806040916,-0.5755535110423756
-0.13843779675146084,-0.5789959092178567
-0.19892620383366705,-0.5755535110423756
-0.26513648726148736,-0.5789959092178567
-0.3280771270632425,-0.5755535110423756
-0.37875660326725313,-0.5741765517721833
-0.3926525886780302,-0.5755535110423756
-0.389382945051965,-0.5920770222846846
-0.3926525886780302,-0.5996502982707429
-0.4163575049670029,-0.6003387779058391
-0.4253490249386822,-0.5996502982707429
-0.4204445594995844,-0.6141083706077632
-0.4253490249386822,-0.623058605864014
-0.45395840666675275,-0.6251240447693026
-0.45722805029281793,-0.623058605864014
-0.42453161403216594,-0.6368281985659381
-0.3926525886780302,-0.6471553930923812
-0.4049137522757747,-0.6499093116327661
-0.4253490249386822,-0.6471553930923812
-0.4179923267800355,-0.6588595468890168
-0.3926525886780302,-0.6705637006856523
-0.3902003559584813,-0.6753830581313258
-0.3926525886780302,-0.6705637006856523
-0.38039142508028573,-0.679513935941903
-0.3607735633238945,-0.6939720082789234
-0.3689476723890575,-0.7111839991563286
-0.3926525886780302,-0.7180687955072906
-0.3967396432106117,-0.7297729493039262
-0.3607735633238945,-0.7414771031005617
-0.3027373889612372,-0.7573121347077745
-0.23162264009431907,-0.765573890328929
-0.14415967309707492,-0.7772780441255644
-0.037078844343439596,-0.7889821979222
0.06836716259716313,-0.8048172295294128
0.15664754050092355,-0.8123905055154711
0.2244926457417765,-0.8234061796770104
0.285798463730499,-0.8364872927438384
0.3250341872432814,-0.8619610392423981
0.3176774890846347,-0.8839923875654767
0.2580064929089448,-0.9005158988077857
0.18852656585505928,-0.9074006951587478
0.14356896599666277,-0.9197933285904795
0.12395110424027156,-0.9308090027520188
0.10760288610994555,-0.9459555547241354
0.09207207888613585,-0.9549057899803861
0.061827875345032736,-0.9686753826823102
-0.005199818989303886,-0.9783140975736572
-0.11636770227552072,-0.9927721699106775
-0.23162264009431907,-1.0024108848020243
-0.3313467706893077,-1.017557436774141
-0.4253490249386822,-1.0258191923952955
-0.5348820864118664,-1.0327039887462575
-0.6190754097830454,-1.0258191923952955
-0.6558589005762789,-1.0196228756794297
-0.6509544351371811,-1.0024108848020243
-0.661580776921893,-0.9783140975736572
-0.6836508713978331,-0.9308090027520188
-0.6959120349955776,-0.8771075912145146
-0.6836508713978331,-0.8123905055154711
-0.6738419405196375,-0.7511158179919086
-0.6836508713978331,-0.6705637006856523
-0.7098080204063547,-0.5755535110423756
-0.7482263330126209,-0.45713501380582794
-0.8226107255056042,-0.34078195547456885
-0.941952717856984,-0.22029801933273252
-1.0449464920780378,-0.10601039990676206
-0.974649154117636,0.016538975140362903
-0.5782048644572304,0.1322035538365258
0.15664754050092355,0.2533759696134583
1.0549821267623376,0.37385990575529465
1.9010024150067084,0.5143097513149211
2.5925320419194984,0.656825035779836
3.1287535965941915,0.7986518406096548
3.4344652756312875,0.9170703378462025
3.2906009560844187,1.0354888350827502
2.512425773080901,1.150464934143817
1.2225513625981792,1.2723258295558457
-0.14415967309707492,1.3735323359149882
-1.135679102701347,1.4616577292073027
-1.6261256466111274,1.5318826519871158
-1.8141301551098763,1.6041730136722177
-1.9539074201241637,1.664759221560684
-2.1051284378296793,1.7225915109087655
-2.194226226639956,1.760457890839057
-2.169703899444467,1.793504913323675
-2.071614590662511,1.8148477820116573
-1.944098489245968,1.8410100081453131
-1.805138635138197,1.8554680804823336
-1.6531002065261653,1.864418315738584
-1.4953399015685194,1.8527141619419487
-1.3302228984522266,1.8410100081453131
-1.1740974153076134,1.8231095376328117
-1.0392246157324236,1.8169132209169458
-0.9329611978853047,1.8045205874852142
