ECG,PPG
0.9037296642782767,1.251334273324626
1.0473364516971986,1.8584582071512077
0.8720874907791922,1.4218904767001859
1.0311096960566424,1.2197497912180408
1.5073649741069655,1.5440171408456487
1.7945785489448092,1.7482634584682328
1.7296715263825846,1.617714265761014
1.5625359432848562,1.5299795932427218
1.4432692893267687,1.6415780966859894
1.2915491240875687,1.701237673998428
1.0943940430548114,1.617714265761014
0.9426738778156115,1.5440171408456487
0.8404453172801077,1.5440171408456487
0.7041405698994361,1.5173458004000877
0.523212244507235,1.4464561850053077
0.3495859591532843,1.386796607692869
0.20516783395233457,1.348895229164967
0.08590117999424687,1.2850243875716503
0.01450345517579982,1.2022028567143823
0.0015220506633549004,1.124294467518139
0.01450345517579982,1.055510484263798
0.03397556194446719,0.9740927081668228
0.0785991399559966,0.884954280888238
0.1329587713518597,0.7817783060067265
0.14188348695416558,0.6891304918274099
0.07616512660991318,0.5929732907473618
0.01450345517579982,0.4940085801467282
0.045334290892856496,0.37890068980272895
0.17352566045325007,0.2743209601609247
0.3082077322698661,0.17325061741985218
0.3641900392297848,0.07849717110009664
0.30171703001364364,-0.033101332343170954
0.14188348695416558,-0.14119044888570687
-0.05527159407859162,-0.24577017852751112
-0.2078030970998194,-0.3363123605663886
-0.2970502531228782,-0.43597894854716845
-0.3660139645952418,-0.5321361496272167
-0.4698652006948012,-0.6268895959469721
-0.5883205168708611,-0.7026923530027765
-0.6889264018423092,-0.772178213637264
-0.7473427221483113,-0.8248190171482392
-0.7797962334294236,-0.8774598206592146
-0.7789848956473958,-0.9223799729885801
-0.7497767354943947,-0.9757226538797017
-0.7157005486492268,-1.0206428062090673
-0.7027191441367819,-1.0634573263979938
-0.7157005486492268,-1.0936380537442865
-0.7660034911349509,-1.1238187810905789
-0.8739114161446493,-1.14276947035453
-1.0150841902174879,-1.159614527478042
-1.0962179684202684,-1.1666333012795054
-1.0548397415368502,-1.173652075080969
-0.8739114161446493,-1.1666333012795054
-0.5209794809625531,-1.1575088953376031
0.046956966456912115,-1.14276947035453
0.7325373922704094,-1.1329431870324813
1.348342768829515,-1.1182037620494083
1.8367681136102552,-1.1062718465869203
2.2692111514310764,-1.0936380537442865
2.5304619172440304,-1.0873211573229693
2.2692111514310764,-1.0690723454391646
1.3556448088677655,-1.0459103918943355
0.17352566045325007,-1.0206428062090673
-0.7457200465842557,-1.009412768126726
-1.2235980001986342,-0.9960770979039455
-1.398035623334613,-0.9764245312598481
-1.3826202054760846,-0.9469456812937019
-1.2073712445580782,-0.9308025015503362
-0.9696492744239306,-0.9223799729885801
-0.8000796779801188,-0.9188705860878484
-0.7157005486492268,-0.8985161420636046
-0.65160486386903,-0.8739504337584829
-0.5883205168708611,-0.8493847254533611
-0.5518103166796098,-0.838856564751166
-0.5250361698726921,-0.8248190171482392
-0.48609195633535734,-0.8072720826445808
-0.4617518228745231,-0.776389477918142
-0.5120547653602472,-0.7518237696130202
-0.6199626903699456,-0.7272580613078984
-0.714889210867199,-0.70971112680424
-0.7157005486492268,-0.6781266446976548
-0.6378121215745574,-0.6395233887896062
-0.5250361698726921,-0.580565688857314
-0.428486973811383,-0.5152910925037045
-0.33437179109615733,-0.4338733164067295
-0.22078450161226432,-0.3531574176899007
-0.08042306532145364,-0.26331711303116956
0.06480639766152388,-0.18049558217390177
0.20516783395233457,-0.09205903227546328
0.34309525689706183,-0.005026237137317471
0.49075873322612273,0.10306287940521845
0.6473469251574896,0.21887264712936408
0.8088031437810232,0.3473162076961438
0.9524099311999452,0.4666353623210211
1.062751869555727,0.5915695359870691
1.1487536744506746,0.7179074644134098
1.2534162483322617,0.8603885725831162
1.3913436712769889,0.997254661711652
1.5390071476060498,1.1292076091791634
1.6461037348337204,1.2394023578621383
1.6980293528835002,1.348895229164967
1.6996520284475558,1.4492636945258932
1.6655758416023878,1.5440171408456487
1.5982348056940798,1.6120992467198434
1.5073649741069655,1.6661438049911113
1.4067590891355173,1.7033433061388672
1.3167005953304307,1.7398409299064768
1.2428688571659001,1.7580897417902814
1.189320563552065,1.7637047608314522
1.1333382565921462,1.7440521941873548
1.0311096960566424,1.715275221601355
0.8250298994215794,1.6752682109330137
0.523212244507235,1.6415780966859894
0.2222059273749185,1.5980616991169165
0.0785991399559966,1.5440171408456487
0.16054425594080515,1.4689162611699906
0.3958322127288693,1.3973247683950643
0.6165160894404329,1.3243295208598451
0.713065285501742,1.251334273324626
0.6854798009127965,1.1551770722445778
0.6181387650044885,1.055510484263798
0.5775718759030981,0.9530363867624327
0.586496591505404,0.8603885725831162
0.6181387650044885,0.76002010722219
0.649780938503573,0.6645647835222882
0.6684417074902126,0.5648981955415083
0.6814231120026575,0.46944287184160644
0.6700643830542682,0.3655650195799485
0.6181387650044885,0.2743209601609247
0.5199668933791238,0.18448065550219356
0.3958322127288693,0.10306287940521845
0.23518733188736343,0.012520697366340958
0.01450345517579982,-0.06749332397034148
-0.2532380128933766,-0.1454017131665849
-0.4933939963736076,-0.21418569642092594
-0.6548502149971412,-0.293497840377462
-0.7473427221483113,-0.3608780688715104
-0.8268538247870364,-0.41843201404351005
-0.9063649274257616,-0.4584390247118513
-0.9996687723589595,-0.5075704413220948
-1.0962179684202684,-0.5559999805521921
-1.1668043554566878,-0.6100445388234601
-1.127860141919353,-0.6542628137726794
-0.9517998432193188,-0.7040961077630693
-0.7157005486492268,-0.7518237696130202
-0.550998978897582,-0.7981476767026785
-0.5250361698726921,-0.8248190171482392
-0.6004905836012782,-0.8486828480732147
-0.7157005486492268,-0.8739504337584829
-0.8617413494142322,-0.9146593218069704
-1.0329336214220994,-0.9469456812937019
-1.153011613162215,-0.9673001253179457
-1.064575794921184,-0.9715113895988238
-0.65160486386903,-0.9827414276811651
0.0785991399559966,-0.9960770979039455
1.0027128736856692,-1.0129221550274576
1.951978078658204,-1.0206428062090673
2.7154469315463707,-1.0262578252502381
3.0626995022542722,-1.0206428062090673
2.830656896594319,-1.0122202776473113
2.0469045991554573,-0.9960770979039455
0.936183175559389,-0.9855489372017505
-0.2078030970998194,-0.9715113895988238
-1.16599301767466,-0.9609832288966287
-1.8264219722452952,-0.9469456812937019
-2.1363530049799175,-0.9392250301120922
-2.0811820358020268,-0.9223799729885801
-1.7371748162222362,-0.9027274063444827
-1.2868823471968032,-0.8739504337584829
-0.9363844253607905,-0.8571053766349708
-0.7789848956473958,-0.8493847254533611
-0.7587014510967006,-0.8542978671143854
-0.7473427221483113,-0.8493847254533611
-0.6662089439455305,-0.8402603195114586
-0.5250361698726921,-0.8248190171482392
-0.3887314224920205,-0.8248190171482392
-0.3027296175970729,-0.8248190171482392
-0.2848801863924611,-0.824117139768093
-0.3027296175970729,-0.8002533088431175
-0.33274911553210174,-0.7693707041166786
-0.33437179109615733,-0.7272580613078984
-0.3132770087634344,-0.6949717018211669
-0.2710874440979884,-0.6542628137726794
-0.23619991947079266,-0.6002182555014114
-0.2078030970998194,-0.5075704413220948
-0.17859493694681833,-0.3987794473994126
-0.1437074123196226,-0.28788282133629134
-0.12017861664081621,-0.19523500715697484
-0.11206523882053814,-0.09205903227546328
-0.09421580761592638,0.02164510330824334
-0.01713871832328467,0.15219429601546205
0.12890208244172066,0.27712846968151006
0.30090569223161584,0.4210133326115092
0.4420784663044543,0.574724478863557
0.5548544180063195,0.7382619084376536
0.6846684631307687,0.8842524035080916
0.8720874907791922,1.030944775958676
1.0846579896704778,1.1706183746077972
1.2534162483322617,1.2997638125547233
1.3394180532272093,1.3994304005355032
1.3799849423285997,1.4955876016155514
1.4302878848143237,1.5861297836544288
1.5073649741069655,1.6661438049911113
1.5706493211051344,1.7089583251800378
1.5706493211051344,1.7398409299064768
1.4724774494797697,1.7651085155917448
1.3167005953304307,1.7882704691365738
1.2055473191926211,1.781953572715257
1.2217740748331771,1.7637047608314522
1.285058421831346,1.7377352977660376
1.2217740748331771,1.715275221601355
0.9580892956741398,1.6703550692719893
0.649780938503573,1.617714265761014
0.4931927465722062,1.5601603205890144
0.523212244507235,1.5194514325405268
0.5954213071077099,1.4738294028310148
0.586496591505404,1.4218904767001859
0.48589070653395594,1.348895229164967
0.3641900392297848,1.2751981042496014
0.2741315454246982,1.1965878376732118
0.23681000745141906,1.1292076091791634
0.24816873639980835,1.0548086068836515
0.30090569223161584,0.9825152367285789
0.36094468810167357,0.8968861963507258
0.3958322127288693,0.8112571559728726
0.38122813265236877,0.7129943227523854
0.33254786573070033,0.6161352442921909
0.2660181676044201,0.5129592694106794
0.20516783395233457,0.4210133326115092
0.1759596737993335,0.32275049939102196
0.20516783395233457,0.2251895435506811
0.24979141196386395,0.11288916272726716
0.20516783395233457,0.005501923564877586
-0.004157313810839751,-0.10118343821736565
-0.33437179109615733,-0.18961998811580413
-0.6783790106759477,-0.2794602927745353
-0.9380071009248461,-0.3608780688715104
-1.0783685372156568,-0.44299772234863183
-1.0962179684202684,-0.5075704413220948
-1.0661984704852396,-0.5700375281551189
-1.064575794921184,-0.6296971054675575
-1.1229921152271862,-0.6977792113417522
-1.1603136532004652,-0.7518237696130202
-1.1002746573304076,-0.7953401671820931
-0.9696492744239306,-0.8248190171482392
-0.8731000783626215,-0.8634222730562878
-0.8739114161446493,-0.8985161420636046
-0.929893723104568,-0.9308025015503362
-0.9696492744239306,-0.9469456812937019
-0.9980460967949039,-0.9623869836569213
-1.064575794921184,-0.9715113895988238
-1.1457095731239648,-0.9855489372017505
-1.0962179684202684,-0.9960770979039455
-0.7660034911349509,-1.0122202776473113
-0.11206523882053814,-1.0206428062090673
0.7812176591920778,-1.0248540704899454
1.7613136998816692,-1.0206428062090673
2.6026709798445054,-1.0213446835892137
3.0310573287551876,-1.0206428062090673
2.848506327798931,-1.0234503157296526
2.078546772654542,-1.0206428062090673
0.974316051314696,-1.02204656096936
-0.1437074123196226,-1.0206428062090673
-1.0459150259345444,-1.024152193109799
-1.6365689312507883,-1.0206428062090673
-1.9059330748840202,-1.0143259097877504
-1.890517657025492,-0.9960770979039455
-1.6730791314420395,-0.9820395503010187
-1.3826202054760846,-0.9715113895988238
-1.1424642219958536,-0.974318899119409
-1.001291447923015,-0.9715113895988238
-0.9152896430280675,-0.9644926157973603
-0.8106270691464803,-0.9469456812937019
-0.6678316195095862,-0.9364175205915068
-0.5250361698726921,-0.9223799729885801
-0.4406570405418001,-0.9069386706253607
-0.4301096493754386,-0.8739504337584829
-0.47554456516899585,-0.8458753385526294
-0.5250361698726921,-0.8248190171482392
-0.5428856010773039,-0.8135889790658979
-0.4933939963736076,-0.776389477918142
-0.41144888038879907,-0.7202392875064351
-0.33437179109615733,-0.6542628137726794
-0.2962389153408504,-0.6009201328815577
-0.2710874440979884,-0.5321361496272167
-0.24674731063715416,-0.4444014771089245
-0.2394452705989039,-0.3363123605663886
-0.2613513907136547,-0.24085703686648674
-0.2710874440979884,-0.14119044888570687
-0.2167278127021253,-0.03871635138434165
-0.08042306532145364,0.07849717110009664
0.10699596232696987,0.1929031840639496
0.30090569223161584,0.32275049939102196
0.43315375070214845,0.46242409804014306
0.45911655972703824,0.6161352442921909
0.41530431949753666,0.76002010722219
0.4274743862279538,0.9088181118132135
0.5970439826717655,1.055510484263798
0.9037296642782767,1.2022028567143823
1.2323214659995387,1.3208201339591135
1.4757228006078809,1.4218904767001859
1.5852534011816348,1.5068176396978927
1.5706493211051344,1.5931485574558921
1.4862701917742425,1.6619325407102332
1.411627115827684,1.715275221601355
1.3848529690207665,1.742648439427062
1.3799849423285997,1.7637047608314522
1.3337386887530147,1.7700216572527692
1.2217740748331771,1.7637047608314522
1.049770465043282,1.7307165239645743
0.8404453172801077,1.690709513296233
0.6043460227100158,1.640876219305843
0.3641900392297848,1.5931485574558921
0.14675151364633243,1.5313833480030146
-0.01713871832328467,1.4710218933104295
-0.12098995442284402,1.4064491743369665
-0.1753495858187071,1.348895229164967
-0.205369083753736,1.2773037363900406
-0.2394452705989039,1.2022028567143823
-0.3132770087634344,1.1144681841960902
-0.4301096493754386,1.030944775958676
-0.5274701832187755,0.9425082260602377
-0.4933939963736076,0.8603885725831162
-0.27027610631596055,0.7712501453045314
0.0785991399559966,0.6891304918274099
0.3869074971265634,0.6006939419289715
0.523212244507235,0.51857428845185
0.4631732486371773,0.4301377385534116
0.30090569223161584,0.3473162076961438
0.14269482473619338,0.25747590303741263
0.046956966456912115,0.17676000432058386
-0.007402664938950981,0.09604410560375508
-0.08042306532145364,0.030067631869999386
-0.2288978794325424,-0.041523860904927004
-0.4617518228745231,-0.11662474058058508
-0.7367953309819498,-0.20716692261946257
-0.9696492744239306,-0.28788282133629134
-1.1035200084585188,-0.3580705593509251
-1.127860141919353,-0.41000948548175403
-1.0986519817663518,-0.4696690627941927
-1.064575794921184,-0.5321361496272167
-1.0637644571391562,-0.6002182555014114
-1.0962179684202684,-0.6542628137726794
-1.1457095731239648,-0.7047979851432156
-1.1919558266995498,-0.7518237696130202
-1.2325227158009402,-0.8135889790658979
-1.2868823471968032,-0.8739504337584829
-1.385054218822168,-0.9322062563106288
-1.540831072971507,-0.9715113895988238
-1.7347408028761528,-1.0023939943252627
-1.890517657025492,-1.0206428062090673
-1.8888949814614364,-1.0438047597538964
-1.6049267577517037,-1.0690723454391646
-0.9818193411543477,-1.1020605823060425
-0.08042306532145364,-1.1182037620494083
0.9199564199188329,-1.1231169037104325
1.7929558733807536,-1.1182037620494083
2.3527789429799406,-1.12171314895014
2.491517703706696,-1.1182037620494083
2.178341319843962,-1.1097812334876522
1.4757228006078809,-1.0936380537442865
0.565401809172681,-1.084513647802384
-0.3027296175970729,-1.0690723454391646
-0.9453091409630964,-1.0487179014149208
-1.3185245206958878,-1.0206428062090673
-1.4669993348069765,-1.005201503845848
-1.4459045524742535,-0.9960770979039455
-1.313656494003721,-0.9904620788627748
-1.1603136532004652,-0.9715113895988238
-1.0629531193571284,-0.949051313434141
-1.0329336214220994,-0.9223799729885801
-1.022386230255738,-0.9083424253856534
-1.001291447923015,-0.8985161420636046
-0.9948007456667926,-0.8999198968238974
-1.0329336214220994,-0.8985161420636046
-1.0824252261257958,-0.8943048777827266
-1.064575794921184,-0.8739504337584829
-0.9534225187833744,-0.8514903575938001
-0.7789848956473958,-0.8248190171482392
-0.5988679080372226,-0.8072720826445808
-0.4301096493754386,-0.776389477918142
-0.33193777775007394,-0.7363824672498008
-0.3660139645952418,-0.6781266446976548
-0.5217908187445809,-0.6226783316660942
-0.65160486386903,-0.5559999805521921
-0.6353781082284738,-0.48230285563682673
-0.4933939963736076,-0.3854437771766322
-0.3368058044422408,-0.28858469871643766
-0.2078030970998194,-0.18961998811580413
-0.07636637641131461,-0.10118343821736565
0.0785991399559966,0.005501923564877586
0.2319419807592522,0.12762858771034025
0.3641900392297848,0.2743209601609247
0.46966395089339974,0.4189077004710702
0.5548544180063195,0.5670038276819473
0.6367995339911281,0.7087830584715075
0.7447074590008265,0.8603885725831162
0.8712761529971644,1.0070809450337006
0.9670140112764457,1.1530714401041389
1.012448927070003,1.2794093685304795
1.0311096960566424,1.3973247683950643
1.0140716026340586,1.4976932337559903
0.9353718377773612,1.5931485574558921
0.8526153840105248,1.6710569466521357
0.9037296642782767,1.7398409299064768
1.0984507319649506,1.7833573274755496
1.2534162483322617,1.8128361774416957
1.1990566169363985,1.8233643381438909
0.9670140112764457,1.8374018857468175
0.6814231120026575,1.8416131500276955
0.4274743862279538,1.8374018857468175
0.29035830106525434,1.805115526260086
0.3641900392297848,1.7637047608314522
0.5580997691344308,1.7131695894609158
0.586496591505404,1.6661438049911113
0.2838675988090319,1.6064842276786726
-0.1437074123196226,1.5440171408456487
-0.3684479779413253,1.4710218933104295
-0.3027296175970729,1.3973247683950643
-0.12261262998689963,1.3046769542157477
0.01450345517579982,1.2022028567143823
0.0996939222887196,1.086393088990237
0.17352566045325007,0.9825152367285789
0.22707395406708536,0.88074301660736
0.23681000745141906,0.7866914476677508
0.2084131850804458,0.6779004537450686
0.17352566045325007,0.5670038276819473
0.13620412247997093,0.449790305197509
0.0785991399559966,0.3473162076961438
-0.018761393887340286,0.2455439875749249
-0.1437074123196226,0.15219429601546205
-0.30029560425098945,0.04972019851409683
-0.4933939963736076,-0.043629493045366015
-0.689737739624337,-0.1362773072246825
-0.8106270691464803,-0.21418569642092594
-0.8406465670815092,-0.2927959629973157
-0.8739114161446493,-0.3608780688715104
-1.030499608076016,-0.42896017474570514
-1.2868823471968032,-0.48300473301697305
-1.519736290638784,-0.5363474139080947
-1.6049267577517037,-0.580565688857314
-1.5310950195871733,-0.6318027376079965
-1.3826202054760846,-0.6781266446976548
-1.2893163605428866,-0.73076744820863
-1.3185245206958878,-0.776389477918142
-1.389110907732307,-0.8262227719085319
-1.3501666941949722,-0.8739504337584829
-1.1773517466230492,-0.9279949920297508
-1.0329336214220994,-0.9715113895988238
-1.081613888343768,-1.0122202776473113
-1.2868823471968032,-1.0445066371340428
-1.448338565820337,-1.0838117704222376
-1.3826202054760846,-1.1182037620494083
-1.0150841902174879,-1.1504901215361396
-0.3660139645952418,-1.1666333012795054
0.46966395089339974,-1.1813727262625786
1.3167005953304307,-1.1911990095846272
1.9527894164402317,-1.207342189327993
2.174284630933823,-1.215764717889749
1.8700329626733954,-1.2213797369309198
1.0943940430548114,-1.215764717889749
0.08590117999424687,-1.209447821468432
-0.8422692426455648,-1.1911990095846272
-1.4840374282295605,-1.1708445655603834
-1.8264219722452952,-1.14276947035453
-1.9464999639854106,-1.1196075168097008
-1.890517657025492,-1.0936380537442865
-1.6884945493005679,-1.0711779775796035
-1.4459045524742535,-1.0445066371340428
-1.3282605740802214,-1.0234503157296526
-1.414262378975169,-0.9960770979039455
-1.5887000021111475,-0.97221326697897
-1.6365689312507883,-0.9469456812937019
-1.460508632550754,-0.9350137658312142
-1.1603136532004652,-0.9223799729885801
-0.9023082385156226,-0.913957444426824
-0.7473427221483113,-0.8985161420636046
-0.6597182416893081,-0.8886898587415559
-0.5883205168708611,-0.8739504337584829
-0.533960885474998,-0.8578072540151171
-0.4933939963736076,-0.8248190171482392
-0.4722992140408846,-0.7918307802813614
-0.4617518228745231,-0.7518237696130202
-0.45688379618235625,-0.713922391085118
-0.4301096493754386,-0.6542628137726794
-0.3716933290694365,-0.578460056716875
-0.3027296175970729,-0.48300473301697305
-0.2386339328168761,-0.3966738152589736
-0.1437074123196226,-0.3117466522612668
0.02099415743202228,-0.2282232440238527
0.23681000745141906,-0.11662474058058508
0.409624955023342,0.00971318784575561
0.45911655972703824,0.15219429601546205
0.3990775638569805,0.2911660172844368
0.33254786573070033,0.44487716353648465
0.3503972969353121,0.6027995740694105
0.4274743862279538,0.7628276167427753
0.430719737356065,0.9003955832514574
0.30090569223161584,1.030944775958676
0.1775823493633891,1.1530714401041389
0.30090569223161584,1.2751981042496014
0.713065285501742,1.3790759565112594
1.189320563552065,1.4710218933104295
1.458684707185297,1.5391039991846243
1.4757228006078809,1.5931485574558921
1.3840416312387387,1.6212236526617456
1.3167005953304307,1.6415780966859894
1.2769450440110681,1.6471931157271602
1.2217740748331771,1.6415780966859894
1.126036216553896,1.6085898598191117
0.999467522557558,1.5685828491507705
0.8461246817543024,1.5264702063419902
0.6814231120026575,1.4955876016155514
0.5240235822892628,1.4520712040464785
0.3958322127288693,1.3973247683950643
0.2984716788855324,1.3229257660995524
0.23681000745141906,1.251334273324626
0.2222059273749185,1.1755315162688216
0.26845218095050355,1.1046419008740416
0.3479632835892287,1.0190128604961883
0.3958322127288693,0.9333838201183353
0.3576993369735623,0.8428416380794578
0.23681000745141906,0.7628276167427753
0.07373111326382976,0.6771985763649222
-0.08042306532145364,0.5915695359870691
-0.17291557247262368,0.4926048253864356
-0.1437074123196226,0.39644762430638736
0.00801275291957736,0.29467540418516847
0.20516783395233457,0.20062383524555932
0.3260571634744779,0.1002553698846331
0.30090569223161584,0.005501923564877586
0.14107214917213778,-0.09486654179604863
-0.08042306532145364,-0.18961998811580413
-0.2954275775588226,-0.2920940856171694
-0.4617518228745231,-0.3854437771766322
-0.5834524901786943,-0.4780915913559487
-0.6840583751501423,-0.5559999805521921
-0.7862869356856461,-0.6346102471285819
-0.8739114161446493,-0.7026923530027765
-0.9380071009248461,-0.7707744588769713
-0.9696492744239306,-0.8248190171482392
-0.993178070102737,-0.8774598206592146
-1.0329336214220994,-0.9223799729885801
-1.1140673996248802,-0.9750207764995554
-1.2235980001986342,-1.0206428062090673
-1.2998637517092482,-1.0641592037781402
-1.2868823471968032,-1.0936380537442865
-1.2089939201221338,-1.12171314895014
-1.1603136532004652,-1.14276947035453
-1.1878991377894108,-1.1624220369986273
-1.2235980001986342,-1.1666333012795054
-1.1578796398543818,-1.1687389334199445
-0.9380071009248461,-1.1666333012795054
-0.5793958012685552,-1.1715464429405298
-0.08042306532145364,-1.1666333012795054
0.5727038492109313,-1.1575088953376031
1.3167005953304307,-1.14276947035453
1.943053363055898,-1.1343469417927738
2.174284630933823,-1.1182037620494083
1.8367681136102552,-1.0964455632648717
0.999467522557558,-1.0690723454391646
-0.04878089182236916,-1.0550347978362378
-0.9696492744239306,-1.0445066371340428
-1.5659825442143689,-1.0374878633325795
-1.8264219722452952,-1.0206428062090673
-1.8304786611554342,-1.0080090133664332
-1.6682111047498727,-0.9960770979039455
-1.4345458235258641,-0.9876545693421894
-1.2235980001986342,-0.9715113895988238
-1.0694438216133508,-0.9588775967561897
-0.9380071009248461,-0.9469456812937019
-0.8081930558003969,-0.9413306622525313
-0.7157005486492268,-0.9223799729885801
-0.6881150640602813,-0.8999198968238974
-0.6840583751501423,-0.8739504337584829
-0.6621522550353915,-0.8627203956761414
-0.65160486386903,-0.8493847254533611
-0.7303046287257273,-0.8318377909497027
-0.8739114161446493,-0.8002533088431175
-0.9785739900262365,-0.7770913552982883
-0.9380071009248461,-0.7518237696130202
-0.8008910157621466,-0.7258543065476057
-0.6840583751501423,-0.6781266446976548
-0.6580955661252526,-0.6233802090462405
-0.65160486386903,-0.5559999805521921
-0.5477536277694707,-0.4907253841985828
-0.3027296175970729,-0.41000948548175403
0.012880779611744204,-0.32718795462448624
0.30090569223161584,-0.23875140472604775
0.5094195022127623,-0.16014113814965797
0.649780938503573,-0.06749332397034148
0.7414621078727153,0.03989391519204811
0.8088031437810232,0.17676000432058386
0.8818235441635259,0.31222233868882693
0.999467522557558,0.44487716353648465
1.1584897278350081,0.5620906860209229
1.3167005953304307,0.6891304918274099
1.417306480301879,0.8203815619147751
1.4432692893267687,0.9579495284234572
1.4018910624433505,1.0751630509078953
1.3167005953304307,1.1776371484092607
1.2209627370511493,1.2618624340268212
1.1576783900529803,1.348895229164967
1.1292815676820072,1.426101740981064
1.0943940430548114,1.4955876016155514
1.0108262515059474,1.5377002444243315
0.9037296642782767,1.5685828491507705
0.8201618727294125,1.5826203967536971
0.7771609702819388,1.5931485574558921
0.7455187967828543,1.5847260288941363
0.713065285501742,1.5685828491507705
0.696027192079158,1.5341908575235998
0.713065285501742,1.4955876016155514
0.7236126766681035,1.4443505528648688
0.649780938503573,1.3973247683950643
0.44451247965053775,1.3397708232230645
0.17352566045325007,1.2751981042496014
-0.01389336719517344,1.1972897150533581
0.01450345517579982,1.1292076091791634
0.25790478978414205,1.0583179937843834
0.586496591505404,0.9825152367285789
0.8290865883317184,0.882848648747799
0.9037296642782767,0.7866914476677508
0.8436906684082189,0.6968511430090196
0.7447074590008265,0.6161352442921909
0.6603283296699345,0.5178724110717037
0.586496591505404,0.4210133326115092
0.49806077326437304,0.3262598862917537
0.3958322127288693,0.2497552518558029
0.27899957211686505,0.16552996623824245
0.14188348695416558,0.07849717110009664
-0.009836678285034404,-0.014150643079219854
-0.1437074123196226,-0.09205903227546328
-0.2532380128933766,-0.16856366671141404
-0.3660139645952418,-0.23875140472604775
-0.5193568053984975,-0.31665979392229116
-0.6840583751501423,-0.3854437771766322
-0.8195517847487862,-0.4514202509103879
-0.9063649274257616,-0.5075704413220948
-0.984253354500431,-0.5707394055352653
-1.064575794921184,-0.6296971054675575
-1.1173127507529914,-0.6865491732594109
-1.0962179684202684,-0.7272580613078984
-1.0313109458580438,-0.7728800910174103
-1.001291447923015,-0.8248190171482392
-1.0580850926649616,-0.8921992456422876
-1.1603136532004652,-0.9469456812937019
-1.2260320135447176,-0.9904620788627748
-1.2235980001986342,-1.0206428062090673
-1.1919558266995498,-1.0585441847369694
-1.1603136532004652,-1.0936380537442865
-1.081613888343768,-1.125924413231018
-0.8422692426455648,-1.14276947035453
-0.34167383113440764,-1.1582107727177493
0.4274743862279538,-1.1666333012795054
1.3394180532272093,-1.173652075080969
2.174284630933823,-1.1666333012795054
2.6975975003417587,-1.1645276691390665
2.7454664294813993,-1.1666333012795054
2.27164516477716,-1.1764595846015542
1.3799849423285997,-1.1666333012795054
0.30090569223161584,-1.144875102494969
-0.6840583751501423,-1.1182037620494083
-1.3517893697590277,-1.1069737239670667
-1.6365689312507883,-1.0936380537442865
-1.62845555343051,-1.073985487100189
-1.477546725973338,-1.0445066371340428
-1.2828256582866642,-1.0234503157296526
-1.0962179684202684,-0.9960770979039455
-0.9980460967949039,-0.963790738417214
-1.064575794921184,-0.9223799729885801
-1.2479381336594684,-0.8957086325430194
-1.3501666941949722,-0.8739504337584829
-1.2276546891087734,-0.8549997444945318
-0.9380071009248461,-0.8248190171482392
-0.6710769706376974,-0.8002533088431175
-0.5250361698726921,-0.776389477918142
-0.46661984956668995,-0.7588425434144835
-0.3976561380943263,-0.7272580613078984
-0.2865028619565167,-0.6935679470608742
-0.1437074123196226,-0.6542628137726794
-0.046346878476285734,-0.6233802090462405
-0.04878089182236916,-0.580565688857314
-0.14614142566570604,-0.528626762726485
-0.2394452705989039,-0.4584390247118513
-0.24269062172701514,-0.39035691883765655
-0.1437074123196226,-0.3117466522612668
-0.00010062490070071439,-0.23313638568487705
0.14188348695416558,-0.14119044888570687
0.26115014091225325,-0.05064826684682939
0.3641900392297848,0.054633340175121184
0.46479592420123295,0.16693372099853512
0.586496591505404,0.2988866684660465
0.7284807033602704,0.42803210641297257
0.8720874907791922,0.5670038276819473
0.995410833647419,0.7066774263310684
1.0943940430548114,0.8603885725831162
1.160112403399064,1.00146592599253
1.1576783900529803,1.1292076091791634
1.0400344116589484,1.2351910935812602
0.8404453172801077,1.348895229164967
0.7041405698994361,1.4548787135670638
0.8088031437810232,1.5440171408456487
1.1698484567833976,1.5959560669764776
1.6022914946042188,1.6415780966859894
1.8456928292125612,1.6829888621146234
1.7929558733807536,1.715275221601355
1.5414411609521332,1.7096602025601841
1.285058421831346,1.690709513296233
1.139017621066341,1.6654419276109649
1.0943940430548114,1.6415780966859894
1.0530158161713932,1.5952541895963313
0.9353718377773612,1.5440171408456487
0.7374054189625762,1.492780092094966
0.523212244507235,1.4464561850053077
0.3495859591532843,1.378374079131113
0.23681000745141906,1.2997638125547233
0.16865763376108323,1.2106253852761384
0.14188348695416558,1.1292076091791634
0.15405355368458268,1.0407710592807249
0.20516783395233457,0.9579495284234572
0.27899957211686505,0.8695129785250186
0.3641900392297848,0.7866914476677508
0.4388331151763431,0.6968511430090196
0.49075873322612273,0.6161352442921909
0.5175328800330404,0.5305062039143378
0.523212244507235,0.44487716353648465
0.472909302021511,0.3438068207954121
0.33254786573070033,0.2497552518558029
0.10212793563480302,0.15851119243677908
-0.1437074123196226,0.07849717110009664
-0.3368058044422408,-0.010641256178488169
-0.4617518228745231,-0.09205903227546328
-0.5542443300256932,-0.1720730536121457
-0.6199626903699456,-0.23875140472604775
-0.6386234593565852,-0.3138522844017058
-0.5883205168708611,-0.3854437771766322
-0.5217908187445809,-0.45563151519126593
-0.4933939963736076,-0.5075704413220948
-0.5388289121671648,-0.5581056126926311
-0.6199626903699456,-0.6051313971624357
-0.7051531574828653,-0.6591759554337037
-0.7789848956473958,-0.7026923530027765
-0.841457904863537,-0.7441031184314105
-0.8739114161446493,-0.776389477918142
-0.8739114161446493,-0.8156946112063369
-0.8739114161446493,-0.8493847254533611
-0.9152896430280675,-0.8809692075599462
-1.001291447923015,-0.8985161420636046
-1.1083880351506856,-0.9153611991871168
-1.1919558266995498,-0.9223799729885801
-1.187087800007383,-0.9279949920297508
-1.001291447923015,-0.9223799729885801
-0.5615463700639435,-0.9223799729885801
0.14188348695416558,-0.9223799729885801
1.0319210338386704,-0.9279949920297508
1.951978078658204,-0.9223799729885801
2.6610873001505073,-0.9132555670466778
2.9044886347588497,-0.8985161420636046
2.541009308410392,-0.8957086325430194
1.6655758416023878,-0.8985161420636046
0.5808172270312094,-0.9048330384849217
-0.3976561380943263,-0.8985161420636046
-1.1246147907912418,-0.8879879813614096
-1.6049267577517037,-0.8739504337584829
-1.8361580256296288,-0.8725466789981902
-1.7631376252471263,-0.8739504337584829
-1.4199417434493637,-0.8781616980393608
-1.001291447923015,-0.8739504337584829
-0.71083252195706,-0.8739504337584829
-0.5883205168708611,-0.8739504337584829
-0.5566783433717766,-0.8795654527996536
-0.5566783433717766,-0.8739504337584829
-0.5769617879224718,-0.8648260278165805
-0.5883205168708611,-0.8493847254533611
-0.5737164367943606,-0.8416640742717514
-0.5566783433717766,-0.8248190171482392
-0.580207139050583,-0.8051664505041418
-0.6199626903699456,-0.776389477918142
-0.6507935260870022,-0.7560350338938983
-0.65160486386903,-0.7272580613078984
-0.639434797138613,-0.6907604375402888
-0.5883205168708611,-0.6296971054675575
-0.5217908187445809,-0.5623168769735092
-0.4933939963736076,-0.48300473301697305
-0.5315268721289146,-0.4050963438207296
-0.5566783433717766,-0.3117466522612668
-0.4601291473104675,-0.21839696070180398
-0.2078030970998194,-0.11662474058058508
0.12727940687766504,-0.023976926401268573
0.4274743862279538,0.07849717110009664
0.5775718759030981,0.18799004240292524
0.5548544180063195,0.32275049939102196
0.472909302021511,0.4659334849408748
0.523212244507235,0.6161352442921909
0.7706702680257163,0.751597578660434
1.0943940430548114,0.884954280888238
1.3296819998428755,1.005677190273408
1.4432692893267687,1.1292076091791634
1.4984402585046595,1.2401042352422846
1.5390071476060498,1.348895229164967
1.5609132677208006,1.438735533823698
1.5706493211051344,1.5194514325405268
1.5779513611433846,1.5819185193735508
1.5706493211051344,1.6415780966859894
1.521969054183466,1.6850944942550623
1.4432692893267687,1.715275221601355
1.3548334710857377,1.7187846085020866
1.2534162483322617,1.715275221601355
1.1138661498234788,1.7019395513785744
0.9353718377773612,1.690709513296233
0.7309147167063538,1.6661438049911113
0.523212244507235,1.6415780966859894
0.31469843452608853,1.607186105058819
0.11024131345508109,1.5685828491507705
-0.09502714539795418,1.509625149218478
-0.2710874440979884,1.4464561850053077
-0.35222122230076913,1.372057182709796
-0.2710874440979884,1.2997638125547233
-0.04796955404034135,1.2141347721768703
0.20516783395233457,1.1292076091791634
0.367435390357896,1.0393673045204321
0.4274743862279538,0.9579495284234572
0.45830522194501044,0.863897959483848
0.523212244507235,0.7628276167427753
0.5808172270312094,0.6463159716384834
0.5548544180063195,0.5424381193768255
0.4282857240099816,0.44136777663575294
0.30090569223161584,0.3473162076961438
0.2765655587707816,0.2434383554344859
0.3641900392297848,0.15219429601546205
0.44613515521459335,0.06375774611702358
0.3958322127288693,-0.019063784740244213
0.1759596737993335,-0.11943225010117042
-0.1437074123196226,-0.21418569642092594
-0.4722992140408846,-0.29981473679877907
-0.7473427221483113,-0.3608780688715104
-0.9672152610778472,-0.4233451557045344
-1.127860141919353,-0.48300473301697305
-1.2309000402368846,-0.5489812067507288
-1.2552401736977188,-0.6051313971624357
-1.2154846223783562,-0.6605797101939964
-1.127860141919353,-0.7026923530027765
-1.0199522169096547,-0.7441031184314105
-0.9063649274257616,-0.776389477918142
-0.8195517847487862,-0.8142908564460442
-0.8106270691464803,-0.8493847254533611
-0.9177236563741509,-0.8900936135018486
-1.127860141919353,-0.9223799729885801
-1.372072814309723,-0.9539644550951653
-1.540831072971507,-0.9715113895988238
-1.5278496684590621,-0.9869526919620432
-1.2552401736977188,-0.9960770979039455
-0.7083985086109765,-1.0115184002671649
0.0785991399559966,-1.0206428062090673
1.0270530071465034,-1.0262578252502381
2.0152624256563727,-1.0206428062090673
2.8476949900169033,-1.019940928828921
3.2850060545298914,-1.0206428062090673
3.15600334718747,-1.0262578252502381
2.4598755302076114,-1.0206428062090673
1.382418955674683,-1.0101146455068724
0.20516783395233457,-0.9960770979039455
-0.8122497447105359,-0.9883564467223358
-1.5091888994724225,-0.9715113895988238
-1.8499507679241016,-0.9497531908142873
-1.890517657025492,-0.9223799729885801
-1.7225707361457359,-0.9097461801459461
-1.4459045524742535,-0.8985161420636046
-1.1749177332769658,-0.8893917361217023
-1.001291447923015,-0.8739504337584829
-0.9436864653990407,-0.8641241504364341
-0.9380071009248461,-0.8493847254533611
-0.9242143586303734,-0.8381546873710196
-0.9063649274257616,-0.8248190171482392
-0.9177236563741509,-0.8255208945283856
-0.9380071009248461,-0.8248190171482392
-0.8990628873875113,-0.822011507627654
-0.7473427221483113,-0.8002533088431175
-0.5315268721289146,-0.7791969874387273
-0.33437179109615733,-0.7518237696130202
-0.23376590612470924,-0.7258543065476057
-0.2078030970998194,-0.6781266446976548
-0.2069917593177916,-0.6219764542859478
-0.1753495858187071,-0.5559999805521921
-0.10070650987214882,-0.5005516675206315
0.01450345517579982,-0.4338733164067295
0.14675151364633243,-0.3594743141112177
0.26845218095050355,-0.26331711303116956
0.36094468810167357,-0.162246770290097
0.4274743862279538,-0.043629493045366015
0.47696599093165004,0.08200655800082833
0.523212244507235,0.2251895435506811
0.5743265247749869,0.36767065172038754
0.649780938503573,0.51857428845185
0.7471414723469099,0.6638629061421418
0.8404453172801077,0.8112571559728726
0.8923709353298874,0.9460176129609693
0.9037296642782767,1.0800761925689197
0.9134657176626104,1.2043084888548214
0.9670140112764457,1.3243295208598451
1.0684312340299216,1.4190829671796006
1.189320563552065,1.4955876016155514
1.3045305286000135,1.546824650366234
1.411627115827684,1.5931485574558921
1.4935722318124927,1.6233292848021847
1.5073649741069655,1.6415780966859894
1.4181178180839067,1.6352612002646725
1.2534162483322617,1.617714265761014
1.066808558465866,1.5833222741338435
0.9037296642782767,1.5440171408456487
0.7666135791155773,1.492780092094966
0.649780938503573,1.4464561850053077
0.5353823112376521,1.3973247683950643
0.4274743862279538,1.348895229164967
0.3568879991915345,1.2794093685304795
0.3641900392297848,1.2022028567143823
0.42422903509984256,1.113766306815944
0.45911655972703824,1.030944775958676
0.41449298171550886,0.9425082260602377
0.33254786573070033,0.8603885725831162
0.27818823433483725,0.7719520226846778
0.26845218095050355,0.6891304918274099
0.2635841542583367,0.5999920645488251
0.23681000745141906,0.51857428845185
0.19137509165786182,0.4315414933137042
0.14188348695416558,0.3473162076961438
0.08995786890438591,0.2553702708969736
0.046956966456912115,0.17676000432058386
0.013692117393772012,0.1002553698846331
-0.01713871832328467,0.030067631869999386
-0.074743700847259,-0.055561408507853745
-0.1753495858187071,-0.14119044888570687
-0.3132770087634344,-0.23103075354443803
-0.4617518228745231,-0.3117466522612668
-0.6004905836012782,-0.3931644283582419
-0.7157005486492268,-0.4584390247118513
-0.8090043935824247,-0.5209061115448753
-0.8739114161446493,-0.580565688857314
-0.925837034194429,-0.6563684459131184
-0.9696492744239306,-0.7272580613078984
-1.0321222836400716,-0.7939364124218005
-1.0962179684202684,-0.8493847254533611
-1.1262374663552974,-0.9125536896665314
-1.0962179684202684,-0.9715113895988238
-1.0426696748064332,-1.0276615800105307
-1.0329336214220994,-1.0690723454391646
-1.1010859951124354,-1.1097812334876522
-1.2235980001986342,-1.14276947035453
-1.3582800720152504,-1.173652075080969
-1.477546725973338,-1.1911990095846272
-1.557057828612063,-1.2080440667081394
-1.5091888994724225,-1.215764717889749
-1.1943898400456332,-1.222081614311066
-0.5566783433717766,-1.215764717889749
0.2562821142200864,-1.2066403119478466
1.0311096960566424,-1.1911990095846272
1.7207468107802788,-1.1806708488824322
2.3641376719283302,-1.1666333012795054
2.7584478339938445,-1.1568070179574568
2.491517703706696,-1.14276947035453
1.4700434361336863,-1.1329431870324813
0.17352566045325007,-1.1182037620494083
-0.8000796779801188,-1.1069737239670667
-1.2868823471968032,-1.0936380537442865
-1.4767353881913101,-1.0852155251825304
-1.5091888994724225,-1.0690723454391646
-1.3907335832963625,-1.0557366752163841
-1.1919558266995498,-1.0445066371340428
-1.0499717148446834,-1.047314146654628
-1.001291447923015,-1.0445066371340428
-0.9785739900262365,-1.0360841085722867
-0.9380071009248461,-1.0206428062090673
-0.8917608473492611,-1.017835296688482
-0.8422692426455648,-1.0206428062090673
-0.7919663001598407,-1.0269597026303843
-0.7789848956473958,-1.0206428062090673
-0.8552506471580097,-1.0129221550274576
-1.001291447923015,-0.9960770979039455
-1.1424642219958536,-0.9792320407804335
-1.1603136532004652,-0.9469456812937019
-0.9915553945386814,-0.9069386706253607
-0.6840583751501423,-0.8493847254533611
-0.4617518228745231,-0.7911289029012151
-0.5250361698726921,-0.7272580613078984
-0.8325331892612311,-0.6711078708961914
-1.064575794921184,-0.6051313971624357
-0.9363844253607905,-0.5321361496272167
-0.4617518228745231,-0.4338733164067295
0.08508984221221906,-0.32929358676492526
0.45911655972703824,-0.21418569642092594
0.6148934138763773,-0.101885315597512
0.649780938503573,0.030067631869999386
0.6578943163238511,0.17184686265955948
0.6814231120026575,0.32275049939102196
0.730103378924326,0.458212833759265
0.8088031437810232,0.5915695359870691
0.9069750154063879,0.7214168513141415
0.999467522557558,0.8603885725831162
1.0692425718119494,0.9867265010094569
1.126036216553896,1.1046419008740416
1.1779618346036755,1.2043084888548214
1.2217740748331771,1.2997638125547233
1.2517935727682061,1.378374079131113
1.285058421831346,1.4464561850053077
1.3183232708944863,1.4962894789956978
1.3167005953304307,1.5440171408456487
1.2233967503972327,1.5763035003323802
1.0311096960566424,1.5931485574558921
0.7941990637045228,1.5826203967536971
0.586496591505404,1.5685828491507705
0.4209836839717313,1.5538434241676973
0.26845218095050355,1.5440171408456487
0.09644857116060837,1.5145382908795024
-0.11206523882053814,1.4710218933104295
-0.39035409805607607,1.409256683857552
-0.7157005486492268,1.348895229164967
-0.9185349941561787,1.2773037363900406
-0.7789848956473958,1.2022028567143823
-0.3059749687251841,1.113766306815944
0.20516783395233457,1.030944775958676
0.46966395089339974,0.9446138582006767
0.49075873322612273,0.8603885725831162
0.44613515521459335,0.7614238619824827
