ECG,PPG
-0.6876967557340428,-0.5635792118707813
-0.4116628972177603,0.6612485126845759
-0.5320443299595835,-0.4961575022622295
-0.5427789800129944,-1.0804789855363448
-0.3763919041851242,-0.4287357926536777
-0.28668090016733233,-0.046679438205217694
-0.2728792072415182,-0.4287357926536777
-0.18163468178752484,-0.6871856794864595
-0.06508705263620558,-0.4287357926536777
-0.08732311346112834,-0.24220239607001784
-0.1693665102979123,-0.36131408304512597
-0.14866397090919112,-0.45570447649709844
-0.06508705263620558,-0.36131408304512597
-0.06968761694481028,-0.3096241056785696
-0.11722678146705894,-0.36131408304512597
-0.05128535971039145,-0.401767108810257
0.1419383412510063,-0.36131408304512597
0.3060251349245742,-0.32310844760027996
0.34973049585631893,-0.2938923734365742
0.32826119574949697,-0.287150202475719
0.34973049585631893,-0.2938923734365742
0.42947361053880057,-0.31861366695970983
0.5053829216307782,-0.2938923734365742
0.49004770726876257,-0.2646762992728684
0.40110346396907154,-0.22647066382802242
0.32596091359519463,-0.23096544446859255
0.34973049585631893,-0.22647066382802242
0.4233395247939943,-0.23546022510916265
0.45324319279992487,-0.22647066382802242
0.3873017710432574,-0.24220239607001784
0.2975907670254656,-0.22647066382802242
0.23394962742310046,-0.20399676062517183
0.19407807008185965,-0.15904895421947066
0.12353608401658746,-0.15904895421947066
0.03842564430740036,-0.15904895421947066
-0.03288310247597262,-0.17253329614118101
-0.06508705263620558,-0.15904895421947066
-0.09192367776973304,-0.16579112518032582
-0.11722678146705894,-0.15904895421947066
-0.13639579941957855,-0.17028590582089595
-0.11722678146705894,-0.15904895421947066
-0.07582170268961656,-0.16579112518032582
-0.013714084523453,-0.15904895421947066
0.08136424452104431,-0.17028590582089595
0.246217798912713,-0.15904895421947066
0.43560769628360685,-0.16579112518032582
0.6088956185743842,-0.15904895421947066
0.7952184730728749,-0.17028590582089595
1.075852895897762,-0.15904895421947066
1.3549537972864476,-0.16579112518032582
1.4385307155594333,-0.15904895421947066
1.296679982710788,-0.17253329614118101
1.179365592841368,-0.15904895421947066
1.2307385609541206,-0.15904895421947066
1.282878289784974,-0.15904895421947066
1.0888878281054755,-0.20174937030488677
0.7124083155179901,-0.22647066382802242
0.3919023353518621,-0.24669717671058794
0.246217798912713,-0.22647066382802242
0.17107524853883613,-0.22871805414830748
0.09056537313825372,-0.22647066382802242
-0.01524760595965457,-0.24220239607001784
-0.11722678146705894,-0.22647066382802242
-0.24527582138989,-0.22871805414830748
-0.3763919041851242,-0.22647066382802242
-0.47683755825632695,-0.24669717671058794
-0.5320443299595835,-0.22647066382802242
-0.5826505373542352,-0.1995019799846017
-0.6355570269031894,-0.15904895421947066
-0.6746618235263294,-0.1612963445397557
-0.6876967557340428,-0.15904895421947066
-0.7183671844580741,-0.17028590582089595
-0.7912094526776488,-0.15904895421947066
-0.9069903211108672,-0.17253329614118101
-0.946861878452108,-0.15904895421947066
-0.7176004237399733,-0.1388224413369051
-0.11722678146705894,-0.09162724461091888
0.638032525862214,-0.08713246397034875
1.3350180186158274,-0.09162724461091888
2.133982686876845,-0.11634853813405452
3.2534533353039907,-0.09162724461091888
4.130627596811288,-0.06241117044721311
3.7204106126273686,-0.024205535002367107
1.8671499569777719,-0.028700315642937225
-0.22073947841066488,-0.024205535002367107
-1.4153526772116876,-0.0354424866037924
-1.8286367042680105,-0.024205535002367107
-2.1338074700721226,-0.0354424866037924
-2.3469669497041408,-0.024205535002367107
-2.1253731021730142,-0.030947705963222282
-1.6208445496626978,-0.024205535002367107
-1.3363763232473067,-0.04218465756464758
-1.31030645883188,-0.024205535002367107
-1.2090940440425764,0.0005157585207685438
-0.946861878452108,0.04321617460618467
-0.7889091705233463,0.040968784285899604
-0.843349181508502,0.04321617460618467
-0.9514624427607127,0.02973183268447431
-0.946861878452108,0.04321617460618467
-0.854083831561913,0.03422661332504443
-0.7398364845648961,0.04321617460618467
-0.6708280199358255,0.03647400364532949
-0.6355570269031894,0.04321617460618467
-0.6087204017696619,0.025237052043904192
-0.5320443299595835,0.04321617460618467
-0.4699367117934199,0.06569007780903525
-0.4799046011287301,0.11063788421473643
-0.526677004932878,0.11063788421473643
-0.4799046011287301,0.11063788421473643
-0.3365203468438834,0.09715354229302609
-0.22073947841066488,0.11063788421473643
-0.20080369974004447,0.10389571325388126
-0.1693665102979123,0.11063788421473643
-0.06048648832760087,0.09940093261331114
0.03842564430740036,0.11063788421473643
0.025390712099687022,0.1016483229335962
-0.013714084523453,0.11063788421473643
0.03229155856259408,0.1016483229335962
0.1419383412510063,0.11063788421473643
0.21094680588007692,0.09715354229302609
0.246217798912713,0.11063788421473643
0.2807220312272483,0.10614310357416631
0.2975907670254656,0.11063788421473643
0.2615530132747287,0.0904113713321709
0.246217798912713,0.11063788421473643
0.2922234419987601,0.1353591777378721
0.34973049585631893,0.1780595938232882
0.338995845802908,0.17356481318271808
0.2975907670254656,0.1780595938232882
0.2431507560403099,0.16907003254214797
0.1419383412510063,0.1780595938232882
-0.01678112739585614,0.16232786158129278
-0.11722678146705894,0.1780595938232882
-0.12106058505756286,0.2005334970261388
-0.11722678146705894,0.24548130343183996
-0.1839349639418272,0.24548130343183996
-0.22073947841066488,0.24548130343183996
-0.1593986209626021,0.22974957118984457
-0.06508705263620558,0.24548130343183996
-0.025982256013065554,0.2387391324709848
0.03842564430740036,0.24548130343183996
0.18794398433705337,0.23199696151012963
0.34973049585631893,0.24548130343183996
0.4133716354586841,0.2387391324709848
0.45324319279992487,0.24548130343183996
0.5751581469779496,0.23199696151012963
0.7645480443488435,0.24548130343183996
0.901798212888884,0.24098652279126986
0.9715734382360554,0.24548130343183996
1.0099114741410946,0.2275021808695595
1.0237131670669086,0.24548130343183996
0.9700399167998538,0.2499760840724101
0.8680607412924494,0.24548130343183996
0.7438455049601223,0.19379132606528363
0.6088956185743842,0.1780595938232882
0.45017614992752175,0.17356481318271808
0.2975907670254656,0.1780595938232882
0.12967016976139373,0.13086439709730197
-0.06508705263620558,0.11063788421473643
-0.2728792072415182,0.1016483229335962
-0.3763919041851242,0.11063788421473643
-0.36105668982310846,0.06569007780903525
-0.3250189360723716,0.04321617460618467
-0.3656572541317132,0.03422661332504443
-0.4285316330159775,0.04321617460618467
-0.4500009331227995,0.0005157585207685438
-0.4799046011287301,-0.024205535002367107
-0.6110206839239642,-0.0354424866037924
-0.7912094526776488,-0.024205535002367107
-0.9131244068556734,-0.06465856076749817
-0.8954889103393554,-0.09162724461091888
-0.7091660558408648,-0.10511158653262923
-0.3250189360723716,-0.09162724461091888
0.1779760950017432,-0.12983288005576488
0.7645480443488435,-0.15904895421947066
1.603384269951102,-0.17702807678175111
2.838635786811466,-0.15904895421947066
3.9949109497074495,-0.18601763806289134
4.187367889950746,-0.22647066382802242
3.097800909529531,-0.2826554218351489
1.4385307155594333,-0.2938923734365742
0.06756255159523018,-0.30737671535828454
-0.843349181508502,-0.2938923734365742
-1.54493523857072,-0.30063454439742937
-1.9842891300424697,-0.2938923734365742
-1.937516726238322,-0.30737671535828454
-1.5173318527190918,-0.2938923734365742
-1.1623216402384284,-0.29613976375685924
-1.0503745753957139,-0.2938923734365742
-0.9882669572295504,-0.3163662766394248
-0.7912094526776488,-0.2938923734365742
-0.6202218125411737,-0.2646762992728684
-0.6876967557340428,-0.22647066382802242
-0.9039232782384641,-0.2377076154294477
-0.946861878452108,-0.22647066382802242
-0.7682066311346252,-0.20399676062517183
-0.6355570269031894,-0.15904895421947066
-0.7106995772770663,-0.1612963445397557
-0.7398364845648961,-0.15904895421947066
-0.5351113728319866,-0.1455646122977603
-0.2728792072415182,-0.09162724461091888
-0.25294342857089785,-0.07814290268920852
-0.3763919041851242,-0.09162724461091888
-0.3794589470575273,-0.14331722197747523
-0.22073947841066488,-0.15904895421947066
-0.08195578843442283,-0.16579112518032582
-0.013714084523453,-0.15904895421947066
0.059894944414222336,-0.1950071993440316
0.1419383412510063,-0.22647066382802242
0.14270510196910707,-0.27366586055400866
0.09056537313825372,-0.2938923734365742
0.10820086965457176,-0.33434539920170525
0.246217798912713,-0.36131408304512597
0.367365992372637,-0.4040144991305421
0.34973049585631893,-0.4287357926536777
0.23088258455069732,-0.47143620873909386
0.19407807008185965,-0.4961575022622295
0.306791895642675,-0.5388579183476456
0.45324319279992487,-0.5635792118707813
0.4463423463370178,-0.6062796279561974
0.2975907670254656,-0.6310009214793331
0.18487694146465025,-0.6714539472444641
0.246217798912713,-0.6984226310878848
0.35969838519162917,-0.7456178278138711
0.34973049585631893,-0.7658443406964366
0.21324708803437928,-0.781576072938432
0.1419383412510063,-0.7658443406964366
0.17720933428364238,-0.7703391213370067
0.19407807008185965,-0.7658443406964366
0.13273721263379687,-0.7770812922978618
0.1419383412510063,-0.7658443406964366
0.23088258455069732,-0.7703391213370067
0.19407807008185965,-0.7658443406964366
-0.0589529668913993,-0.781576072938432
-0.22073947841066488,-0.7658443406964366
-0.03134958103977105,-0.7478652181341561
0.34973049585631893,-0.6984226310878848
0.5452544789720191,-0.6692065569241791
0.5053829216307782,-0.6310009214793331
0.4693451678800414,-0.6085270182764825
0.6088956185743842,-0.5635792118707813
0.8274224232331078,-0.5343631377070756
0.9715734382360554,-0.4961575022622295
0.9662061132093499,-0.475930989379664
0.8680607412924494,-0.4287357926536777
0.78065001942896,-0.3972723281696869
0.8166877731796969,-0.36131408304512597
0.9570049845921405,-0.3478297411234156
1.075852895897762,-0.2938923734365742
1.0229464063488078,-0.23096544446859255
0.8166877731796969,-0.15904895421947066
0.6012280113933763,-0.134327660696335
0.5053829216307782,-0.09162724461091888
0.42027248192159117,-0.03768987692407746
0.19407807008185965,0.04321617460618467
-0.1432966458824856,0.07692702941046055
-0.3250189360723716,0.11063788421473643
-0.295115268066441,0.13086439709730197
-0.2728792072415182,0.1780595938232882
-0.4285316330159775,0.20278088734642385
-0.5841840587904368,0.24548130343183996
-0.5136420727251646,0.2702025969549756
-0.2728792072415182,0.31290301304039175
-0.12182734577566365,0.3308821356026722
-0.1693665102979123,0.3803247226489435
-0.3311530218171779,0.4162829677735045
-0.4799046011287301,0.4477464322574953
-0.5880178623809408,0.4297673096952148
-0.5841840587904368,0.4477464322574953
-0.3311530218171779,0.474715116100916
0.246217798912713,0.5151681418660471
0.9784742846989624,0.5039311902646217
1.7498355671083519,0.5151681418660471
2.7397236541764647,0.5376420450688977
4.031715464176287,0.5825898514745989
4.875919014805251,0.5758476805137437
4.187367889950746,0.5825898514745989
1.9729629360756802,0.5983215837165943
-0.3250189360723716,0.6500115610831506
-1.469792688196843,0.6500115610831506
-1.6729842784935511,0.6500115610831506
-1.7925989505172735,0.6545063417237207
-1.9321494012116163,0.7174332706917024
-1.6791183642383574,0.7578862964568335
-1.1025143042265673,0.7848549803002541
-0.7682066311346252,0.7668758577379736
-0.843349181508502,0.7848549803002541
-0.964497374968426,0.8050814931828196
-0.843349181508502,0.8522766899088059
-0.6255891375678791,0.8702558124710864
-0.5320443299595835,0.9196983995173577
-0.5734494087370259,0.9511618640013485
-0.5841840587904368,0.9871201091259094
-0.5082747476984592,0.971388376883914
-0.4285316330159775,0.9871201091259094
-0.4745372761020246,1.0095940123287601
-0.5841840587904368,1.0545418187344613
-0.6133209660782667,1.045552257453321
-0.4799046011287301,1.0545418187344613
-0.3242521753542708,1.0680261606561716
-0.2728792072415182,1.121963528343013
-0.3188848503275653,1.1264583089835831
-0.3250189360723716,1.121963528343013
-0.2000369390219437,1.0972422348198774
-0.013714084523453,1.121963528343013
0.006988454865268187,1.1444374315458636
-0.22073947841066488,1.1893852379515648
-0.4354324794788846,1.1893852379515648
-0.2728792072415182,1.1893852379515648
0.1764425735655416,1.1624165541081442
0.45324319279992487,1.1893852379515648
0.3612319066278307,1.2186013121152706
0.246217798912713,1.2568069475601165
0.36659923165453623,1.241075215318121
0.5053829216307782,1.2568069475601165
0.36966627452693934,1.277033460442682
0.1419383412510063,1.3242286571686683
0.15037270915011494,1.317486486207813
0.34973049585631893,1.3242286571686683
0.4018702246871723,1.3332182184498085
0.246217798912713,1.39165036677722
0.12200256258038589,1.4208664409409257
0.19407807008185965,1.4590720763857719
0.29682400630736483,1.4725564183074822
0.246217798912713,1.5242463956740386
0.07523015877623802,1.5579572504783143
-0.013714084523453,1.5916681052825903
0.01695634420057839,1.5826785440014501
0.03842564430740036,1.5916681052825903
-0.033649863194073405,1.6006576665637307
-0.06508705263620558,1.6590898148911422
0.05376085866941605,1.697295450335988
0.246217798912713,1.7265115244996938
0.338995845802908,1.7107797922576984
0.34973049585631893,1.7265115244996938
0.3911355746337613,1.7467380373822594
0.5053829216307782,1.7939332341082457
0.6142629436010897,1.7939332341082457
0.7124083155179901,1.7939332341082457
0.848124962621829,1.7759541115459652
1.0237131670669086,1.7939332341082457
1.12262529970191,1.7894384534676755
1.075852895897762,1.7939332341082457
0.9294015987405122,1.77370672122568
0.8166877731796969,1.7939332341082457
0.766081565785045,1.8164071373110962
0.7124083155179901,1.8613549437167973
0.577458429132252,1.8613549437167973
0.40110346396907154,1.8613549437167973
0.246217798912713,1.841128430834232
0.1419383412510063,1.8613549437167973
0.03535860143499722,1.8636023340370824
-0.06508705263620558,1.8613549437167973
-0.16553270670740838,1.814159746990811
-0.2728792072415182,1.7939332341082457
-0.45306797599520265,1.7782015018662503
-0.6876967557340428,1.7939332341082457
-0.8502500279714091,1.7826962825068204
-0.7912094526776488,1.7939332341082457
-0.5665485622741188,1.7871910631473904
-0.3763919041851242,1.7939332341082457
-0.34265443258868966,1.7534802083431147
-0.3763919041851242,1.7265115244996938
-0.44156656522369087,1.6995428406562731
-0.5841840587904368,1.7265115244996938
-0.7037987308141592,1.731006305140264
-0.4799046011287301,1.7265115244996938
0.1810431378741463,1.6770689374534227
1.075852895897762,1.6590898148911422
2.0964114116899064,1.6433580826491467
3.305593064134844,1.6590898148911422
4.2839797404314455,1.6478528632897167
4.187367889950746,1.6590898148911422
2.786496057980613,1.654595034250572
0.9715734382360554,1.6590898148911422
-0.3480217576153951,1.616389398805726
-1.1546540330574206,1.5916681052825903
-1.7780304968733587,1.571441592400025
-2.036428858873323,1.5916681052825903
-1.6967538607546755,1.58717332464202
-1.1546540330574206,1.5916681052825903
-1.0013018894372636,1.5759363730405949
-1.1546540330574206,1.5916681052825903
-1.121683322179087,1.5849259343217352
-0.7912094526776488,1.5916681052825903
-0.5404786978586921,1.5759363730405949
-0.5841840587904368,1.5916681052825903
-0.7567052203631134,1.5894207149623052
-0.7912094526776488,1.5916681052825903
-0.6531925234195074,1.5489676891971742
-0.4799046011287301,1.5242463956740386
-0.45306797599520265,1.504019882791473
-0.5841840587904368,1.5242463956740386
-0.7482708524640047,1.5219990053537535
-0.7398364845648961,1.5242463956740386
-0.5220764406242733,1.5062672731117581
-0.22073947841066488,1.5242463956740386
-0.06355353120000401,1.5264937859943237
-0.11722678146705894,1.5242463956740386
-0.2092380676391531,1.4770511989480524
-0.11722678146705894,1.4590720763857719
0.07369663734003645,1.4410929538234913
0.09056537313825372,1.4590720763857719
-0.09959128495074089,1.4455877344640615
-0.1693665102979123,1.4590720763857719
0.04455973005220664,1.4545772957452017
0.2975907670254656,1.4590720763857719
0.3190600671322876,1.4118768796597856
0.246217798912713,1.39165036677722
0.3213603492865899,1.3714238538946546
0.5053829216307782,1.39165036677722
0.5506218039987245,1.3804134151757947
0.45324319279992487,1.39165036677722
0.4141383961767849,1.384908195816365
0.5053829216307782,1.39165036677722
0.5099834859393829,1.3467025603715188
0.2975907670254656,1.3242286571686683
0.05606114082371841,1.3040021442861027
0.09056537313825372,1.3242286571686683
0.33976260652100876,1.312991705567243
0.45324319279992487,1.3242286571686683
0.2577192096842248,1.317486486207813
0.03842564430740036,1.3242286571686683
0.06909607303143175,1.2815282410832523
0.246217798912713,1.2568069475601165
0.2837890740996515,1.232085654036981
0.19407807008185965,1.2568069475601165
0.16110735920352592,1.2568069475601165
0.246217798912713,1.2568069475601165
0.3474302137020166,1.2118591411544153
0.45324319279992487,1.1893852379515648
0.570557582669345,1.164663944428429
0.6610353474052375,1.1893852379515648
0.7062742297731839,1.1893852379515648
0.8166877731796969,1.1893852379515648
0.9876754133161718,1.1399426509052935
1.075852895897762,1.121963528343013
1.0137452777315985,1.1062317961010175
0.9715734382360554,1.121963528343013
1.0283137313755135,1.090500063859022
1.0237131670669086,1.0545418187344613
0.8220550982064023,0.9961096704070497
0.6088956185743842,0.9871201091259094
0.598927729239074,0.9781305478447693
0.7124083155179901,0.9871201091259094
0.6648691509957415,0.9489144736810634
0.40110346396907154,0.9196983995173577
0.09899974103736235,0.8702558124710864
-0.06508705263620558,0.8522766899088059
-0.1440634066005864,0.8118236641436748
-0.22073947841066488,0.7848549803002541
-0.34878851833349594,0.7376597835742679
-0.4799046011287301,0.7174332706917024
-0.5366448942681882,0.6769802449265713
-0.4799046011287301,0.6500115610831506
-0.4653361474848152,0.5983215837165943
-0.6355570269031894,0.5825898514745989
-0.8441159422266028,0.5488789966703229
-0.7912094526776488,0.5151681418660471
-0.6056533588972588,0.43426209033578494
-0.6876967557340428,0.3803247226489435
-0.9591300499417206,0.3308821356026722
-0.7912094526776488,0.31290301304039175
-0.04438451324748439,0.2657078163144055
0.7124083155179901,0.24548130343183996
1.2529746217790434,0.23199696151012963
2.1646531156008764,0.24548130343183996
3.569358751161514,0.21401783894784915
4.3943932838379585,0.1780595938232882
3.6537024301526,0.12412222613644679
1.8533482640519578,0.11063788421473643
0.20787976300767377,0.07692702941046055
-0.843349181508502,0.04321617460618467
-1.6139437031997907,-0.01296858340094181
-2.139941555816929,-0.024205535002367107
-2.1491426844341386,-0.030947705963222282
-1.7251240073244045,-0.024205535002367107
-1.3517115376093223,-0.06241117044721311
-1.2581667300010266,-0.09162724461091888
-1.2627672943096313,-0.134327660696335
-1.1546540330574206,-0.15904895421947066
-0.9867334357933488,-0.210738931586027
-0.8954889103393554,-0.22647066382802242
-0.9146579282918751,-0.23321283478887758
-0.946861878452108,-0.22647066382802242
-0.9207920140366813,-0.2669236895931535
-0.843349181508502,-0.2938923734365742
-0.8004105812948581,-0.31187149599885466
-0.7912094526776488,-0.2938923734365742
-0.7812415633423385,-0.30063454439742937
-0.7398364845648961,-0.2938923734365742
-0.7452038095916016,-0.30063454439742937
-0.7912094526776488,-0.2938923734365742
-0.7728071954432298,-0.3096241056785696
-0.5841840587904368,-0.2938923734365742
-0.3334533039714802,-0.2691710799134385
-0.22073947841066488,-0.22647066382802242
-0.28284709657682844,-0.20849154126574196
-0.3250189360723716,-0.15904895421947066
-0.22994060702787428,-0.10511158653262923
-0.11722678146705894,-0.09162724461091888
-0.15556481737209818,-0.2669236895931535
-0.2728792072415182,-0.6310009214793331
-0.2744127286777198,-1.1096950597000506
-0.11722678146705894,-1.505235756070221
0.01235577989197368,-1.772675204184143
-0.013714084523453,-1.9097660137215315
-0.10112480638694246,-2.0266303103763548
-0.06508705263620558,-2.112031142547187
0.059894944414222336,-2.197431974718019
0.09056537313825372,-2.2468745617642907
-0.03134958103977105,-2.300811929451132
-0.11722678146705894,-2.314296271372842
-0.05818620617329851,-2.3210384423336974
0.03842564430740036,-2.314296271372842
0.033058319280694866,-2.3525019068176882
-0.013714084523453,-2.381717980981394
-0.04285099181128282,-2.3996971035436743
-0.11722678146705894,-2.381717980981394
-0.28284709657682844,-2.383965371301679
-0.3763919041851242,-2.381717980981394
-0.2905147037578363,-2.3929549325828194
-0.1693665102979123,-2.381717980981394
-0.2437422999536884,-2.3907075422625343
-0.4285316330159775,-2.381717980981394
-0.4116628972177603,-2.386212761621964
-0.06508705263620558,-2.381717980981394
0.30295809205217106,-2.3929549325828194
0.34973049585631893,-2.381717980981394
0.14423862340530866,-2.379470590661109
0.09056537313825372,-2.381717980981394
0.3075586563607758,-2.4244183970668103
0.5053829216307782,-2.449139690589946
0.4724122107524445,-2.460376642191371
0.45324319279992487,-2.449139690589946
0.680971126075858,-2.4783557647536516
0.9715734382360554,-2.5165614001984977
0.9899756954704741,-2.566003987244769
0.7645480443488435,-2.583983109807049
0.5145840502479877,-2.617693964611325
0.2975907670254656,-2.651404819415601
0.05529438010561762,-2.7030947967821572
-0.11722678146705894,-2.718826529024153
-0.1685997495798115,-2.725568699985008
-0.22073947841066488,-2.718826529024153
-0.3909603578290391,-2.7502899935081437
-0.5320443299595835,-2.7862482386327048
-0.5719158873008243,-2.8177117031166956
-0.6355570269031894,-2.7862482386327048
-0.7927429741138503,-2.7300634806255784
-0.843349181508502,-2.651404819415601
-0.6999649272236553,-2.5974674517287597
-0.5841840587904368,-2.5165614001984977
-0.6876967557340428,-2.4109340551450997
-0.843349181508502,-2.2468745617642907
-0.8448827029447036,-2.080567678063196
-0.7912094526776488,-1.9097660137215315
-0.9046900389565649,-1.7771699848247131
-1.0503745753957139,-1.6400791752873245
-0.8402821386360989,-1.5164727076716462
-0.11722678146705894,-1.3703923368531175
0.7844838230194638,-1.2580228208388644
1.5420434125030391,-1.168127208027462
2.282734266188397,-1.1389111338637563
3.2534533353039907,-1.1007054984189104
4.031715464176287,-1.0737368145754898
3.7204106126273686,-1.0332837888103585
2.08030943660979,-1.0332837888103585
0.03842564430740036,-1.0332837888103585
-1.3647464698170357,-1.051262911372639
-1.9842891300424697,-1.0332837888103585
-2.2365534062976278,-1.015304666248078
-2.243454252760535,-0.9681094695220919
-1.9482513762917328,-0.934398614717816
-1.5694715815499451,-0.9006877599135401
-1.4191864808021915,-0.8872034179918298
-1.4138191557754858,-0.8332660503049883
-1.317207305294787,-0.7523599987747263
-1.1546540330574206,-0.6310009214793331
-1.0902461327369548,-0.552342260269356
-1.0503745753957139,-0.4961575022622295
-0.918491731882379,-0.46019925713766857
-0.7912094526776488,-0.36131408304512597
-0.8272472064283856,-0.2534393476714431
-0.8954889103393554,-0.15904895421947066
-0.8034776241672612,-0.13208027037604994
-0.5841840587904368,-0.09162724461091888
-0.48757220830973796,-0.03768987692407746
-0.5841840587904368,0.04321617460618467
-0.7475040917459039,0.0746796390901755
-0.7912094526776488,0.11063788421473643
-0.6754285842444302,0.13760656805815713
-0.4799046011287301,0.1780595938232882
-0.35722288623260456,0.17131742286243304
-0.3763919041851242,0.1780595938232882
-0.455368258149505,0.19154393574499856
-0.4285316330159775,0.24548130343183996
-0.2997158323750457,0.27469737759554574
-0.22073947841066488,0.31290301304039175
-0.2644448393424096,0.33537691624324234
-0.2728792072415182,0.3803247226489435
-0.124127627929966,0.40055123553150906
0.09056537313825372,0.4477464322574953
0.18487694146465025,0.4971890193037666
0.1419383412510063,0.5825898514745989
0.047626772924609775,0.6432693901222954
-0.013714084523453,0.7174332706917024
0.006221694147167402,0.7713706383785438
0.1419383412510063,0.8522766899088059
0.26462005614713185,0.9084614479159324
0.19407807008185965,0.9871201091259094
-0.037483666784577326,1.0433048671330358
-0.11722678146705894,1.121963528343013
0.08059748380294351,1.1736535057095694
0.2975907670254656,1.2568069475601165
0.2316493452687981,1.3197338765280981
-0.013714084523453,1.39165036677722
-0.15633157809019896,1.4186190506206409
-0.11722678146705894,1.4590720763857719
-0.07198789909911264,1.4792985892683375
-0.11722678146705894,1.5242463956740386
-0.1992701783038429,1.546720298876889
-0.22073947841066488,1.5916681052825903
-0.1593986209626021,1.6231315697665811
-0.013714084523453,1.6590898148911422
0.15957383776732434,1.6501002536100018
0.2975907670254656,1.6590898148911422
0.38346796745275347,1.6725741568128525
0.5053829216307782,1.7265115244996938
0.680971126075858,1.7399958664214041
0.8166877731796969,1.7265115244996938
0.7929181909185725,1.6725741568128525
0.6610353474052375,1.6590898148911422
0.5605896933340347,1.6523476439302869
0.6088956185743842,1.6590898148911422
0.7752826944022545,1.616389398805726
0.9202004701233027,1.5916681052825903
0.8335565089779141,1.5736889827203098
0.45324319279992487,1.5916681052825903
-0.029049298885468693,1.5669468117594547
-0.2728792072415182,1.5242463956740386
-0.20310398189434684,1.461319466706057
-0.06508705263620558,1.4590720763857719
-0.1448301673186872,1.4568246860654868
-0.3763919041851242,1.4590720763857719
-0.537411654986289,1.4073820990192154
-0.5320443299595835,1.39165036677722
-0.47913784041062935,1.3804134151757947
-0.4799046011287301,1.39165036677722
-0.5596477158112118,1.348949950691804
-0.6876967557340428,1.3242286571686683
-0.8203463599654786,1.3040021442861027
-0.8954889103393554,1.3242286571686683
-0.9552962463512166,1.2950125830049626
-1.0503745753957139,1.2568069475601165
-1.071843875502536,1.198374799232705
-0.7912094526776488,1.1893852379515648
-0.24297553923558762,1.1781482863501396
0.34973049585631893,1.1893852379515648
0.9892089347523734,1.1556743831472889
1.9576277217136644,1.121963528343013
3.1154364060458493,1.0612839896953163
3.7204106126273686,1.0545418187344613
3.1852116313930208,1.050047038093891
1.8019752959392052,1.0545418187344613
0.2868561169720546,1.007346622008475
-0.946861878452108,0.9871201091259094
-1.8324705078585144,0.971388376883914
-2.243454252760535,0.9871201091259094
-2.133040709354022,0.9511618640013485
-1.7764969754371571,0.9196983995173577
-1.5472355207250224,0.8882349350333668
-1.4659588846063392,0.9196983995173577
-1.3501780161731207,0.9286879607984979
-1.1546540330574206,0.9196983995173577
-0.9767655464580386,0.8635136415102312
-0.843349181508502,0.8522766899088059
-0.7873756490871447,0.8477819092682358
-0.843349181508502,0.8522766899088059
-0.8724860887963318,0.8050814931828196
-0.6355570269031894,0.7848549803002541
-0.3035496359655496,0.7736180286988289
-0.3250189360723716,0.7848549803002541
-0.7344691595381906,0.742154564214838
-0.946861878452108,0.7174332706917024
-0.7030319700960584,0.6994541481294219
-0.4285316330159775,0.7174332706917024
-0.4960065762088466,0.6837224158874264
-0.5841840587904368,0.6500115610831506
-0.37255810059462025,0.6207954869194449
-0.1693665102979123,0.6500115610831506
-0.34648823617919355,0.6567537320440058
-0.5841840587904368,0.6500115610831506
-0.3679575362860155,0.5983215837165943
0.1419383412510063,0.5825898514745989
0.28225555266344987,0.5691055095528885
-0.11722678146705894,0.5825898514745989
-0.49677333692694736,0.5646107289123183
-0.3250189360723716,0.5825898514745989
0.18871074505515417,0.6028163643571643
0.45324319279992487,0.6500115610831506
0.2868561169720546,0.6500115610831506
0.09056537313825372,0.6500115610831506
0.14117158053290552,0.6320324385208701
0.246217798912713,0.6500115610831506
0.16877496638453376,0.6432693901222954
0.09056537313825372,0.6500115610831506
0.1925445486456581,0.6342798288411552
0.2975907670254656,0.6500115610831506
0.18411018074654945,0.6455167804425804
0.03842564430740036,0.6500115610831506
0.0867315695477498,0.6320324385208701
0.19407807008185965,0.6500115610831506
0.08826509098395137,0.6522589514034357
-0.11722678146705894,0.6500115610831506
-0.13026171367477227,0.6005689740368793
0.03842564430740036,0.5825898514745989
0.029224515690190942,0.5713528998731735
-0.2728792072415182,0.5825898514745989
-0.49140601190024186,0.5421368257094678
-0.22073947841066488,0.5151681418660471
0.30295809205217106,0.49269423866319645
0.5053829216307782,0.5151681418660471
0.3466634529839158,0.512920751545762
0.40110346396907154,0.5151681418660471
0.7760494551203553,0.48145728706177116
0.8680607412924494,0.4477464322574953
0.4823801000877547,0.38931428393008377
0.34973049585631893,0.3803247226489435
0.8358567911322164,0.3780773323286585
1.2315053216722214,0.3803247226489435
0.9654393524912491,0.3308821356026722
0.6088956185743842,0.31290301304039175
0.6932392975654705,0.3061608420795366
0.7124083155179901,0.31290301304039175
0.17107524853883613,0.2679552066346906
-0.3250189360723716,0.24548130343183996
-0.1893022889685327,0.23649174215069974
0.03842564430740036,0.24548130343183996
-0.3388206289981857,0.2005334970261388
-0.843349181508502,0.1780595938232882
-0.7306353559476867,0.16907003254214797
-0.2728792072415182,0.1780595938232882
-0.27211244652341743,0.1353591777378721
-0.7398364845648961,0.11063788421473643
-1.0756776790930398,0.09940093261331114
-1.0503745753957139,0.11063788421473643
-0.92922638193579,0.06793746812932032
-0.843349181508502,0.04321617460618467
-0.7291018345114851,0.02973183268447431
-0.6355570269031894,0.04321617460618467
-0.7314021166657875,0.005010539161338662
-0.8954889103393554,-0.024205535002367107
-0.7398364845648961,-0.03993726724436252
-0.06508705263620558,-0.024205535002367107
0.7898511480461694,-0.05566899948635793
1.4385307155594333,-0.09162724461091888
2.028169707778937,-0.12084331877462465
2.942915244473173,-0.09162724461091888
3.787118795102137,-0.08263768332977864
3.5133852187401566,-0.09162724461091888
1.809642903120213,-0.14331722197747523
-0.22073947841066488,-0.15904895421947066
-1.4000174628496718,-0.16803851550061089
-1.7764969754371571,-0.15904895421947066
-2.0801342198050676,-0.19725458966431664
-2.399106678534994,-0.22647066382802242
-2.288693135128481,-0.25119195735115807
-1.7251240073244045,-0.22647066382802242
-1.2597002514372282,-0.2219758831874523
-1.2060270011701733,-0.22647066382802242
-1.3271751946300971,-0.2714184702337236
-1.2581667300010266,-0.2938923734365742
-0.982132871484744,-0.3141188863191397
-0.7398364845648961,-0.2938923734365742
-0.761305784671718,-0.2916449831162891
-0.9990016072829614,-0.2938923734365742
-1.1761233331642427,-0.3388401798422754
-1.0503745753957139,-0.36131408304512597
-0.7505711346183072,-0.3770458152871214
-0.5841840587904368,-0.36131408304512597
-0.6769621056806318,-0.3658088636856961
-0.7912094526776488,-0.36131408304512597
-0.7283350737933844,-0.37255103464655126
-0.5320443299595835,-0.36131408304512597
-0.3855930328023336,-0.36805625400598113
-0.3250189360723716,-0.36131408304512597
-0.29128146447593706,-0.37030364432626617
-0.2728792072415182,-0.36131408304512597
-0.3142842860189606,-0.37030364432626617
-0.3763919041851242,-0.36131408304512597
-0.3748583827489226,-0.37030364432626617
-0.2728792072415182,-0.36131408304512597
-0.13256199582907463,-0.37030364432626617
-0.013714084523453,-0.36131408304512597
0.046093251488408205,-0.37030364432626617
0.03842564430740036,-0.36131408304512597
-0.027515777449267125,-0.37030364432626617
-0.06508705263620558,-0.36131408304512597
0.024623951381586236,-0.37030364432626617
0.246217798912713,-0.36131408304512597
0.39880318181476915,-0.37030364432626617
0.2975907670254656,-0.36131408304512597
0.019256626354880742,-0.37030364432626617
-0.11722678146705894,-0.36131408304512597
-0.002979434470042014,-0.37255103464655126
0.1419383412510063,-0.36131408304512597
0.08749833026585058,-0.36805625400598113
-0.06508705263620558,-0.36131408304512597
-0.13716256013767933,-0.3747984249668363
-0.11722678146705894,-0.36131408304512597
-0.10189156710504324,-0.363561473365411
-0.06508705263620558,-0.36131408304512597
-0.02828253816736791,-0.401767108810257
-0.11722678146705894,-0.4287357926536777
-0.3457214754610928,-0.4512096958565283
-0.4285316330159775,-0.4287357926536777
-0.1693665102979123,-0.4242410120131076
0.246217798912713,-0.4287357926536777
0.4693451678800414,-0.47143620873909386
0.45324319279992487,-0.4961575022622295
0.3788674031441488,-0.516384015144795
0.40110346396907154,-0.4961575022622295
0.5636567362064379,-0.49391011194194445
0.8680607412924494,-0.4961575022622295
1.1241588211381115,-0.5388579183476456
1.075852895897762,-0.5635792118707813
0.7607142407583396,-0.5838057247533468
0.5567558897435309,-0.5635792118707813
0.5966274470847717,-0.5613318215504962
0.6088956185743842,-0.5635792118707813
0.4363744570017076,-0.6062796279561974
0.34973049585631893,-0.6310009214793331
0.445575585618917,-0.6489800440416135
0.40110346396907154,-0.6310009214793331
0.04302620861600507,-0.633248311799618
-0.22073947841066488,-0.6310009214793331
-0.15556481737209818,-0.6467326537213285
-0.11722678146705894,-0.6310009214793331
-0.4346657187607838,-0.628753531159048
-0.7398364845648961,-0.6310009214793331
-0.6087204017696619,-0.6737013375647491
-0.2728792072415182,-0.6984226310878848
-0.2391417356450837,-0.7141543633298802
-0.4799046011287301,-0.6984226310878848
-0.6271226590040808,-0.7029174117284549
-0.5841840587904368,-0.6984226310878848
-0.5673153229922195,-0.7096595826893101
-0.5841840587904368,-0.6984226310878848
-0.42699811157977596,-0.70516480204874
-0.013714084523453,-0.6984226310878848
0.4731789714705453,-0.7074121923690251
0.9715734382360554,-0.6984226310878848
1.7168648562300182,-0.70516480204874
2.8907755156423196,-0.6984226310878848
4.0485841999745045,-0.7074121923690251
4.343020315725206,-0.6984226310878848
3.380735614508721,-0.7074121923690251
1.6976958382774985,-0.6984226310878848
0.09363241601065686,-0.7074121923690251
-1.0503745753957139,-0.6984226310878848
-1.7059549893718848,-0.7074121923690251
-1.8286367042680105,-0.6984226310878848
-1.5794394708852553,-0.7074121923690251
-1.3616794269446326,-0.6984226310878848
-1.3287087160662987,-0.7074121923690251
-1.1546540330574206,-0.6984226310878848
-0.7444370488735008,-0.7074121923690251
-0.5320443299595835,-0.6984226310878848
-0.7605390239536173,-0.7074121923690251
-0.946861878452108,-0.6984226310878848
-0.6907637986064459,-0.7074121923690251
-0.3250189360723716,-0.6984226310878848
-0.34878851833349594,-0.70516480204874
-0.5841840587904368,-0.6984226310878848
-0.5964522302800493,-0.7074121923690251
-0.3763919041851242,-0.6984226310878848
-0.22380652128306802,-0.70516480204874
-0.11722678146705894,-0.6984226310878848
0.07446339805813725,-0.7096595826893101
0.246217798912713,-0.6984226310878848
0.14883918771391336,-0.7006700214081699
-0.11722678146705894,-0.6984226310878848
-0.2406752570812853,-0.7186491439704503
-0.11722678146705894,-0.6984226310878848
0.02845775497209016,-0.6692065569241791
0.03842564430740036,-0.6310009214793331
0.03842564430740036,-0.6377430924401882
0.246217798912713,-0.6310009214793331
0.5828257541589575,-0.6152691892373376
0.7645480443488435,-0.5635792118707813
0.6779040832034549,-0.554589650589641
0.5567558897435309,-0.5635792118707813
0.5690240612331434,-0.590547895714202
0.6088956185743842,-0.5635792118707813
0.5444877182539183,-0.5298683570665054
0.5053829216307782,-0.4961575022622295
0.5759249076960504,-0.5051470635433697
0.6088956185743842,-0.4961575022622295
0.49388151085926646,-0.49391011194194445
0.45324319279992487,-0.4961575022622295
0.63419872227171,-0.5433526989882157
0.8166877731796969,-0.5635792118707813
0.7124083155179901,-0.5703213828316365
0.45324319279992487,-0.5635792118707813
0.32902795646759775,-0.6040322376359123
0.40110346396907154,-0.6310009214793331
0.5115170073755845,-0.6444852634010434
0.6088956185743842,-0.6310009214793331
0.66333562955954,-0.6624643859633239
0.6088956185743842,-0.6984226310878848
0.4693451678800414,-0.7411230471733009
0.45324319279992487,-0.7658443406964366
0.5805254720046551,-0.8130395374224229
0.6088956185743842,-0.8332660503049883
0.41567191761298644,-0.8422556115861286
0.2975907670254656,-0.8332660503049883
0.5138172895298869,-0.8669769051092643
0.9202004701233027,-0.9006877599135401
1.1808991142775696,-0.9433881759989562
1.2315053216722214,-0.9681094695220919
1.1601965748888483,-1.015304666248078
1.0237131670669086,-1.0332837888103585
0.8971976485802793,-1.0467681307320689
0.9715734382360554,-1.0332837888103585
1.2276715180817175,-1.0647472532943494
1.3350180186158274,-1.1007054984189104
1.0467159886099322,-1.1523954757854666
0.6088956185743842,-1.168127208027462
0.40647078899577704,-1.2063328434723082
0.5053829216307782,-1.235548917636014
0.6196302686277951,-1.2872388950025704
0.5567558897435309,-1.3029706272445656
0.28915639912635693,-1.3164549691662761
-0.06508705263620558,-1.3029706272445656
-0.3587564076688061,-1.311960188525706
-0.4285316330159775,-1.3029706272445656
-0.312750764582759,-1.311960188525706
-0.22073947841066488,-1.3029706272445656
-0.30661667883795274,-1.318702359486561
-0.4799046011287301,-1.3029706272445656
-0.6079536410515611,-1.2849915046822853
-0.6876967557340428,-1.235548917636014
-0.7935097348319511,-1.2085802337925933
-0.843349181508502,-1.168127208027462
-0.6930640807607482,-1.1456533048246116
-0.3250189360723716,-1.1007054984189104
0.09133213385635451,-1.0759842048957746
0.5053829216307782,-1.0332837888103585
1.1180247353933053,-1.010809885607508
2.1646531156008764,-0.9681094695220919
3.416006607541357,-0.9388933953583861
4.187367889950746,-0.9006877599135401
3.8668619097846184,-0.89619297927297
2.5280976959806485,-0.9006877599135401
0.8182212946158984,-0.9231616631163907
-0.5841840587904368,-0.9006877599135401
-1.4475566273719205,-0.8692242954295493
-1.8807764330988637,-0.8332660503049883
-2.0463967482086334,-0.8422556115861286
-1.9842891300424697,-0.8332660503049883
-1.7243572466063037,-0.8107921471021378
-1.3616794269446326,-0.7658443406964366
-1.0626427468853266,-0.7613495600558665
-0.8954889103393554,-0.7658443406964366
-0.8111452313482691,-0.7793286826181469
-0.7398364845648961,-0.7658443406964366
-0.7459705703097024,-0.7703391213370067
-0.8954889103393554,-0.7658443406964366
-1.0810450041197452,-0.7770812922978618
-1.0503745753957139,-0.7658443406964366
-0.768973391852726,-0.7703391213370067
-0.4799046011287301,-0.7658443406964366
-0.44233332594179164,-0.7770812922978618
-0.5841840587904368,-0.7658443406964366
-0.7268015523571828,-0.7703391213370067
-0.7912094526776488,-0.7658443406964366
-0.8241801635559824,-0.7793286826181469
-0.7912094526776488,-0.7658443406964366
-0.6738950628082286,-0.7658443406964366
-0.5320443299595835,-0.7658443406964366
-0.42699811157977596,-0.8062973664615677
-0.3250189360723716,-0.8332660503049883
-0.2606110357519057,-0.8512451728672689
-0.3250189360723716,-0.8332660503049883
-0.44770065096849715,-0.8332660503049883
-0.3763919041851242,-0.8332660503049883
-0.10649213141364795,-0.8489977825469838
0.03842564430740036,-0.8332660503049883
-0.14559692803678798,-0.8310186599847033
-0.3763919041851242,-0.8332660503049883
-0.3104504824284567,-0.8759664663904044
-0.013714084523453,-0.9006877599135401
0.15804031633112278,-0.9164194921555355
0.09056537313825372,-0.9006877599135401
-0.027515777449267125,-0.9029351502338252
-0.013714084523453,-0.9006877599135401
0.05299409795131527,-0.9119247115149655
0.03842564430740036,-0.9006877599135401
-0.05588592401899616,-0.9051825405541103
-0.11722678146705894,-0.9006877599135401
-0.16093214239880366,-0.9119247115149655
-0.2728792072415182,-0.9006877599135401
-0.423164307989272,-0.9051825405541103
-0.4285316330159775,-0.9006877599135401
-0.28668090016733233,-0.9119247115149655
-0.22073947841066488,-0.9006877599135401
-0.3702578184403179,-0.9029351502338252
-0.5320443299595835,-0.9006877599135401
-0.4799046011287301,-0.9186668824758206
-0.2728792072415182,-0.9006877599135401
-0.1440634066005864,-0.8714716857498344
-0.11722678146705894,-0.8332660503049883
-0.06585381335430636,-0.8714716857498344
0.03842564430740036,-0.9681094695220919
0.07062959446763332,-1.1007054984189104
0.03842564430740036,-1.168127208027462
0.11510171611747883,-1.1906011112303128
0.40110346396907154,-1.168127208027462
0.6955395797197729,-1.1771167693086024
0.7124083155179901,-1.168127208027462
0.4218060033577927,-1.1546428661057517
0.1419383412510063,-1.1007054984189104
0.1519062305863165,-1.0714894242552047
