ECG,PPG
0.2910346500062863,-0.1363089077766943
0.6774263782216785,0.25414893834407626
0.4311547272712088,-0.07481478216440168
0.3027113231116965,-0.23063970240525966
0.47786141969284956,-0.01272362620635867
0.5882590563258188,0.12339929262473565
0.5245681121144904,0.028471467650419875
0.5118299232722248,-0.03302265796187273
0.617981496957772,0.048770499405933934
0.6339042330106042,0.09653292706596703
0.47786141969284956,0.048770499405933934
0.2952807129537082,0.0165308607354116
0.2443279575846455,0.048770499405933934
0.31332648048025125,0.06668140977844635
0.4311547272712088,0.048770499405933934
0.5362447852199006,0.0296655283419207
0.617981496957772,0.028471467650419875
0.6731803152742566,0.01951601246416367
0.7113948818010537,0.007575405549155395
0.7305021650644522,-0.0037681710201024642
0.7581015742226944,-0.01272362620635867
0.8111773610654681,-0.02764938485011901
0.8982216514876169,-0.033619688307623144
0.974650784541211,-0.043769204185380176
1.0383417287525394,-0.053918720063137214
1.0829253897004691,-0.07720290354740335
1.131755113595821,-0.09511381391991575
1.1731542273331845,-0.11123363325517692
1.2251684984391027,-0.11541284567542982
1.2824903482292982,-0.12675642224468767
1.365288575704025,-0.1363089077766943
1.4565789290735958,-0.15720496987795876
1.5521153453905883,-0.17750400163347282
1.614744773865061,-0.20377333684649104
1.6444672144970145,-0.21869909549025138
1.643405698760159,-0.23123673275101006
1.6444672144970145,-0.23899812724576544
1.647651761707581,-0.2598941893470299
1.6444672144970145,-0.28019322110254397
1.603068100759651,-0.30467146527831096
1.5521153453905883,-0.3213883149593225
1.5361926093377563,-0.34467249844358866
1.598822037812229,-0.36258340881610107
1.6667590449709795,-0.37989728884286306
1.6444672144970145,-0.38347947091736556
1.4947934956003928,-0.39124086541212094
1.3185818832823841,-0.4037785026728796
1.2060612151757042,-0.428853777194397
1.1784618060174619,-0.4449735965296582
1.1636005857014853,-0.45751123379041686
1.131755113595821,-0.46527262828517224
1.0574490120159379,-0.4867657207321871
0.9449283439092577,-0.5064677221419508
0.793131593538925,-0.5237816021687127
0.6646881893794129,-0.5273637842432153
0.5903820877995297,-0.5363192394294715
0.5712748045361312,-0.5476628159987293
0.5500444897990218,-0.5691559084457442
0.5245681121144904,-0.5888579098555078
0.5065223445879473,-0.6228886395632814
0.5245681121144904,-0.6712480975690649
0.539429332430467,-0.7381154962931112
0.5245681121144904,-0.7948333791394006
0.47149232527171675,-0.8360284729961791
0.4311547272712088,-0.8563275047516932
0.41735502269208763,-0.8778205971987081
0.4311547272712088,-0.8975225986084717
0.4449544318503299,-0.9220008427842387
0.47786141969284956,-0.9387176924652503
0.5256296278513459,-0.9548375118005115
0.5712748045361312,-0.9596137545665148
0.5670287415887093,-0.9614048456037659
0.5245681121144904,-0.9596137545665148
0.46618474658743936,-0.9685692097527709
0.4311547272712088,-0.9799127863220288
0.40461683384982194,-0.9948385449657892
0.38444803484956797,-1.0008088484232933
0.35684862569132564,-1.0109583643010502
0.33774134242792714,-1.0211078801788074
0.32500315358566145,-1.0372276995140686
0.33774134242792714,-1.0420039422800718
0.3706483302704468,-1.0431980029715726
0.4311547272712088,-1.0420039422800718
0.4884765770614043,-1.0527504885035792
0.5245681121144904,-1.0623029740355858
0.5150144704827911,-1.0688703078388404
0.47786141969284956,-1.0623029740355858
0.42266260137636497,-1.0599148526525841
0.38444803484956797,-1.0623029740355858
0.3886940977969898,-1.075437641642095
0.47786141969284956,-1.0831990361368504
0.636027264484315,-1.0867812182113528
0.8048082666443352,-1.0831990361368504
0.8865449783822067,-1.0837960664826007
0.8515149590659761,-1.0831990361368504
0.718825491959042,-1.085587157519852
0.5712748045361312,-1.0831990361368504
0.463000199376873,-1.0843930968283513
0.4311547272712088,-1.0831990361368504
0.4460159475871854,-1.085587157519852
0.47786141969284956,-1.0831990361368504
0.47255384100857223,-1.0843930968283513
0.4311547272712088,-1.0831990361368504
0.3706483302704468,-1.0861841878656024
0.33774134242792714,-1.0831990361368504
0.3356183109542162,-1.0837960664826007
0.33774134242792714,-1.0831990361368504
0.3080189017959739,-1.0879752789028536
0.2443279575846455,-1.0831990361368504
0.16683730879419598,-1.075437641642095
0.10526939605657855,-1.0623029740355858
0.0755469554246253,-1.0557356402323312
0.10526939605657855,-1.0420039422800718
0.1891291392681609,-1.0252870925990603
0.33774134242792714,-1.0008088484232933
0.5691517730624203,-0.9823009077050304
0.9449283439092577,-0.9596137545665148
1.484178338231838,-0.9345384800449973
2.1115341387134228,-0.8975225986084717
2.6093850192986396,-0.8664770206294502
2.718721140194753,-0.8360284729961791
2.249531184504634,-0.8115502288204122
1.2251684984391027,-0.7745343473838865
-0.12826406605162552,-0.7351303445643592
-1.4349899381207127,-0.6921441596703294
-2.363816207869252,-0.6557253085795541
-2.7427773259266557,-0.6097539719567723
-2.655733035504507,-0.5613945139509888
-2.3224170941318882,-0.5064677221419508
-1.9615017436010274,-0.4598993551734185
-1.6685234002289169,-0.4037785026728796
-1.489127240700342,-0.34467249844358866
-1.4349899381207127,-0.28019322110254397
-1.505049976753174,-0.22944564171375884
-1.621816707807276,-0.17750400163347282
-1.7194761555979796,-0.1279504829361885
-1.7619367850721985,-0.07481478216440168
-1.7640598165459094,-0.034216718653373564
-1.7152300926505577,0.007575405549155395
-1.6324318651758307,0.05235268148043642
-1.5284033229639944,0.11086165536397696
-1.4424205482787011,0.15743002233250922
-1.3426380690142867,0.19325184307753404
-1.219502243539052,0.21056572310429603
-1.0623979144844418,0.2344469369343126
-0.8904323651138552,0.2607162721473308
-0.6887443751113153,0.2959410625466052
-0.4562724287399667,0.3186282156851209
-0.22167745089490715,0.33713615640338374
-0.042281291366332206,0.3448975508981391
0.058562703634937735,0.3574351881588978
0.08297756558261361,0.3651965826536532
0.058562703634937735,0.3783312502601623
-0.006189756313246123,0.38549561440916724
-0.0815573736299847,0.39863028201567635
-0.14949438078873498,0.401018403398678
-0.17497075847326635,0.39863028201567635
-0.1526789279993014,0.3843015537176664
-0.0815573736299847,0.3783312502601623
0.010794495476441446,0.36818173438240526
0.10526939605657855,0.3574351881588978
0.15728366716249673,0.33295694398313086
0.15091457274136388,0.31624009430211925
0.08616211279318003,0.30250839634985977
0.01185601121329692,0.2959410625466052
-0.038035228418910313,0.2750450004453407
-0.03485068120834389,0.25474596868982663
0.009732979739585973,0.2302677245140597
0.10526939605657855,0.2135508748330481
0.23477431595294626,0.18847560031153074
0.38444803484956797,0.17235578097626955
0.5033377973773809,0.15802705267825964
0.5712748045361312,0.1520567492207555
0.5787054146941195,0.13175771746524143
0.5712748045361312,0.11086165536397696
0.6009972451680845,0.08459232015095876
0.7113948818010537,0.06966656150719841
0.8493919275922651,0.048770499405933934
0.9449283439092577,0.028471467650419875
0.9778353317517774,0.001008071745900845
1.0383417287525394,-0.01272362620635867
1.1636005857014853,-0.02466423312136694
1.3185818832823841,-0.033619688307623144
1.4427792244944746,-0.05570981110038845
1.5521153453905883,-0.07481478216440168
1.623236899759905,-0.096904904957167
1.598822037812229,-0.11541284567542982
1.4576404448104512,-0.14227921123419843
1.3185818832823841,-0.15660793953220836
1.2697521593870325,-0.16854854644721662
1.2718751908607435,-0.17750400163347282
1.208184246649415,-0.2019822458092398
1.0850484211741802,-0.21869909549025138
0.9767738160149219,-0.23123673275101006
0.9449283439092577,-0.23899812724576544
0.9587280484883789,-0.262879341075782
0.9916350363308986,-0.28019322110254397
1.0086192881205862,-0.2933278887090531
0.9916350363308986,-0.30108928320380846
0.9130828718035935,-0.3243734666880746
0.8048082666443352,-0.342284377060587
0.6954721457482216,-0.3548220143213457
0.617981496957772,-0.36258340881610107
0.5511060055358772,-0.3858675923003672
0.47786141969284956,-0.4037785026728796
0.36852529879673585,-0.41691317027938873
0.2443279575846455,-0.4246745647741441
0.13711486816224275,-0.44736171791265983
0.10526939605657855,-0.46527262828517224
0.13605335242538727,-0.4790043262374317
0.1976212651630047,-0.4861686903864367
0.23371280021609078,-0.5088558435249524
0.2443279575846455,-0.5273637842432153
0.22840522153181342,-0.5410954821954748
0.1976212651630047,-0.5476628159987293
0.1339303209516763,-0.5691559084457442
0.058562703634937735,-0.5888579098555078
0.0012408538447421886,-0.604977729190769
0.01185601121329692,-0.6097539719567723
0.07236240821405888,-0.6210975485260302
0.15091457274136388,-0.6300530037122863
0.19549823368929375,-0.6419936106272947
0.1976212651630047,-0.6509490658135508
0.1583451828993522,-0.6724421582605657
0.10526939605657855,-0.6921441596703294
0.044762999055816585,-0.7082639790055906
0.01185601121329692,-0.7124431914258434
0.012917526950152393,-0.7225927073036005
0.058562703634937735,-0.7333392535271079
0.10951545900400043,-0.7482650121708683
0.15091457274136388,-0.753638285282622
0.17214488747847334,-0.7625937404688782
0.1976212651630047,-0.7745343473838865
0.22628219005810246,-0.7978185308681526
0.2443279575846455,-0.8151324108949146
0.21991309563696965,-0.8294611391929245
0.15091457274136388,-0.8360284729961791
0.04051693610839469,-0.8485661102569377
-0.0815573736299847,-0.8563275047516932
-0.18664743157867653,-0.867671081320951
-0.22167745089490715,-0.8772235668529577
-0.17921682142068823,-0.8927463558424684
-0.0815573736299847,-0.8975225986084717
0.004425401055308608,-0.8987166592999726
0.058562703634937735,-0.8975225986084717
0.09253120721431286,-0.9106572662149808
0.15091457274136388,-0.9184186607097362
0.21566703268954773,-0.9214038124384882
0.2443279575846455,-0.9184186607097362
0.18276004484702807,-0.9285681765874932
0.058562703634937735,-0.9387176924652503
-0.08368040510369565,-0.9458820566142552
-0.17497075847326635,-0.9387176924652503
-0.2036316833683641,-0.9381206621194998
-0.17497075847326635,-0.9387176924652503
-0.1250795188410591,-0.9452850262685047
-0.0815573736299847,-0.9387176924652503
-0.06881918478771903,-0.9309562979704948
-0.0815573736299847,-0.9184186607097362
-0.11871042441992627,-0.9118513269064816
-0.17497075847326635,-0.8975225986084717
-0.2545844387374268,-0.8814027792732105
-0.3150908357381888,-0.8563275047516932
-0.286429910843091,-0.8384165943791807
-0.0815573736299847,-0.8151324108949146
0.3112034490065403,-0.7918482274106485
0.8515149590659761,-0.753638285282622
1.466132570705295,-0.7154283431545956
2.064827446291782,-0.6712480975690649
2.4682034262968617,-0.6336351857867889
2.438480985664908,-0.5888579098555078
1.8090021537096128,-0.5494539070359805
0.6646881893794129,-0.5064677221419508
-0.6972365010061591,-0.47004887105117554
-1.902056862337121,-0.4246745647741441
-2.6907630548207373,-0.3775091674598614
-2.9752492722980044,-0.3213883149593225
-2.8680361828756014,-0.2718347962620382
-2.5559505562400924,-0.21869909549025138
-2.213080973235775,-0.17033963748446787
-1.902056862337121,-0.11541284567542982
-1.6388009595969637,-0.06705338766964632
-1.4349899381207127,-0.01272362620635867
-1.347945647698564,0.036829892490925664
-1.3882832456990721,0.08996559326271247
-1.511419071174307,0.13175771746524143
-1.621816707807276,0.17235578097626955
-1.6993073565977257,0.20758057137554398
-1.7619367850721985,0.25474596868982663
-1.8362428866520817,0.2977321535838564
-1.8553501699154802,0.33713615640338374
-1.7725519424407532,0.3574351881588978
-1.5751100153856352,0.3783312502601623
-1.3288383644351656,0.3956451302869243
-1.0623979144844418,0.4195263441169408
-0.7970189802705735,0.43027289034044824
-0.5486242978463929,0.4398253758724549
-0.364982075370396,0.4446016186384582
-0.268384143316548,0.46072143797371934
-0.2397232184214502,0.47087095385147637
-0.22167745089490715,0.4810204697292334
-0.1845244001049656,0.47863234834623175
-0.12826406605162552,0.4810204697292334
-0.09217253099853943,0.47863234834623175
-0.0815573736299847,0.4810204697292334
-0.07943434215627376,0.47087095385147637
-0.03485068120834389,0.46072143797371934
0.05113209347694942,0.4440045882927078
0.15091457274136388,0.4398253758724549
0.20823642253155944,0.43086992068619867
0.1976212651630047,0.4195263441169408
0.10526939605657855,0.39385403924967305
-0.03485068120834389,0.3783312502601623
-0.14737134931502405,0.36459955230790275
-0.12826406605162552,0.3574351881588978
0.02990177873983996,0.3365391260576333
0.2443279575846455,0.31624009430211925
0.3865710663232789,0.29235888047210273
0.4311547272712088,0.2750450004453407
0.42053956990265406,0.24996972592382333
0.4311547272712088,0.2344469369343126
0.481045966903416,0.21952117829055223
0.5712748045361312,0.2135508748330481
0.6689342523268347,0.19384887342328444
0.7581015742226944,0.17235578097626955
0.8239155499077337,0.14489238507175053
0.8982216514876169,0.13116068711949103
0.9863274576466212,0.11802601951298192
1.0850484211741802,0.11086165536397696
1.1498008811223641,0.09056262360846289
1.1784618060174619,0.06966656150719841
1.18589241617545,0.042203165602679386
1.2251684984391027,0.028471467650419875
1.306905210176974,0.015336800043910772
1.4119952681256658,0.007575405549155395
1.4714401493895723,-0.01272362620635867
1.4587019605473066,-0.033619688307623144
1.3843958589674235,-0.059291993174890936
1.3185818832823841,-0.07481478216440168
1.2856748954398645,-0.09511381391991575
1.2718751908607435,-0.11541284567542982
1.2177378882811143,-0.14347327192569925
1.131755113595821,-0.15660793953220836
1.064879622173926,-0.1673544857557158
1.0850484211741802,-0.17750400163347282
1.151923912596075,-0.2019822458092398
1.1784618060174619,-0.21869909549025138
1.091417515595313,-0.23123673275101006
0.9449283439092577,-0.23899812724576544
0.817546455486601,-0.26228231073003155
0.7581015742226944,-0.28019322110254397
0.720948523432753,-0.29452194940055393
0.6646881893794129,-0.30108928320380846
0.5564135842201546,-0.32198534530507295
0.4311547272712088,-0.342284377060587
0.3398643739016381,-0.3584041963958482
0.33774134242792714,-0.36258340881610107
0.3908171292707008,-0.37989728884286306
0.4311547272712088,-0.4037785026728796
0.41098592827095476,-0.43303298961464987
0.38444803484956797,-0.4449735965296582
0.3940016764812672,-0.4545260820616648
0.4311547272712088,-0.46527262828517224
0.41735502269208763,-0.4897508724609392
0.33774134242792714,-0.5064677221419508
0.23795886316351267,-0.5196023897484598
0.1976212651630047,-0.5273637842432153
0.21248248547898133,-0.5482598463444797
0.2443279575846455,-0.5685588780999937
0.24751250479521195,-0.5852757277810053
0.2443279575846455,-0.5888579098555078
0.24326644184779003,-0.5990074257332648
0.2443279575846455,-0.6097539719567723
0.22415915858439153,-0.625276760946283
0.1976212651630047,-0.6300530037122863
0.1700218560047624,-0.639605489244293
0.15091457274136388,-0.6509490658135508
0.13286880521482083,-0.674233249297817
0.15091457274136388,-0.6921441596703294
0.22415915858439153,-0.7070699183140897
0.33774134242792714,-0.7124431914258434
0.4067398653235329,-0.7237867679951013
0.38444803484956797,-0.7333392535271079
0.285727071322009,-0.746473921133617
0.1976212651630047,-0.753638285282622
0.16896034026790693,-0.7661759225433807
0.1976212651630047,-0.7745343473838865
0.24220492611093458,-0.7864749542988948
0.2910346500062863,-0.7948333791394006
0.3281877007962279,-0.80856507709166
0.33774134242792714,-0.8151324108949146
0.2963422286905637,-0.8264759874641725
0.2443279575846455,-0.8360284729961791
0.23371280021609078,-0.8521482923314403
0.2910346500062863,-0.8563275047516932
0.34941801553333734,-0.8581185957889444
0.33774134242792714,-0.8563275047516932
0.23052825300552438,-0.8682681116667015
0.10526939605657855,-0.8772235668529577
0.02247116858185165,-0.8825968399647114
0.01185601121329692,-0.8772235668529577
0.013979042687007864,-0.8784176275444585
0.01185601121329692,-0.8772235668529577
0.00017933810788671567,-0.8796116882359593
0.01185601121329692,-0.8772235668529577
0.03308632595040638,-0.8808057489274601
0.058562703634937735,-0.8772235668529577
0.08934666000374646,-0.8712532633954535
0.15091457274136388,-0.8563275047516932
0.21885157990011417,-0.8485661102569377
0.2443279575846455,-0.8360284729961791
0.20080581237357112,-0.8228938053896699
0.15091457274136388,-0.7948333791394006
0.1700218560047624,-0.766772952889131
0.2910346500062863,-0.7333392535271079
0.4863535455876934,-0.7064728879683393
0.7581015742226944,-0.6712480975690649
1.1423702709643757,-0.6354262768240401
1.6444672144970145,-0.5888579098555078
2.1168417173977,-0.5482598463444797
2.2983609083999856,-0.5064677221419508
1.9703525457116446,-0.4772132352001805
1.131755113595821,-0.4449735965296582
-0.00512824057639065,-0.4127339578591358
-1.1091046069060826,-0.36258340881610107
-1.8967492836528437,-0.3112387990815655
-2.2290037092886066,-0.2598941893470299
-2.1822970168669658,-0.22228127756475385
-1.9487635547587618,-0.17750400163347282
-1.702491903808292,-0.12854751328193892
-1.4816966305423536,-0.07481478216440168
-1.2948698608557905,-0.034216718653373564
-1.1558112993277234,0.007575405549155395
-1.089997323642684,0.046979408368682696
-1.0623979144844418,0.08996559326271247
-1.0708900403792856,0.11981711055023316
-1.1558112993277234,0.1520567492207555
-1.3649298994882517,0.18071420581677536
-1.621816707807276,0.2135508748330481
-1.8128895404412613,0.23265584589706134
-1.8553501699154802,0.25474596868982663
-1.7905977099672963,0.2738509397538399
-1.6685234002289169,0.2959410625466052
-1.5390184803325493,0.3048965177328614
-1.3882832456990721,0.31624009430211925
-1.2057025389599307,0.3251955494883755
-0.9689845296411602,0.33713615640338374
-0.703605595427292,0.3359420957118829
-0.45521091300311123,0.33713615640338374
-0.26413808036912606,0.3347480350203821
-0.12826406605162552,0.33713615640338374
-0.042281291366332206,0.32579257983412585
0.01185601121329692,0.31624009430211925
0.03839390463468374,0.30310542669561014
0.058562703634937735,0.2959410625466052
0.05431664068751584,0.2816123342485953
0.01185601121329692,0.2750450004453407
-0.0815573736299847,0.26489548456758366
-0.17497075847326635,0.25474596868982663
-0.22910806105289547,0.2308647548598101
-0.22167745089490715,0.2135508748330481
-0.18346288436811012,0.19922214653503817
-0.12826406605162552,0.19325184307753404
-0.07837282641941828,0.17295281132201998
-0.03485068120834389,0.1520567492207555
-0.010435819260668014,0.12638444435348772
0.01185601121329692,0.11086165536397696
0.02990177873983996,0.08817450222546123
0.058562703634937735,0.06966656150719841
0.10208484884601213,0.04578534767718187
0.1976212651630047,0.028471467650419875
0.3324337637436498,0.004590253820403327
0.47786141969284956,-0.01272362620635867
0.5861360248521078,-0.03541077934487439
0.6646881893794129,-0.053918720063137214
0.716702460485331,-0.07839696423890417
0.7581015742226944,-0.09511381391991575
0.7899470463283587,-0.11600987602118024
0.8515149590659761,-0.1363089077766943
0.9417437966986913,-0.16974260713871747
1.0383417287525394,-0.1978030333889869
1.0946020628058795,-0.2240723686020051
1.131755113595821,-0.23899812724576544
1.1816463532280281,-0.26108825003853076
1.2718751908607435,-0.28019322110254397
1.3610425127566033,-0.30467146527831096
1.4119952681256658,-0.3213883149593225
1.3886419219148454,-0.34407546809783823
1.3185818832823841,-0.36258340881610107
1.2336606243339463,-0.3858675923003672
1.1784618060174619,-0.4037785026728796
1.1370626922800984,-0.42706268615714577
1.0850484211741802,-0.4449735965296582
1.0054347409100197,-0.4676607496681739
0.9449283439092577,-0.4861686903864367
0.9236980291721483,-0.5094528738707028
0.9449283439092577,-0.5273637842432153
0.9693432058569336,-0.5494539070359805
0.9916350363308986,-0.5685588780999937
0.9863274576466212,-0.5936341526215112
0.9449283439092577,-0.6097539719567723
0.853637990539687,-0.6234856699090319
0.7581015742226944,-0.6300530037122863
0.6880415355902333,-0.6479639140847988
0.6646881893794129,-0.6712480975690649
0.6508884848002917,-0.6999055541650848
0.617981496957772,-0.7124431914258434
0.5245681121144904,-0.72199567695785
0.38444803484956797,-0.7333392535271079
0.2326512844792353,-0.7578174977028749
0.15091457274136388,-0.7745343473838865
0.16471427732048505,-0.7858779239531444
0.2443279575846455,-0.7948333791394006
0.3090804175328294,-0.8175205322779163
0.33774134242792714,-0.8360284729961791
0.3472949840596264,-0.8491631406026882
0.38444803484956797,-0.8563275047516932
0.4247856328500759,-0.8778205971987081
0.4311547272712088,-0.8975225986084717
0.3833865191127125,-0.9136424179437329
0.33774134242792714,-0.9184186607097362
0.3228801221119505,-0.929762237278994
0.33774134242792714,-0.9387176924652503
0.3388028581647826,-0.9506582993802585
0.33774134242792714,-0.9596137545665148
0.36109468863874755,-0.9805098166677791
0.4311547272712088,-1.0008088484232933
0.5118299232722248,-1.0175256981043048
0.5712748045361312,-1.0211078801788074
0.5702132887992757,-1.0288692746735626
0.5245681121144904,-1.0420039422800718
0.45981565216630654,-1.0652881257643378
0.4311547272712088,-1.0831990361368504
0.4449544318503299,-1.09693073408911
0.47786141969284956,-1.1034980678923645
0.4746768724822832,-1.1154386748073726
0.4311547272712088,-1.1243941299936289
0.3695868145335913,-1.1363347369086372
0.33774134242792714,-1.144693161749143
0.3324337637436498,-1.157827829355652
0.33774134242792714,-1.164992193504657
0.3313722480067943,-1.1757387397281645
0.33774134242792714,-1.1858882556059216
0.3706483302704468,-1.2014110445954322
0.4311547272712088,-1.2061872873614357
0.4863535455876934,-1.2073813480529363
0.5245681121144904,-1.2061872873614357
0.523506596377635,-1.2181278942764437
0.47786141969284956,-1.2270833494627
0.3695868145335913,-1.231262561882953
0.2443279575846455,-1.2270833494627
0.1498530570045084,-1.234247713611705
0.15091457274136388,-1.247382381218214
0.23158976874237983,-1.2646962612449761
0.33774134242792714,-1.2682784433194785
0.39187864500755626,-1.2682784433194785
0.38444803484956797,-1.2682784433194785
0.3759559089547242,-1.2796220198887365
0.4311547272712088,-1.2885774750749925
0.5043993131142364,-1.2951448088782471
0.47786141969284956,-1.2885774750749925
0.29421919721685275,-1.2820101412717382
0.058562703634937735,-1.2682784433194785
-0.0815573736299847,-1.2587259577874719
-0.03485068120834389,-1.247382381218214
0.19655974942614923,-1.2420091081064604
0.617981496957772,-1.2270833494627
1.2039381837019931,-1.209769469435938
1.8780006766052186,-1.1858882556059216
2.491556772507682,-1.1685743755791596
2.8588412174596756,-1.144693161749143
2.74525903361614,-1.1237970996478786
2.018120753870141,-1.1034980678923645
0.8026852351706243,-1.09693073408911
-0.5019176054247521,-1.0831990361368504
-1.5315878701745609,-1.0545415795408304
-2.135590324445325,-1.0008088484232933
-2.3415243773952867,-0.9411058138482519
-2.1822970168669658,-0.8772235668529577
-1.7778595211250305,-0.8193116233151675
-1.3426380690142867,-0.753638285282622
-1.0846897449584068,-0.6867708865585757
-1.015691222062801,-0.6097539719567723
-1.0411675997473324,-0.5369162697752219
-1.1091046069060826,-0.46527262828517224
-1.2598398415395597,-0.4049725633643804
-1.4816966305423536,-0.342284377060587
-1.684446136281749,-0.2825813424855456
-1.7619367850721985,-0.21869909549025138
-1.7353988916508116,-0.16556339471846457
-1.6685234002289169,-0.11541284567542982
-1.6048324560175886,-0.0754118125101521
-1.4816966305423536,-0.033619688307623144
-1.289562282171513,-0.000783019291350396
-1.0623979144844418,0.028471467650419875
-0.8681405346398903,0.04638237802293228
-0.6887443751113153,0.06966656150719841
-0.49661002674047466,0.08936856291696206
-0.3150908357381888,0.11086165536397696
-0.207877746315786,0.11981711055023316
-0.17497075847326635,0.13116068711949103
-0.17921682142068823,0.1389220816142464
-0.17497075847326635,0.1520567492207555
-0.16223256963100066,0.15325080991225631
-0.12826406605162552,0.1520567492207555
-0.08474192084055113,0.14011614230574723
-0.03485068120834389,0.13116068711949103
0.0033638853184531346,0.1174289891672315
0.058562703634937735,0.11086165536397696
0.14136093110966463,0.09951807879471909
0.2443279575846455,0.08996559326271247
0.30695738605911843,0.06847250081569758
0.2910346500062863,0.048770499405933934
0.2018673281104266,0.02488928557591739
0.10526939605657855,0.007575405549155395
0.04688603052952753,-0.015708777935110736
0.058562703634937735,-0.033619688307623144
0.12649971079368802,-0.056306841446138865
0.2443279575846455,-0.07481478216440168
0.3462334683227709,-0.09929302634016865
0.38444803484956797,-0.11541284567542982
0.3632177201124585,-0.1363089077766943
0.38444803484956797,-0.15660793953220836
0.49590718721939264,-0.19063866923998193
0.6646881893794129,-0.21869909549025138
0.8122388768023235,-0.24437140035751917
0.9449283439092577,-0.2598941893470299
1.071248716595059,-0.28198431213979525
1.1784618060174619,-0.30108928320380846
1.2177378882811143,-0.3243734666880746
1.2251684984391027,-0.342284377060587
1.2580754862816224,-0.36556856054485315
1.365288575704025,-0.38347947091736556
1.5192083575480686,-0.4049725633643804
1.6911739069186553,-0.4246745647741441
1.8238633740255894,-0.45034686964141185
1.8780006766052186,-0.46527262828517224
1.8196173110781675,-0.4778102655459309
1.6911739069186553,-0.4861686903864367
1.562730502759143,-0.5070647524877012
1.5054086529689474,-0.5273637842432153
1.508593200179514,-0.5506479677274814
1.5521153453905883,-0.5685588780999937
1.6094371951807838,-0.5936341526215112
1.6911739069186553,-0.6097539719567723
1.7431881780245735,-0.6228886395632814
1.6911739069186553,-0.6300530037122863
1.5022241057583812,-0.6503520354678004
1.2718751908607435,-0.6712480975690649
1.1052172201744341,-0.6957263417448318
1.0383417287525394,-0.7124431914258434
0.9873889733834766,-0.7345333142186088
0.8982216514876169,-0.753638285282622
0.7559785427489836,-0.7769224687668881
0.617981496957772,-0.7948333791394006
0.5160759862196466,-0.8181175626236666
0.47786141969284956,-0.8360284729961791
0.48423051411398244,-0.857521565443194
0.5245681121144904,-0.8772235668529577
0.5691517730624203,-0.902298841374475
0.617981496957772,-0.9184186607097362
0.6498269690634362,-0.9315533283162453
0.6646881893794129,-0.9387176924652503
0.6487654533265808,-0.9578226635292635
0.617981496957772,-0.9799127863220288
0.5574750999570101,-1.006182121535047
0.47786141969284956,-1.0211078801788074
0.39930925516554455,-1.0342425477853163
0.38444803484956797,-1.0420039422800718
0.4375238216923416,-1.05394454919508
0.5245681121144904,-1.0623029740355858
0.5871975405889633,-1.0748406112963445
0.617981496957772,-1.0831990361368504
0.5871975405889633,-1.0951396430518585
0.47786141969284956,-1.1034980678923645
0.30058829163798556,-1.1160357051531231
0.15091457274136388,-1.1243941299936289
0.09040817574060192,-1.1363347369086372
0.10526939605657855,-1.144693161749143
0.12756122653054347,-1.1572307990099016
0.15091457274136388,-1.164992193504657
0.17851398189960618,-1.1769328004196653
0.1976212651630047,-1.1858882556059216
0.15728366716249673,-1.1984258928666802
0.058562703634937735,-1.2061872873614357
-0.08261888936684018,-1.2175308639306934
-0.22167745089490715,-1.2270833494627
-0.34375176063328655,-1.2402180170692092
-0.4085042205814704,-1.247382381218214
-0.4127502835288923,-1.2581289274417216
-0.3617975281598296,-1.2682784433194785
-0.29598355247479025,-1.2838012323089893
-0.22167745089490715,-1.2885774750749925
-0.15374044373615686,-1.2897715357664934
-0.0815573736299847,-1.2885774750749925
-0.013620366471234433,-1.3005180819900009
0.058562703634937735,-1.3094735371762571
0.1031463645828676,-1.3142497799422603
0.10526939605657855,-1.3094735371762571
0.041578451845250164,-1.3118616585592588
-0.03485068120834389,-1.3094735371762571
-0.08898798378797301,-1.3046972944102537
-0.0815573736299847,-1.2885774750749925
-0.038035228418910313,-1.2796220198887365
0.01185601121329692,-1.2682784433194785
0.018225105634429757,-1.2569348667502207
-0.03485068120834389,-1.2270833494627
-0.12083345589363721,-1.1912615287176753
-0.17497075847326635,-1.144693161749143
-0.17072469552584443,-1.1005129161636122
-0.12826406605162552,-1.0420039422800718
-0.0974801096828168,-0.9769276345932767
-0.0815573736299847,-0.8975225986084717
-0.06032705889287525,-0.8205056840066683
0.01185601121329692,-0.7333392535271079
0.1933752022155828,-0.6455757927017971
0.5712748045361312,-0.5476628159987293
1.1582930070172077,-0.45691420344466643
1.8312939841835778,-0.36258340881610107
2.332329411979361,-0.27481994799079024
2.3917742932432673,-0.17750400163347282
1.8440321730258433,-0.08138211596765624
0.7581015742226944,0.028471467650419875
-0.5581779394780921,0.13713099057699515
-1.7152300926505577,0.25474596868982663
-2.5177359897132954,0.3651965826536532
-2.9752492722980044,0.4810204697292334
-3.138722695773747,0.5902770230015592
-2.9752492722980044,0.7072949707686402
-2.560196619187514,0.8171485543867163
-2.135590324445325,0.933569471808047
-1.9254102085479414,1.043423055426123
-1.902056862337121,1.1604410031932042
-1.9275332400216523,1.2643242833537762
-1.9487635547587618,1.3658194421313465
-2.030500266496633,1.4541799333024077
-2.1822970168669658,1.5514958796597251
-2.373369849500951,1.6434385529052888
-2.5559505562400924,1.7365752868423534
-2.681209413189038,1.808218928332403
-2.649363941083374,1.880459600168203
-2.442368372396557,1.9473269988922493
-2.135590324445325,2.024343913494053
-1.8351813709152263,2.0816588266860925
-1.5284033229639944,2.1276301633088743
-1.192964350117665,2.1521084074846413
-0.8755711447978786,2.189124288921167
-0.6802522492164715,2.2261401703576924
-0.6420376826896744,2.271514476634724
-0.7025440796904364,2.2947986601189903
-0.7821577599545969,2.3127095704915024
-0.8426641569553589,2.3168887829117555
-0.8755711447978786,2.3330086022470167
-0.8872478179032888,2.3413670270875224
-0.8755711447978786,2.353904664348281
-0.8511562828502026,2.3503224822737785
-0.8288644523762377,2.353904664348281
-0.8341720310605151,2.348531391236527
-0.8755711447978786,2.353904664348281
-0.9360775417986406,2.349128421582278
-0.9689845296411602,2.353904664348281
-0.937139057535496,2.348531391236527
-0.8288644523762377,2.353904664348281
-0.6823752806901825,2.348531391236527
-0.5486242978463929,2.353904664348281
-0.48493335363506446,2.348531391236527
-0.5019176054247521,2.353904664348281
-0.5879003801100453,2.348531391236527
-0.6887443751113153,2.353904664348281
-0.7556198665332101,2.347934360890777
-0.7354510675329561,2.353904664348281
-0.6271764623736978,2.349128421582278
-0.45521091300311123,2.353904664348281
-0.2906759737905129,2.347934360890777
-0.17497075847326635,2.353904664348281
-0.11977194015678173,2.349725451928028
-0.0815573736299847,2.353904664348281
-0.04015825989262126,2.346143269853526
0.01185601121329692,2.353904664348281
0.06705482952978152,2.35271060365678
0.15091457274136388,2.353904664348281
0.265558272321755,2.336590784321519
0.38444803484956797,2.3330086022470167
0.460877167903162,2.3288293898267636
0.47786141969284956,2.3330086022470167
0.42797018006064236,2.318082843603256
0.33774134242792714,2.3127095704915024
0.265558272321755,2.306142236688248
0.2910346500062863,2.3127095704915024
0.40992441253409934,2.300171933230744
0.5245681121144904,2.2924105387359885
0.5288141750619123,2.2762907194007274
0.4311547272712088,2.271514476634724
0.3143879962171067,2.2494243538419587
0.2443279575846455,2.2303193827779455
0.2018673281104266,2.2016619261819255
0.15091457274136388,2.189124288921167
0.0755469554246253,2.1670341661284014
0.01185601121329692,2.147929195064388
-0.02529703957664464,2.1121073743193635
-0.03485068120834389,2.086435069452096
-0.04865038578746504,2.0571805825103255
-0.0815573736299847,2.045239975595317
-0.1728477269995554,2.0231498528025518
-0.3150908357381888,2.0040448817385386
-0.4573339444768222,1.9688200913392642
-0.5019176054247521,1.942550756126246
-0.45521091300311123,1.9126992388387254
-0.4085042205814704,1.9013556622694674
-0.4509648500556893,1.8798625698224527
-0.5486242978463929,1.860160568412689
-0.6505298085845183,1.8225476566304128
-0.7354510675329561,1.798069412454646
-0.8033880746917064,1.7723971075873781
-0.7821577599545969,1.7568743185978675
-0.6420376826896744,1.7240376495815946
-0.45521091300311123,1.6953801929855747
-0.36392055963354053,1.6589613418947995
-0.4085042205814704,1.6332890370275317
-0.5189018572144396,1.597467216282507
-0.5953309902680337,1.5717949114152392
-0.6250534308999869,1.5377641817074656
-0.6420376826896744,1.5103007858029465
-0.6844983121638933,1.4714938133291697
-0.7354510675329561,1.4482096298449034
-0.7736656340597531,1.4249254463606373
-0.7821577599545969,1.407014535988125
-0.7704810868491867,1.3717897455888506
-0.7354510675329561,1.3455204103758325
-0.6760061862690496,1.3198481055085647
-0.5953309902680337,1.3043253165190538
-0.5273939831092834,1.2708916171570306
-0.5019176054247521,1.2428311909067613
-0.5411936876884046,1.2141737343107413
-0.6420376826896744,1.2016360970499826
-0.798080496007429,1.1783519135657166
-0.9689845296411602,1.1604410031932042
-1.0963664180638168,1.1341716679801859
-1.1091046069060826,1.1192459093364255
-0.9997684860099689,1.0947676651606586
-0.8288644523762377,1.078050815479647
-0.7067901426378583,1.0535725713038802
-0.6887443751113153,1.0368557216228684
-0.7556198665332101,1.0105863864098503
-0.8288644523762377,0.99566062776609
-0.8660175031661793,0.9729734746275742
-0.8755711447978786,0.9544655339093114
-0.9052935854298317,0.9252110469675412
-0.9689845296411602,0.9132704400525329
-1.051782757115887,0.9013298331375247
-1.1091046069060826,0.8929714082970188
-1.128211890169481,0.8655080123924999
-1.1091046069060826,0.8517763144402403
-1.0910588393795395,0.8440149199454849
-1.1091046069060826,0.8517763144402403
-1.1844722242228212,0.8464030413284865
-1.295931376592646,0.8517763144402403
-1.3829756670147946,0.8559555268604931
-1.3882832456990721,0.8720753461957543
-1.311854112645478,0.8756575282702569
-1.2025179917493642,0.8929714082970188
-1.1027355124849498,0.9150615310897842
-1.015691222062801,0.9544655339093114
-0.9286469316406522,0.9813318994680801
-0.8288644523762377,1.015959659521604
-0.679190733479616,1.0499903892293776
-0.4085042205814704,1.0983498472351612
0.013979042687007864,1.1305894859056835
0.5245681121144904,1.1604410031932042
0.9725277530675001,1.1813370652944686
1.1784618060174619,1.2219351288054967
0.9672201743832226,1.2601450709335231
0.2443279575846455,1.3043253165190538
-0.8861863021664332,1.3365649551895762
-2.088883632023684,1.386715504232611
-2.956141989034606,1.4362690229298953
-3.255489426827849,1.489404723701682
-3.073970235825563,1.5246295141009565
-2.696070633505015,1.5717949114152392
-2.407338353080326,1.620751399766773
-2.3224170941318882,1.6744841308843104
-2.397784711448627,1.7037386178260805
-2.5092438638184515,1.7365752868423534
-2.5591351034506586,1.770606016550127
-2.5092438638184515,1.8189654745559105
-2.40415380586976,1.8494140221891815
-2.3224170941318882,1.880459600168203
-2.330909220026732,1.9055348746897205
-2.41583047897517,1.942550756126246
-2.51667447397644,1.9634468182275104
-2.5559505562400924,1.9831488196372742
-2.5177359897132954,1.9897161534405288
-2.41583047897517,2.0040448817385386
-2.290571622026224,2.0100151851960426
-2.135590324445325,2.024343913494053
-1.9349638501796407,2.0255379741855535
-1.6685234002289169,2.024343913494053
-1.3596223208039742,2.007627063813041
-1.0623979144844418,2.0040448817385386
-0.8309874838499487,1.9998656693182857
-0.6887443751113153,2.0040448817385386
-0.6335455567948307,1.990313183786279
-0.6420376826896744,1.9831488196372742
-0.7004210482167255,1.970014152030765
-0.7821577599545969,1.9628497878817601
-0.8543408300607691,1.9389685740517435
-0.8755711447978786,1.9216546940249815
-0.8288644523762377,1.8983705105407154
-0.7354510675329561,1.880459600168203
-0.6579604187425065,1.8452348097689286
-0.6420376826896744,1.8189654745559105
-0.6866213436376043,1.7915020786513913
-0.7354510675329561,1.7777703806991318
-0.7524353193226436,1.74612777237436
-0.7354510675329561,1.7156792247410888
-0.7025440796904364,1.6774692826130624
-0.6420376826896744,1.6541850991287963
-0.5549933922675256,1.621945460458274
-0.45521091300311123,1.5926909735165036
-0.36710510684410697,1.5473166672394723
-0.268384143316548,1.5103007858029465
-0.1441868021044576,1.4702997526376689
0.01185601121329692,1.4482096298449034
0.1625912458467741,1.4183581125573828
0.2910346500062863,1.386715504232611
0.35684862569132564,1.3383560462268274
0.33774134242792714,1.3043253165190538
0.24326644184779003,1.2708916171570306
0.15091457274136388,1.2428311909067613
0.12968425800425443,1.196262823938229
0.1976212651630047,1.1604410031932042
0.3090804175328294,1.1252162127939298
0.4311547272712088,1.0983498472351612
0.5362447852199006,1.0541696016496305
0.617981496957772,1.015959659521604
0.6572575792214246,0.9795408084308288
0.6646881893794129,0.9544655339093114
0.6540730320108581,0.9126734097067825
0.6646881893794129,0.8720753461957543
0.7156409447484755,0.8308802523389758
0.8048082666443352,0.8105812205834617
0.8695607265925192,0.7819237639874419
0.8515149590659761,0.7484900646254188
0.7294406493275967,0.7001306066196352
0.5712748045361312,0.6660998769118617
0.45875413642945106,0.6332632078955889
0.4311547272712088,0.6046057512995691
0.4300932115343533,0.5592314450225376
0.38444803484956797,0.522215563586012
0.2602506936374776,0.48699077318673756
0.10526939605657855,0.46072143797371934
-0.038035228418910313,0.41773525307968956
-0.12826406605162552,0.3783312502601623
-0.16117105389414518,0.3401213081321358
-0.12826406605162552,0.31624009430211925
-0.08049585789312924,0.28459748597734735
-0.0815573736299847,0.25474596868982663
-0.16647863257842255,0.21892414794480183
-0.268384143316548,0.19325184307753404
-0.3341981190015873,0.1604151740612613
-0.3617975281598296,0.13116068711949103
-0.41805786221316965,0.0953388663744662
-0.5019176054247521,0.06966656150719841
-0.5677315811097914,0.04339722629418021
-0.5486242978463929,0.028471467650419875
-0.46158000742424404,0.007575405549155395
-0.3617975281598296,-0.01272362620635867
-0.326767508843599,-0.046754355914132247
-0.3617975281598296,-0.07481478216440168
-0.4276115038448689,-0.1016811477231703
-0.45521091300311123,-0.11541284567542982
-0.4509648500556893,-0.13571187743094387
-0.45521091300311123,-0.15660793953220836
-0.5146557942670177,-0.19063866923998193
-0.5953309902680337,-0.21869909549025138
-0.6484067771108073,-0.24556546104902
-0.6420376826896744,-0.2598941893470299
-0.6017000846891665,-0.2795961907567936
-0.5486242978463929,-0.30108928320380846
-0.5019176054247521,-0.33452298256583163
-0.45521091300311123,-0.36258340881610107
-0.4244269566343025,-0.38944977437486966
-0.4085042205814704,-0.4037785026728796
-0.41062725205518136,-0.42288347373689283
-0.4085042205814704,-0.4449735965296582
-0.4042581576340485,-0.47960135658318215
-0.4085042205814704,-0.5064677221419508
-0.4594569759505331,-0.5315429966634682
-0.5486242978463929,-0.5476628159987293
-0.6218688836894205,-0.5709469994829954
-0.5953309902680337,-0.5888579098555078
-0.4806872906876426,-0.6055747595365194
-0.3617975281598296,-0.6097539719567723
-0.3288905403173099,-0.6187094271430286
-0.3617975281598296,-0.6300530037122863
-0.39151996879178286,-0.653934217542303
-0.3617975281598296,-0.6712480975690649
-0.28430687936938004,-0.6867708865585757
-0.17497075847326635,-0.6921441596703294
-0.08261888936684018,-0.7022936755480864
-0.03485068120834389,-0.7124431914258434
-0.07306524773514092,-0.7339362838728584
-0.17497075847326635,-0.753638285282622
-0.3161523514750442,-0.7727432563466352
-0.45521091300311123,-0.7745343473838865
-0.5592394552149476,-0.7739373170381361
-0.5953309902680337,-0.7745343473838865
-0.5762237070046351,-0.7894601060276468
-0.5486242978463929,-0.7948333791394006
-0.5465012663726819,-0.7912511970648981
-0.5486242978463929,-0.7745343473838865
-0.5337630775304162,-0.7655788921976303
-0.5019176054247521,-0.753638285282622
-0.44884181858197836,-0.740503617676113
-0.3150908357381888,-0.7124431914258434
-0.030604618260922003,-0.6855768258670748
0.4311547272712088,-0.6509490658135508
1.012865351068008,-0.6210975485260302
1.598822037812229,-0.5888579098555078
2.0149362066595744,-0.5643796656797408
2.064827446291782,-0.5273637842432153
1.5935144591279518,-0.4831835386576846
0.617981496957772,-0.4246745647741441
-0.6494682928476628,-0.37332995503960853
