ECG,PPG
0.07572400662596704,-0.8886267831248273
0.02838368851870784,-0.946741701322184
-0.0714426344465996,-0.8091785405259094
-0.11260812845291193,-0.8489026618253684
-0.16200672126048674,-0.8415463430662093
-0.20831790201758812,-0.8157992274091527
-0.24948339602390046,-0.7922590073798436
-0.2793283791784769,-0.7929946392557595
-0.30402767558226435,-0.796672798635339
-0.3297561093362095,-0.7878452161243482
-0.35239713103968134,-0.7775463698615255
-0.3688633286422063,-0.7753394742337778
-0.3822421141942578,-0.77313257860603
-0.39562089974630926,-0.7620981004672914
-0.4089996852983608,-0.7503279904526369
-0.4203201961500967,-0.7415004079416461
-0.4326698443519904,-0.7319371935547393
-0.44399035520372626,-0.7201670835400847
-0.45531086605546217,-0.7076613416495143
-0.4583982781059356,-0.6980981272626076
-0.4604565528062512,-0.687063649123869
-0.45634000340562,-0.6775004347369622
-0.45016517930467315,-0.6694084841018871
-0.44090294315325285,-0.6605809015908963
-0.42855329495135913,-0.6510176872039896
-0.407970547948203,-0.6385119453134191
-0.3729798780428375,-0.623799307795101
-0.3143190490838424,-0.6068797746490351
-0.22478409962011306,-0.5899602415029692
-0.10231675495133384,-0.5730407083569033
0.045879023471390584,-0.5583280708385853
0.2053953127458509,-0.5406729058166035
0.3463871297174707,-0.5230177407946217
0.4359220791812,-0.5016844163930605
0.430776392430411,-0.481822355743331
0.30419249836100054,-0.46122466321768557
0.04484988612123278,-0.4450407619475356
-0.3194647358346315,-0.42959249255330156
-0.7321488132479127,-0.41782238253864706
-1.1129296328063019,-0.4031097450203289
-1.3928549920492257,-0.386925843750179
-1.525613710219583,-0.36338562372086997
-1.5173806114183206,-0.3369028761878973
-1.3938841293993836,-0.30453507364759747
-1.2168725051722404,-0.27290290298321346
-1.0316277821438349,-0.23906383669108175
-0.8772571796201637,-0.2111098254062773
-0.7650812084529626,-0.18536270974922053
-0.698187280692705,-0.16623628097540696
-0.6611383360870239,-0.15005237970525703
-0.6457012758346568,-0.1382822696906025
-0.6374681770333943,-0.12504089592411619
-0.6333516276327631,-0.11253515403354578
-0.6323224902826052,-0.09561562088747992
-0.6323224902826052,-0.07943171961732998
-0.6374681770333943,-0.0610409227194323
-0.6405555890838677,-0.04559265332519826
-0.6467304131848146,-0.03088001580688013
-0.644672138484499,-0.020581169544057434
-0.6457012758346568,-0.011753587033066552
-0.6405555890838677,-0.0051329001498233925
-0.6395264517337099,1.6522981587954936e-05
-0.6364390396832365,0.0036946823611674886
-0.6333516276327631,0.0073728417407470225
-0.6261476661816584,0.008844105492578837
-0.6127688806296069,0.008108473616662929
-0.5901278589261351,0.005165946112999302
-0.5571954637210852,0.002959050485251582
-0.5129425576642994,1.6522981587954936e-05
-0.4573691407557778,-0.0014547407702438587
-0.38841693829520463,-0.0036616363979915787
-0.30402767558226435,-0.004397268273907485
-0.2042013526169569,-0.008811059529402926
-0.08173400794817767,-0.015431746412646087
0.062345221073915526,-0.024994960799552875
0.23215288384995394,-0.033822543310543754
0.4225432936291485,-0.04485702144928236
0.6335164504114993,-0.05221334020844142
0.8527227059951125,-0.06177655459534821
1.0729580989288836,-0.06913287335450728
1.275698156909972,-0.07943171961732998
1.4527097811371148,-0.09046619775606858
1.5844393619573143,-0.10665009902621853
1.667799487320097,-0.12356963217228438
1.689411371673411,-0.14416732469792976
1.6544207017680455,-0.16402938534765926
1.558710928203369,-0.18536270974922053
1.413602561831118,-0.2030178747712023
1.2252704267522392,-0.21993740791726815
1.0142972699698884,-0.2324431498078386
0.7889161902853283,-0.244948891698409
0.5676516600013995,-0.2567190017130635
0.3597659152695222,-0.27069600735546573
0.17452119224111665,-0.28540864487378387
0.012946628266340713,-0.30453507364759747
-0.12598691400496345,-0.3243971342973269
-0.2433085719229536,-0.3464660905748041
-0.34004748283778763,-0.3677994149763654
-0.4192910587999389,-0.3891327393779267
-0.4841267118598808,-0.4089948000276562
-0.5335253046674556,-0.42812122880146974
-0.5716033866232946,-0.4443051300716197
-0.596302683027082,-0.46048903134176966
-0.6086523312289757,-0.4752016688600878
-0.6035066444781866,-0.49138557013023776
-0.5839530348251882,-0.5075694714003877
-0.5438166781690337,-0.5266959001742013
-0.49133067331098546,-0.5465579608239307
-0.4203201961500967,-0.568626917101408
-0.3369600707873142,-0.5899602415029692
-0.23507547312169114,-0.6120291977804465
-0.1198120899040166,-0.63115562655426
0.021179727067603182,-0.6495464234521577
0.1817251536922213,-0.6620521653427281
0.3690281514209425,-0.6745579072332986
0.5697099347017152,-0.6826498578683735
0.7765665420834347,-0.6936843360071121
0.9710735012632605,-0.702511918518103
1.1419103013894567,-0.7179601879123371
1.275698156909972,-0.7304659298029075
1.372437067824806,-0.7466498310730574
1.435214446184432,-0.7569486773358801
1.4784382148910602,-0.7687187873505346
1.505195785995163,-0.7753394742337778
1.5257785329983193,-0.7863739523725164
1.538128181200213,-0.7937302711316754
1.5401864559005287,-0.8062360130222458
1.5340116317995818,-0.8150635955332367
1.516516296846899,-0.8275693374238071
1.5000500992443742,-0.8349256561829662
1.4774090775409023,-0.844488870569873
1.4485932317364836,-0.8503739255772003
1.4002237762790666,-0.8592015080881912
1.323038475017231,-0.8650865630955183
1.2170373279509767,-0.8746497774824251
1.0904534338815663,-0.883477359993416
0.9659278145124714,-0.8967187337599024
0.866101491547164,-0.9084888437745569
0.8167028987395892,-0.9224658494169591
0.8290525469414829,-0.9327646956797818
0.8990338867522139,-0.9423279100666886
0.9978310723673635,-0.946741701322184
1.082220335080304,-0.9496842288258477
1.0894242965314085,-0.9511554925776795
0.9762191880140495,-0.9533623882054272
0.7271679492758598,-0.954833651957259
0.382406936972994,-0.9577761794609226
0.020150589717445374,-0.9592474432127545
-0.26080390687563637,-0.9599830750886703
-0.38944607564536243,-0.9577761794609226
-0.3369600707873142,-0.955569283833175
-0.12804518870527906,-0.9511554925776795
0.17349205489095884,-0.9482129650740159
0.4945829081401951,-0.9437991738185204
0.7775956794335924,-0.9401210144389409
0.9844522868153119,-0.9327646956797818
1.1089779061844067,-0.9254083769206227
1.156318224291666,-0.9129026350300523
1.1439685760897722,-0.9003968931394819
1.0894242965314085,-0.8812704643656684
1.011209857919415,-0.8628796674677707
0.9155000843547388,-0.8393394474384617
0.8136154866891158,-0.8194773867887322
0.7045269275723881,-0.796672798635339
0.5964675058058182,-0.7790176336133573
0.4801749852379858,-0.7598912048395438
0.3731447008215737,-0.7473854629489733
0.2650852790550038,-0.7319371935547393
0.17040464284048543,-0.7231096110437484
0.08086969337675608,-0.7091326054013461
0.005742666815236053,-0.6995693910144394
-0.05703471154439027,-0.6848567534961212
-0.10437502965164946,-0.6745579072332986
-0.13730742485669933,-0.6605809015908963
-0.15274448510906646,-0.6502820553280736
-0.1568610345096977,-0.6370406815615873
-0.1455405236579618,-0.6274774671746804
-0.12907432605543687,-0.6142360934081942
-0.09922934290086043,-0.6039372471453714
-0.06526781034565274,-0.5906958733788852
-0.015869217538077927,-0.5803970271160624
0.04382074877107497,-0.5693625489773239
0.12306432473322623,-0.5620062302181648
0.22083237299821804,-0.5539142795830898
0.34329971766699724,-0.5472935926998467
0.48737894668909043,-0.5399372739406876
0.6551283347648132,-0.5311096914296967
0.8403730577932188,-0.5193395814150422
1.0359091543232024,-0.5060982076485558
1.2293869761528704,-0.48917867450249003
1.4053694630298557,-0.47225914135642416
1.5515069667522645,-0.4560752400862742
1.6523624270677297,-0.4413626025679561
1.6976444704746734,-0.42812122880146974
1.6801491355219906,-0.41708675066273115
1.601934696909997,-0.40605227252399256
1.4650594293390087,-0.39354653063342215
1.2829021183610765,-0.3773626293632722
1.0688415495282524,-0.35823620058945865
0.84448960719385,-0.3346959805601496
0.6211668022096055,-0.30747760115126105
0.41533933217804386,-0.27805232611462477
0.2290654717994805,-0.2471557873261567
0.07057831987517799,-0.21552361666177272
-0.06526781034565274,-0.18536270974922053
-0.17847291886301167,-0.1566730665885002
-0.2710952803772144,-0.13313284655919116
-0.34313489488826104,-0.11106389028171397
-0.39665003709646707,-0.09193746150790039
-0.434728119052306,-0.06986850523042319
-0.46457310220688247,-0.04632828520111417
-0.49544722271161673,-0.017638642040393806
-0.5273504805665088,0.011786632996242464
-0.5674868372226634,0.043418803660626455
-0.6055649191785022,0.07210844682134682
-0.6426138637841833,0.10006245810615128
-0.6683422975381286,0.12286704625954438
-0.6909833192416004,0.14420037066110566
-0.7053912421438097,0.16111990380717153
-0.7239157144466503,0.1780394369532374
-0.7424401867494907,0.1927520744715555
-0.7661103458031203,0.20820034386578956
-0.7877222301564344,0.2221773495081918
-0.8083049771595905,0.23615435515059402
-0.8247711747621155,0.24866009704116443
-0.8391790976643247,0.26116583893173484
-0.8546161579166919,0.2707290533186416
-0.8751989049198481,0.2788210039537166
-0.8978399266233199,0.28617732271287566
-0.9204809483267916,0.29353364147203476
-0.9379762832794744,0.3001543283552779
-0.945180244730579,0.3067750152385211
-0.9420928326801056,0.3133957021217642
-0.9338597338788431,0.3185451252531756
-0.9276849097778963,0.32369454838458694
-0.9245974977274228,0.32737270776416644
-0.9338597338788431,0.32957960339191417
-0.9420928326801056,0.3303152352678301
-0.956500755582315,0.32810833964008235
-0.9595881676327884,0.32295891650867103
-0.961646442333104,0.3141313339976801
-0.9554716182321571,0.3030968558589415
-0.9523842061816837,0.2891198502165393
-0.9503259314813681,0.275878476450053
-0.9523842061816837,0.26263710268356666
-0.9503259314813681,0.25086699266891216
-0.9379762832794744,0.24130377828200536
-0.9009273386737933,0.23321182764693038
-0.8371208229640091,0.22511987701185543
-0.7372944999987017,0.21482103074903272
-0.6199728420807116,0.2023152888584623
-0.504709458863037,0.18686701946422826
-0.43987380580309504,0.1677405906904147
-0.46148569015640906,0.1471428981647693
-0.6076231938788178,0.12728083751503982
-0.8669658061185856,0.10815440874122624
-1.203493719620189,0.09123487559516039
-1.536934221071319,0.07652223807684226
-1.794218558610771,0.06401649618627184
-1.9135984912290769,0.05224638617161734
-1.8847826454246583,0.04121190803287873
-1.7293829055508292,0.030177429894140132
-1.5060601005665848,0.018407319879485625
-1.2662710979798153,0.005901577988915209
-1.0604436279482536,-0.008811059529402926
-0.9101895748252136,-0.02573059267546878
-0.8175672133110108,-0.04485702144928236
-0.7712560325539094,-0.06471908209901184
-0.7578772470018579,-0.08531677462465723
-0.7650812084529626,-0.1051788352743867
-0.7815474060554874,-0.12209836842045256
-0.8093341145097483,-0.1368110059387707
-0.8443247844151138,-0.14931674782934112
-0.886519415771584,-0.16108685784399562
-0.9204809483267916,-0.1721213359827342
-0.9420928326801056,-0.18389144599738874
-0.9235683603772651,-0.19713281976387506
-0.8731406302195325,-0.21037419353036138
-0.7764017193046985,-0.22508683104867952
-0.6611383360870239,-0.23906383669108175
-0.5283796179166665,-0.25451210608531577
-0.40385399854757176,-0.268489111727718
-0.2803575165286347,-0.2861442767496998
-0.16303585861064454,-0.30232817801984974
-0.025131453689498203,-0.3214546067936633
0.13438483558496211,-0.3361672443119814
0.3371248935660504,-0.3523511455821314
0.5727973467521885,-0.36338562372086997
0.8455187445440079,-0.3766269974873563
1.1367646146386676,-0.3883971075020108
1.4372727208847478,-0.40384537689624483
1.731606003029881,-0.4192936462904789
2.0135896369731205,-0.4384200750642925
2.279107073313835,-0.45460397633444244
2.5343331361529717,-0.47225914135642416
2.784413512241319,-0.4862361469988264
3.0293482015788777,-0.5016844163930605
3.2629623800647,-0.5134545264077149
3.4667315753959462,-0.5266959001742013
3.62007304056946,-0.5369947464370239
3.703433165932242,-0.5495004883275943
3.709607990033189,-0.5597993345904171
3.6375683755221426,-0.5723050764809875
3.495547421200365,-0.5833395546197261
3.2979530499700656,-0.5958452965102965
3.056105772682981,-0.6068797746490351
2.780296962840688,-0.6171786209118578
2.4869928180457124,-0.6252705715469328
2.186484711799632,-0.6326268903060919
1.8993553911056038,-0.639247577189335
1.6431001909163094,-0.6451326321966623
1.4372727208847478,-0.6495464234521577
1.290106079812181,-0.6539602147076532
1.204687679749083,-0.6576383740872327
1.1686678724935597,-0.662787797218644
1.1686678724935597,-0.6672015884741395
1.1892506194967158,-0.6723510116055508
1.2180664653011346,-0.6760291709851304
1.2509988605061844,-0.6804429622406258
1.284960393061392,-0.6819142259924575
1.3189219256165998,-0.6833854897442894
1.3467086340708605,-0.6819142259924575
1.3683205184241747,-0.6804429622406258
1.3734662051749635,-0.6760291709851304
1.3693496557743323,-0.6723510116055508
1.3477377714210184,-0.6672015884741395
1.3189219256165998,-0.66352342909456
1.275698156909972,-0.6583740059631485
1.2283578388027125,-0.6539602147076532
1.166609597793244,-0.6458682640725781
1.1007448073831443,-0.6370406815615873
1.0235595061213087,-0.6215924121673533
0.941228518108684,-0.6046728790212874
0.8496352939446391,-0.5818682908678943
0.7549546577301207,-0.5605349664663329
0.6551283347648132,-0.5347878508092763
0.554272874449348,-0.5112476307799673
0.44930086473325154,-0.4862361469988264
0.3474162670676285,-0.4649028225972651
0.24553166940200544,-0.4428338663197879
0.1549675825881183,-0.42444306942189025
0.06852004517486238,-0.40384537689624483
-0.0024904319860264154,-0.3839833162465154
-0.06629694769581054,-0.3604430962172063
-0.11672467785354317,-0.3369028761878973
-0.16303585861064454,-0.3111557605308406
-0.20111394056648346,-0.2876155405015316
-0.23610461047184897,-0.26407532047222254
-0.2669787309765832,-0.24347762794657718
-0.29682371413115965,-0.22508683104867952
-0.3225521478851049,-0.2111098254062773
-0.35033885633936573,-0.20007534726753867
-0.3729798780428375,-0.19419029226021142
-0.39459176239615146,-0.18830523725288417
-0.40488313589772956,-0.18315581412147283
-0.39973744914694054,-0.17506386348639785
-0.3719507406926797,-0.16550064909949105
-0.3215230105349471,-0.15299490720892064
-0.2525708080743739,-0.13975353344243432
-0.17950205621316948,-0.126512159675948
-0.12495777665480563,-0.11474204966129349
-0.11672467785354317,-0.1051788352743867
-0.18258946826364292,-0.09782251651522764
-0.34004748283778763,-0.09193746150790039
-0.5921861336264507,-0.08825930212832085
-0.9112187121753713,-0.08384551087282542
-1.2477466256769747,-0.07943171961732998
-1.5348759463710033,-0.07281103273408682
-1.719091532049251,-0.06398345022309593
-1.7654027128063525,-0.05368460396027324
-1.68204258744357,-0.04412138957336645
-1.49885613911548,-0.034558175186459664
-1.2693585100302887,-0.02573059267546878
-1.0408900182952552,-0.0169030101644779
-0.8515287458662185,-0.006604163901655206
-0.7136243409450721,0.005901577988915209
-0.6271768035318163,0.01914295175540153
-0.5788073480743992,0.03459122114963557
-0.5541080516706118,0.04783259491612189
-0.5397001287684025,0.0596027049307764
-0.53146702996714,0.06769465556585137
-0.5335253046674556,0.07505097432501044
-0.5479332275696649,0.0816716612082536
-0.579836485424557,0.08976361184332858
-0.6210019794308693,0.09932682623023537
-0.6673131601879707,0.11256819999672169
-0.7023038300933362,0.12728083751503982
-0.7197991650460189,0.14420037066110566
-0.7125952035949144,0.16111990380717153
-0.676575396339391,0.17656817320140558
-0.617914567380396,0.19128081071972372
-0.5355835793677712,0.20378655261029413
-0.44501949255388407,0.21482103074903272
-0.35136799368952354,0.22585550888777134
-0.2659495936264254,0.2354187232746781
-0.18979342971474758,0.2449819376615849
-0.12495777665480563,0.252338256420744
-0.061151260945021504,0.2582233114280712
0.005742666815236053,0.26190147080765075
0.08601538012754512,0.2641083664353985
0.1796668789919057,0.2648439983113144
0.29287198750926463,0.2648439983113144
0.4246015683294641,0.26337273455948257
0.5779430335029776,0.26190147080765075
0.7487798336291738,0.2589589433039871
0.9350536940077372,0.2560164158003235
1.1264732411370895,0.25160262454482807
1.3148053762159686,0.2449819376615849
1.483583901641849,0.2354187232746781
1.6235465812633112,0.2229129813841077
1.7171980801276716,0.20672908011395774
1.7604218488342995,0.18833828321606008
1.7439556512317747,0.1677405906904147
1.6719160367207282,0.1471428981647693
1.5463612800014754,0.12875210126687164
1.3827284413263838,0.11477509562446941
1.188221482146558,0.10447624936164672
0.9823940121149963,0.09785556247840355
0.7734791300329612,0.09123487559516039
0.575884758802662,0.08387855683600133
0.3937274478247299,0.070637183069515
0.23318202120011175,0.05371764992344915
0.09116106687833417,0.03311995739780376
-0.03130627779044506,0.013993528623990182
-0.13936569955701494,-0.004397268273907485
-0.23404633577153333,-0.02131680141997334
-0.3174064611343158,-0.0389719664419551
-0.39047521299552024,-0.05883402709168459
-0.45428172870530437,-0.0823742471209936
-0.509855145613826,-0.10812136277805033
-0.5571954637210852,-0.13313284655919116
-0.601448369777871,-0.15520180283666837
-0.6405555890838677,-0.17359259973456603
-0.6817210830901801,-0.189776501004716
-0.7167117529955456,-0.20743166602669774
-0.7547898349513845,-0.2265580948005113
-0.7856639554561188,-0.24862705107798852
-0.8175672133110108,-0.2743741667350453
-0.8412373723646404,-0.30379944177168156
-0.8669658061185856,-0.3339603486842337
-0.886519415771584,-0.3655925193486177
-0.9060730254245823,-0.3964890581370858
-0.9173935362763183,-0.426649965049638
-0.9256266350775807,-0.4516614488307788
-0.9204809483267916,-0.4752016688600878
-0.9060730254245823,-0.4950637295098173
-0.8731406302195325,-0.5156614220354627
-0.8247711747621155,-0.5347878508092763
-0.7568481096517001,-0.5590637027145011
-0.6683422975381286,-0.5826039227438102
-0.5551371890207696,-0.6120291977804465
-0.41517450939930767,-0.639983209065251
-0.2433085719229536,-0.6730866434814667
-0.036451964541234096,-0.701776286642187
0.19613307659443063,-0.734144089182487
0.45753396353451403,-0.7584199410877119
0.7168765757742818,-0.7826957929929368
0.9741609133137339,-0.7988796942630868
1.1923380315471894,-0.8180061230369003
1.3755244798752793,-0.8319831286793026
1.4979918245440584,-0.8533164530808639
1.5720897137554206,-0.8739141456065093
1.5937015981087346,-0.9018681568913137
1.581351949906841,-0.9283509044242864
1.54430300530116,-0.9592474432127545
1.4979918245440584,-0.986465822621643
1.4485932317364836,-1.0151554657823634
1.4012529136292244,-1.0379600539357565
1.344650359370545,-1.0607646420891497
1.2612902340077625,-1.0776841752352155
1.1192692796859849,-1.0946037083812812
0.882567689149689,-1.1085807140236834
0.5203113418941403,-1.1232933515420016
0.03764592467012812,-1.1357990934325721
-0.5252922058661932,-1.1497760990749744
-1.0820555123015676,-1.160810577213713
-1.5389924957716345,-1.1711094234765356
-1.8086264815129804,-1.1784657422356946
-1.8559667996202396,-1.1872933247466855
-1.6964505103457792,-1.1953852753817604
-1.3887384426485945,-1.2056841216445833
-1.010015897790521,-1.21524733603149
-0.6292350782321319,-1.2255461822943128
-0.29270716473052844,-1.2336381329293877
-0.017927492238393544,-1.2417300835644627
0.19510393924427283,-1.245408242944042
0.3597659152695222,-1.2490864023236217
0.48737894668909043,-1.2483507704477057
0.5882344070045556,-1.24761513857179
0.6654197082663913,-1.2424657154403786
0.7240805372253865,-1.238051924184883
0.7601003444809097,-1.2284887097979764
0.779653954133908,-1.2211323910388172
0.7775956794335924,-1.207891017272331
0.7590712071307519,-1.19906343476134
0.720993125174913,-1.1843507972430218
0.6664488456165492,-1.175523214732031
0.6005840552064494,-1.160810577213713
0.5254570286449294,-1.152718626578638
0.44930086473325154,-1.1365347253084879
0.3721155634714159,-1.1255002471697493
0.29801767426005366,-1.104166922768188
0.2270071970991649,-1.0857761258702905
0.1539384452379605,-1.057822114585486
0.08498624277738731,-1.033546262680261
0.013975765616498522,-1.0033853557677088
-0.04983075009328561,-0.9798451357383998
-0.1084915790522807,-0.954833651957259
-0.15274448510906646,-0.939385382563025
-0.18258946826364292,-0.9239371131687909
-0.18773515501443194,-0.9165807944096318
-0.1671524080112758,-0.9062819481468092
-0.11363726580306974,-0.9018681568913137
-0.02718972838981382,-0.8930405743803228
0.0952776162789654,-0.8878911512489115
0.24861908145247888,-0.8790635687379206
0.430776392430411,-0.8717072499787616
0.6283707636607102,-0.8614084037159389
0.828023409591325,-0.8518451893290321
1.0122389952695727,-0.8408107111902935
1.1645513230929285,-0.8319831286793026
1.268494195458867,-0.8238911780442276
1.3148053762159686,-0.8187417549128162
1.2973100412632859,-0.8135923317814049
1.2180664653011346,-0.8099141724018254
1.0853077471307773,-0.8047647492704141
0.9134418096544232,-0.7996153261390027
0.7168765757742818,-0.7929946392557595
0.5131073804430357,-0.7863739523725164
0.31551300921273645,-0.7790176336133573
0.1323265608846465,-0.7723969467301142
-0.02616059103965601,-0.7628337323432074
-0.16303585861064454,-0.7525348860803847
-0.2721244177273723,-0.7378222485620665
-0.359601092490786,-0.7231096110437484
-0.4234076082005701,-0.7069257097735985
-0.4707479263078293,-0.6936843360071121
-0.5036803215128792,-0.678971698488794
-0.5252922058661932,-0.6686728522259713
-0.5386709914182447,-0.654695846583569
-0.5458749528693493,-0.6414544728170827
-0.5541080516706118,-0.6223280440432691
-0.5602828757715587,-0.6024659833935396
-0.5716033866232946,-0.575983235860567
-0.5808656227747149,-0.5509717520794262
-0.5942444083267663,-0.5215464770427899
-0.6024775071280288,-0.4957993613857332
-0.6127688806296069,-0.46858098197684467
-0.617914567380396,-0.44651202569936743
-0.6251185288315005,-0.42444306942189025
-0.6292350782321319,-0.4067879043999085
-0.6343807649829208,-0.3854545799983472
-0.6374681770333943,-0.3655925193486177
-0.6395264517337099,-0.3427879311952246
-0.6405555890838677,-0.31998334304183146
-0.6415847264340255,-0.2935005955088588
-0.6436430011343411,-0.268489111727718
-0.6457012758346568,-0.24053510044291354
-0.649817825235288,-0.213316721034025
-0.6529052372857614,-0.18609834162513644
-0.654963511986077,-0.16402938534765926
-0.6580509240365504,-0.14563858844976157
-0.6611383360870239,-0.13386847843510707
-0.6621674734371817,-0.12283400029636847
-0.6642257481374974,-0.11327078590946169
-0.6652548854876551,-0.10150067589480717
-0.6714297095886019,-0.08825930212832085
-0.6745171216390754,-0.07281103273408682
-0.6827502204403378,-0.05883402709168459
-0.6878959071911269,-0.047063917077030074
-0.6940707312920738,-0.0389719664419551
-0.7002455553930206,-0.03161564768279604
-0.7095077915444409,-0.027201856427300594
-0.7208283023961768,-0.02425932892363697
-0.7311196758977548,-0.02352369704772106
-0.7290614011974392,-0.022788065171805153
-0.7043621047936518,-0.024994960799552875
-0.644672138484499,-0.027201856427300594
-0.5499915022699806,-0.03308691143462785
-0.4326698443519904,-0.03750070269012329
-0.33181438403652513,-0.04632828520111417
-0.289619752680055,-0.05515586771210505
-0.35651368044031256,-0.06839724147859137
-0.5469040902195071,-0.08163861524507769
-0.8453539217652716,-0.10002941214297537
-1.188056659367822,-0.11915584091678894
-1.4998852764656379,-0.14122479719426614
-1.703654471796884,-0.1603512259680797
-1.7664318501565104,-0.1809489184937251
-1.6913048235949903,-0.19566155601204324
-1.5235554355192675,-0.20963856165444547
-1.3136114160870744,-0.21993740791726815
-1.1160170448567752,-0.23170751793192268
-0.9575298929324727,-0.2442132598224931
-0.8494704711659029,-0.26039716109264305
-0.7825765434056453,-0.2795235898664566
-0.7475858735002798,-0.30306380989576565
-0.7290614011974392,-0.3288109255528224
-0.7208283023961768,-0.3560293049617109
-0.7156826156453877,-0.38251205249468356
-0.7115660662447565,-0.40605227252399256
-0.703332967443494,-0.42517870129780616
-0.6858376324908113,-0.442098234443872
-0.6611383360870239,-0.45828213571402193
-0.6220311167810272,-0.47740856448783553
-0.5849821721753461,-0.4987418888893968
-0.5417584034687181,-0.5252246364223695
-0.5119134203141417,-0.5546499114590058
-0.4820684371595652,-0.5870177139993056
-0.46251482750656686,-0.6186498846636896
-0.4357572564024638,-0.6517533190799054
-0.40488313589772956,-0.6826498578683735
-0.35239713103968134,-0.7142820285327575
-0.28653234062958155,-0.7400291441898142
-0.192880841765221,-0.7672475235987027
-0.0837922826484933,-0.78931647987618
0.05411212227265305,-0.8150635955332367
0.21465754889727118,-0.8378681836866299
0.41533933217804386,-0.868029090599182
0.6592448841654445,-0.8945118381321546
0.9587238530613668,-0.9261440087965387
1.3137762388658107,-0.9489485969499317
1.7192563548279873,-0.9769026082347362
2.156639728645056,-0.9967646688844657
2.6043144759637027,-1.025454312045186
3.032435613629351,-1.0482589001985791
3.4163038452382137,-1.0791554389870472
3.7384238358376076,-1.104166922768188
3.984387662525324,-1.1335921978048245
4.150078775900731,-1.152718626578638
4.2303514892130405,-1.1762588466079469
4.228293214512725,-1.1931783797540128
4.140816539749311,-1.2189254954110695
3.9710088769732725,-1.2424657154403786
3.726074187635714,-1.2770404136084261
3.419391257288687,-1.3116151117764738
3.069484558235032,-1.3542817605795963
2.698995112178221,-1.3940058818790553
2.3295348034715677,-1.436672530682178
1.9806572417680706,-1.4727184926020573
1.6595663885188343,-1.505821927018273
1.3703787931244902,-1.5293621470475822
1.1100070435345646,-1.5499598395732275
0.8784511397490578,-1.5661437408433776
0.6715945323673382,-1.5837989058653592
0.49664118284051073,-1.602189702763257
0.35770764056920656,-1.6249942909166502
0.2650852790550038,-1.647798879070043
0.21980323564806023,-1.6735459947270999
0.215686686247429,-1.6948793191286613
0.24861908145247888,-1.7154770116543065
0.3011050863105271,-1.7301896491726247
0.36388246467015345,-1.7419597591872793
0.4225432936291485,-1.7463735504427746
0.47502929848719677,-1.7500517098223543
0.5131073804430357,-1.7463735504427746
0.5398649515471386,-1.743431022939111
0.5480980503484012,-1.73460344042812
0.5450106382979277,-1.7287183854207928
0.5244278912947715,-1.7147413797783906
0.4935537707900373,-1.704442533515568
0.45033000208340934,-1.6831092091140067
0.40298968397615015,-1.6639827803401932
0.3494745417679441,-1.6323506096758091
0.29493026220958024,-1.6051322302669206
0.23832770795090077,-1.570557532098873
0.18378342839253695,-1.546281680193648
0.1302682861843309,-1.516120773281096
0.07778228132628265,-1.4955230807554505
0.025296276468234416,-1.4653621738428984
-0.02821886573997163,-1.4410863219376733
-0.0848214199986511,-1.4050403600177939
-0.144511386307804,-1.3770863487329894
-0.2052304899671147,-1.3439829143167736
-0.268007868326741,-1.3226495899152124
-0.3287269719860517,-1.2983737380099873
-0.3873878009450468,-1.2814542048639217
-0.44090294315325285,-1.2579139848346126
-0.48721412391035424,-1.238787556060799
-0.5294087552668244,-1.2130404404037423
-0.5654285625223477,-1.1924427478780968
-0.5973318203772398,-1.1711094234765356
-0.6158562926800804,-1.1556611540823016
-0.617914567380396,-1.1380059890603198
-0.5921861336264507,-1.1225577196660856
-0.5355835793677712,-1.1019600271404404
-0.45119431665483095,-1.0820979664907109
-0.35445540573999695,-1.0585577464614018
-0.2752118297778457,-1.0386956858116723
-0.25565822012484735,-1.0195692570378587
-0.3349017960869986,-1.0041209876436248
-0.5324961673172979,-0.9894083501253066
-0.8360916856138514,-0.978373871986568
-1.1942314834687686,-0.9673393938478294
-1.5297302596202142,-0.9599830750886703
-1.7643735754561947,-0.9504198607017635
-1.8508211128694505,-0.9430635419426044
-1.7818689104088774,-0.930557800052034
-1.5914785006296828,-0.9173164262855478
-1.3341941630902308,-0.8974543656358183
-1.0655893146990427,-0.8761210412342569
-0.8268294494624311,-0.8496382937012843
-0.6405555890838677,-0.8253624417960594
-0.509855145613826,-0.7988796942630868
-0.4254658829008857,-0.7782820017374413
-0.3729798780428375,-0.7554774135840483
-0.34313489488826104,-0.7385578804379824
-0.3256395599355783,-0.7179601879123371
-0.3204938731847893,-0.701776286642187
-0.33181438403652513,-0.6797073303647099
-0.35754281779047037,-0.6598452697149804
-0.40179572384725615,-0.6326268903060919
-0.45119431665483095,-0.6061441427731192
-0.49853463476209015,-0.5723050764809875
-0.5294087552668244,-0.5399372739406876
-0.5355835793677712,-0.5031556801448923
-0.5139716950144573,-0.47078787760459234
-0.46251482750656686,-0.4384200750642925
-0.39047521299552024,-0.41340859128315166
-0.3019694008819487,-0.3898683712538426
-0.21140531406806154,-0.37074194248002906
-0.12289950195449002,-0.34940861807846774
-0.04674333804281219,-0.32733966180099056
0.020150589717445374,-0.3008569142680179
0.07469486927580922,-0.2743741667350453
0.12409346208338404,-0.24862705107798852
0.17143378019064323,-0.22729372667642722
0.2280363344493227,-0.20816729790261365
0.29801767426005366,-0.1919833966324637
0.38961089842409863,-0.17285696785865012
0.5038451442916154,-0.15152364345708882
0.6396912745124461,-0.1257765278000321
0.7920036023358018,-0.09855814839114355
0.9566655783610511,-0.07354666461000273
1.1264732411370895,-0.05074207645660961
1.296280903913128,-0.030144383930964223
1.4547680558374305,-0.008811059529402926
1.5937015981087346,0.013257896748074276
1.6966153331245155,0.03826938052921511
1.7573344367838262,0.06475212806218775
1.7655675355850886,0.09123487559516039
1.7223437668784607,0.11477509562446941
1.6307505427144158,0.13831531565377841
1.5000500992443742,0.1596486400553397
1.3415629473200716,0.180981964456901
1.166609597793244,0.20010839323071458
0.9875396988657854,0.21776355825269636
0.812586349338958,0.2317405638950986
0.6499826480140242,0.244246305785669
0.5048742816417732,0.2552807839244076
0.382406936972994,0.2670508939390621
0.2805223393073709,0.28029226770554844
0.20024962599506188,0.2964761689756984
0.1323265608846465,0.3133957021217642
0.07675314397612484,0.3317864990196619
0.027354551168550033,0.3494416640416437
-0.0127818054876045,0.36636119718770954
-0.045714200692654375,0.3810738347060276
-0.06732608504596835,0.39431520847251395
-0.0858505573488089,0.4053496866112526
-0.0971710682005448,0.4163841647499912
-0.11260812845291193,0.42741864288872977
-0.12701605135512126,0.43918875290338427
-0.14862793570843524,0.4516944947939547
-0.1681815453614336,0.4664071323122728
-0.192880841765221,0.4833266654583387
-0.2155218634686928,0.5031887261080682
-0.241250297222638,0.5252576823855454
-0.2638913189261098,0.5495335342907703
-0.289619752680055,0.5738093861959952
-0.3132899117336846,0.5980852381012202
-0.3369600707873142,0.6186829306268655
-0.35651368044031256,0.6392806231525109
-0.3709216033425219,0.6584070519263245
-0.37915470214378433,0.6804760082038017
-0.3843003888945734,0.7040162282331107
-0.386358663594889,0.7319702395179152
-0.38944607564536243,0.7577173551749719
-0.39459176239615146,0.7849357345838605
-0.40179572384725615,0.8062690589854218
-0.4100288226485186,0.828338015262899
-0.41517450939930767,0.8482000759126285
-0.4213493335002545,0.8746828234456011
-0.4213493335002545,0.9019012028544896
-0.4254658829008857,0.9364759010225372
-0.4213493335002545,0.9673724398110053
-0.4234076082005701,1.001211506103137
-0.4203201961500967,1.0269586217601938
-0.4213493335002545,1.057855160548662
-0.4213493335002545,1.0821310124538868
-0.4203201961500967,1.1174413424978502
-0.4120870973488342,1.1505447769140662
-0.39150435034567804,1.1983608488486
-0.35033885633936573,1.2439700251553862
-0.2875614779797394,1.3020849433527428
-0.20317221526679907,1.3535791746668564
-0.11672467785354317,1.410958460988297
-0.05085988744344342,1.4558320054191674
-0.04468506334249656,1.4999699179741217
-0.13113260075575248,1.530130824886674
-0.33181438403652513,1.561762995551058
-0.6323224902826052,1.5882457430840307
-0.9914914254876804,1.623556073127994
-1.338310712490862,1.6625445625515372
-1.5997115994309452,1.7125675301138188
-1.7221789440997246,1.7647973933038483
-1.6943922356454637,1.821441047749373
-1.5389924957716345,1.8744065428153183
-1.310524004036601,1.9251651422535159
-1.0645601773488849,1.9685674229325545
-0.8474121964655872,2.0082915442320135
-0.6837793577904957,2.0406593467723133
-0.5808656227747149,2.073027149312613
-0.5283796179166665,2.1024524243492495
-0.5129425576642994,2.1348202268895493
-0.5191173817652464,2.167188029429849
-0.5366127167179291,2.2032339913497285
-0.5623411504718743,2.2356017938900288
-0.5932152709766085,2.26944086018216
-0.6323224902826052,2.295923607715133
-0.6776045336895489,2.32167072337219
-0.7331779505980704,2.339325888394171
-0.7877222301564344,2.3577166852920692
-0.8412373723646404,2.3643373721753123
-0.8793154543204793,2.373900586562219
-0.8988690639734777,2.373164954686303
-0.8896068278220574,2.3775787459417987
-0.8504996085160607,2.372429322810387
-0.7805182687053297,2.3768431140658826
-0.6920124565917581,2.3716936909344715
-0.5921861336264507,2.3775787459417987
-0.49647636006177454,2.3716936909344715
-0.4089996852983608,2.3775787459417987
-0.3349017960869986,2.3716936909344715
-0.2659495936264254,2.3775787459417987
-0.19905566586616785,2.3716936909344715
-0.12495777665480563,2.3775787459417987
-0.03851023924154971,2.3716936909344715
0.06543263312438895,2.3775787459417987
0.1920165271937994,2.3716936909344715
0.3402123056165238,2.3768431140658826
0.5079616936922466,2.3716936909344715
0.6880607299698631,2.376107482189967
0.8702180409477952,2.372429322810387
1.0389965663736758,2.376107482189967
1.1851340700960846,2.372429322810387
1.2931934918626546,2.3753718503140506
1.3590582822727544,2.372429322810387
1.3744953425251214,2.374636218438135
1.3405338099699138,2.372429322810387
1.2571736846071313,2.373900586562219
1.1326480652380364,2.372429322810387
0.9731317759635761,2.373900586562219
0.7930327396859596,2.372429322810387
0.6036714672569228,2.373900586562219
0.4194558815786751,2.372429322810387
0.24758994410232107,2.373900586562219
0.0963067536291232,2.372429322810387
-0.036451964541234096,2.373900586562219
-0.14862793570843524,2.372429322810387
-0.24639598397342705,2.374636218438135
-0.3256395599355783,2.372429322810387
-0.39253348769583585,2.374636218438135
-0.44296121785356846,2.372429322810387
-0.4820684371595652,2.3753718503140506
-0.5088260082636682,2.372429322810387
-0.5304378926169822,2.376107482189967
-0.5489623649198228,2.372429322810387
-0.5654285625223477,2.3768431140658826
-0.5839530348251882,2.372429322810387
-0.6004192324277132,2.3768431140658826
-0.6189437047305537,2.3716936909344715
-0.6323224902826052,2.3775787459417987
-0.644672138484499,2.3716936909344715
-0.6518760999356036,2.3775787459417987
-0.6580509240365504,2.3716936909344715
-0.6611383360870239,2.3783143778177145
-0.6611383360870239,2.3716936909344715
-0.6590800613867083,2.3768431140658826
-0.6559926493362348,2.3709580590585553
-0.6529052372857614,2.3768431140658826
-0.6487886878851302,2.373900586562219
-0.6467304131848146,2.3790500096936302
-0.644672138484499,2.3702224271826395
-0.6457012758346568,2.3577166852920692
-0.644672138484499,2.3209350914962736
-0.644672138484499,2.272383387685824
-0.644672138484499,2.205440886977476
-0.644672138484499,2.1407052818968766
-0.6457012758346568,2.0781765724440247
-0.6487886878851302,2.0355099236409018
-0.6508469625854458,2.006084648604266
-0.6559926493362348,1.994314538589611
-0.6570217866863927,1.9832800604508725
-0.6590800613867083,1.9729812141880498
-0.6559926493362348,1.9509122579105727
-0.6529052372857614,1.9222226147498522
-0.6487886878851302,1.8832341253263092
-0.6457012758346568,1.8442456359027661
-0.6477595505349724,1.8037858827273914
-0.6529052372857614,1.7699468164352596
-0.6590800613867083,1.7390502776467915
-0.6601091987368661,1.71771695324523
-0.6467304131848146,1.7007974200991645
-0.6127688806296069,1.6934411013400053
-0.5489623649198228,1.6838778869530986
-0.46251482750656686,1.679464095697603
-0.3709216033425219,1.6669583538070327
-0.30917336233305337,1.6551882437923782
-0.3194647358346315,1.631648023763069
-0.43781553110277943,1.6110503312374238
-0.6683422975381286,1.583831951828535
-0.9822291893362601,1.5647055230547215
-1.310524004036601,1.5389584073976648
-1.5842745391785782,1.5242457698793468
-1.7355577296517761,1.5043837092296173
-1.7489365152038274,1.497027390470458
-1.6357314066864685,1.483050384828056
-1.4463701342574318,1.4786365935725605
-1.2281930160239765,1.4646595879301583
-1.0305986447936772,1.4565676372950833
-0.8721114928693746,1.4374412085212698
-0.7640520711028047,1.4241998347547835
-0.6961290059923894,1.403602142229138
-0.6580509240365504,1.3903607684626518
-0.6364390396832365,1.371969971564754
-0.6240893914813428,1.3587285977982677
-0.6168854300302381,1.3403378009003701
-0.6168854300302381,1.324889531506136
-0.6261476661816584,1.3057631027323224
-0.6467304131848146,1.2910504652140042
-0.6786336710397066,1.2748665639438543
-0.7136243409450721,1.2638320858051157
-0.7496441482005954,1.2491194482867976
-0.773314307254225,1.2358780745203113
-0.7794891313551718,1.2182229094983295
-0.7599355217021735,1.1983608488486
-0.7115660662447565,1.174084996943375
-0.6364390396832365,1.1498091450381502
-0.5438166781690337,1.1240620293810935
-0.44501949255388407,1.0997861774758686
-0.34828058163905007,1.0755103255706435
-0.262862181575952,1.0541770011690823
-0.18567688031411633,1.0343149405193528
-0.11466640315322754,1.0196023030010346
-0.04159765129202314,1.0056252973586324
0.03764592467012812,0.9945908192198939
0.1302682861843309,0.9798781817015757
0.23832770795090077,0.9651655441832576
0.36799901407078467,0.9438322197816963
0.5182530671938247,0.922498895380135
0.6901190046701787,0.8960161478471623
0.8753637276985843,0.8717402959419375
1.06987068687841,0.8459931802848807
1.2592319593074468,0.8261311196351512
1.435214446184432,0.8062690589854218
1.5834102246071566,0.7937633170948514
1.6966153331245155,0.7790506795765332
1.7573344367838262,0.7694874651896264
1.7655675355850886,0.7547748276713083
1.7079358439762513,0.7422690857807379
1.5957598728090503,0.7238782888828402
1.4290396220834853,0.7084300194886062
1.227328701452555,0.6885679588388767
1.0019476217679948,0.6723840575687268
0.7734791300329612,0.6525219969189973
0.5511854623988746,0.6370737275247632
0.3494745417679441,0.6194185625027815
0.17246291754080104,0.606912820612211
0.025296276468234416,0.5944070787216406
-0.09408365615007137,0.5870507599624816
-0.18876429236458978,0.5782231774514907
-0.2638913189261098,0.5723381224441634
-0.3235812852352627,0.5642461718090884
-0.3750381527431531,0.5583611168017611
-0.4203201961500967,0.5502691661666862
-0.4604565528062512,0.5436484792834431
-0.49750549741193234,0.536292160524284
-0.53146702996714,0.5289358417651249
-0.563370287822032,0.5215795230059659
-0.5901278589261351,0.5149588361227226
-0.6148271553299225,0.5076025173635637
-0.6343807649829208,0.5024530942321522
-0.649817825235288,0.496568039224825
-0.6590800613867083,0.49215424796932955
-0.6652548854876551,0.48700482483791824
-0.6693714348882863,0.4847979292101705
-0.6745171216390754,0.48111976983059096
-0.6796628083898645,0.48038413795467505
-0.6848084951406535,0.47891287420284323
-0.6909833192416004,0.47891287420284323
-0.6940707312920738,0.4781772423269273
-0.698187280692705,0.47891287420284323
-0.7002455553930206,0.47891287420284323
-0.7053912421438097,0.48038413795467505
-0.7084786541942831,0.48038413795467505
-0.7125952035949144,0.4840622973342546
-0.7136243409450721,0.4855335610860864
-0.7125952035949144,0.49068298421749773
-0.7095077915444409,0.49362551172116137
-0.7074495168441253,0.5002461986044046
-0.7043621047936518,0.503924357983984
-0.7084786541942831,0.5098094129913113
-0.7084786541942831,0.512016308619059
-0.71465347829523,0.5149588361227226
-0.7136243409450721,0.5149588361227226
-0.7156826156453877,0.5156944679986386
-0.7136243409450721,0.5149588361227226
-0.7156826156453877,0.5149588361227226
-0.7167117529955456,0.5149588361227226
-0.7177408903457033,0.5149588361227226
-0.7115660662447565,0.5149588361227226
-0.6940707312920738,0.5149588361227226
-0.6518760999356036,0.5149588361227226
-0.5808656227747149,0.5156944679986386
-0.4820684371595652,0.5149588361227226
-0.3740090153929953,0.5142232042468068
-0.289619752680055,0.5112806767431431
-0.2782992418283191,0.5083381492394795
-0.3760672900933109,0.5046599898599
-0.5973318203772398,0.5009818304803204
-0.9101895748252136,0.49877493485257274
-1.2508340377274483,0.4973036711007409
-1.5389924957716345,0.496568039224825
