ECG,PPG
-0.6147156110347229,-0.0008266479378123571
-0.7273318144717866,1.2565770968479897
-0.72939816682843,1.4743627127749424
-0.6767061817340241,1.2411677372305168
-0.6436445440277301,1.206239855430911
-0.6529431296326252,1.4014250772522365
-0.6684407723074506,1.5462730576564834
-0.6632748914158422,1.524699954192021
-0.6415781916710868,1.4969631068805695
-0.6219478442829748,1.5668188704797807
-0.6064502016081494,1.6705752252374328
-0.5888862065766809,1.6880391661372356
-0.5609904497619953,1.6633841907492786
-0.5258624596990581,1.6829027129314111
-0.4773031793179389,1.747622023324798
-0.4142794324403161,1.7661132548657656
-0.3440234523144416,1.7445401514013035
-0.270667943653602,1.7424855701189736
-0.1869806732095455,1.7794680332009092
-0.0867625839123421,1.7917955208948875
0.023787267168078163,1.7691951267892603
0.13020441353521167,1.7445401514013035
0.22938932665409342,1.7517311858894575
0.3244415350596884,1.7455674420424683
0.4122615102170316,1.7178305947310168
0.48561701887787123,1.6674933533139382
0.5393421801505988,1.6397565060024866
0.5744701702135361,1.6140742399733647
0.5868682843533963,1.5760644862502646
0.5786028749268228,1.5051814320098886
0.5600057037170325,1.4558714812339748
0.5383090039722771,1.420943599434369
0.5155791280492,1.382933845711269
0.49078289976947964,1.3048597569827387
0.4659866714897592,1.2401404465893517
0.44428997174500384,1.199048820942757
0.414327862573675,1.1630936485019865
0.36783493454919913,1.0839922691322914
0.31410977327647155,1.0141365055330802
0.2717495499652825,0.9689357173218258
0.25211920257717046,0.9381169980868798
0.243853793150597,0.8703158157699983
0.23145567901073677,0.8107329585824358
0.20769262690933804,0.7727232048593355
0.18083004627297422,0.7521773920360381
0.15810017034989718,0.6987582786954648
0.14363570385339358,0.6484210372783861
0.12813806117856832,0.6165750274022751
0.11780629939535146,0.5980837958613074
0.10954088996877799,0.5446646825207342
0.10747453761213462,0.4850818253331716
0.10540818525549125,0.4326900026337632
0.11160724232542135,0.4008439927576522
0.13950299914010683,0.354615913905233
0.19942721748276454,0.3155788695409679
0.2738159023219259,0.2878420222295164
0.34097235391283537,0.27654182517670284
0.3936643390072413,0.24366852465942693
0.4525553811715773,0.2066860615774916
0.5197118327624868,0.16559443593089673
0.5817024034617879,0.1388848792606101
0.627162155307942,0.099847834896345
0.6808873165806696,0.05978349989091503
0.7542428252415092,0.014582711679660708
0.8296646862589921,-0.01418142627295568
0.8720249095701813,-0.049109308072561295
0.8782239666401114,-0.09020093371915613
0.8647926763219295,-0.14670191898322404
0.8472286812904608,-0.186766253988654
0.8213992768324188,-0.2227214264294245
0.7790390535212296,-0.2576493082290301
0.7108494257519985,-0.30901384028727363
0.6126976888114384,-0.34702359401037386
0.49078289976947964,-0.37578773196299026
0.38229940104570276,-0.4055791605567715
0.29861213060164626,-0.45797098325617996
0.23972108843731024,-0.4990626089027748
0.17256463684640075,-0.5278267468553912
0.1085077137904563,-0.5524817222433481
0.05271620016108533,-0.6017916730192618
0.024820443346399847,-0.6387741361011973
0.013455505384861314,-0.6593199489244946
0.011389153028217946,-0.6788384711066272
0.0041569197799661535,-0.7302030031648707
-0.0030753134682856395,-0.7754037913761251
-0.004108489646607324,-0.8031406386875766
0.0031237436016444686,-0.8257410327932038
-0.013407075251502486,-0.8750509835691176
-0.0660990603459084,-0.9161426092157124
-0.10949245983541916,-0.9377157126801747
-0.02270566085639765,-0.9541523629388127
0.3079107162065414,-1.0014077324323967
0.9123187805247269,-1.0496903925671457
1.7140634949023543,-1.0805091118020917
2.614993122398863,-1.1000276339842243
3.5551834446715964,-1.150364875401303
4.433383196245028,-1.2078931513065359
4.994397861073703,-1.25309393951779
4.926208233304472,-1.277748914905747
4.150292923384887,-1.317813249911177
2.9456094994618023,-1.3681504913282556
1.7336938422904662,-1.4164331514630046
0.7997025770876633,-1.4390335455686318
0.2428206169722753,-1.4616339396742588
0.04238443837786848,-1.4903980776268753
0.05374937633940702,-1.5273805407088106
0.0413512621995468,-1.539708028402789
-0.12808963104520948,-1.539708028402789
-0.37191920912912707,-1.532516993914635
-0.5237961073424147,-1.539708028402789
-0.5465259832654917,-1.532516993914635
-0.5289619882340232,-1.5047801466031836
-0.542393278552205,-1.4482791613391155
-0.5744217400801772,-1.4020510824866963
-0.595085263646611,-1.357877584916607
-0.6095497301431145,-1.3044584715760337
-0.6260805489962615,-1.2099477325888655
-0.6508767772759819,-1.110300540395873
-0.6705071246640939,-1.0240081265380239
-0.690137472052206,-0.9541523629388127
-0.7025355861920661,-0.8390958111283471
-0.7149337003319264,-0.6993842839299247
-0.7180332288668915,-0.5761094069901401
-0.715966876510248,-0.49495344633811533
-0.7118341717969613,-0.37578773196299026
-0.7139005241536047,-0.21142122937661093
-0.7211327574018565,-0.05835492384304513
-0.7252654621151432,0.02999207129713377
-0.7262986382934649,0.13374842605478574
-0.72939816682843,0.28886931287068124
-0.73559722389836,0.4450174903277417
-0.7417962809682902,0.5282280322620962
-0.7407631047899685,0.6073294116317913
-0.7335308715417167,0.7326588698539055
-0.7252654621151432,0.8703158157699983
-0.7242322859368215,0.9411988700103744
-0.73559722389836,0.9935906927097827
-0.7479953380382203,1.0757739440029725
-0.7428294571466119,1.1805575894017892
-0.7231991097584999,1.2329494121011977
-0.7077014670836745,1.2637681313361437
-0.709767819440318,1.311023500829728
-0.7149337003319264,1.382933845711269
-0.7046019385487096,1.420943599434369
-0.6756730055557023,1.437380249693007
-0.6457108963843735,1.4548441905928098
-0.6240141966396181,1.4979903975217344
-0.5992179683598977,1.5236726635508562
-0.5558245688703869,1.53291827932134
-0.48866811727947745,1.525727244833186
-0.4091135515487077,1.5339455699625049
-0.33265851435290306,1.5360001512448347
-0.2613693580487068,1.5318909886801753
-0.18491432085290213,1.5031268507275588
-0.09502799333891558,1.4784718753396018
0.008289624493252892,1.4527896093104802
0.11470677086038641,1.4322437964871826
0.2180243886925549,1.3880702989170932
0.3130765970981499,1.3438968013470038
0.3905648104722762,1.2976687224945846
0.4401572670317171,1.2658227126184736
0.46495349531143754,1.2185673431248896
0.48251749034290614,1.168230101707811
0.5011146615526965,1.1086472445202482
0.5083468948009483,1.0696102001559833
0.4866501950561929,1.023382121303564
0.4380909146750737,0.9720175892453204
0.38436575340234613,0.9001072443637795
0.3461382348044438,0.8477154216643711
0.32134200652472333,0.8014873428119519
0.299645306779968,0.7583411358830273
0.28828036881842944,0.6946491161308053
0.30067848295828964,0.6484210372783861
0.32754106359465346,0.6134931554787805
0.33993917773451365,0.5857563081673289
0.33270694448626187,0.5313099041855908
0.3368396491995486,0.48816369725666625
0.36576858219255576,0.4573449780217201
0.3957306913638846,0.4388537464807524
0.4060624531471015,0.39570753955182786
0.4215600958219268,0.362834239034552
0.4587544382415074,0.3433157168524194
0.4980151330177314,0.3340701010819356
0.4990483091960531,0.3022240912058246
0.46288714295479416,0.27859640645903255
0.4184605672869617,0.26524162812388924
0.38643210575898945,0.25702330299457027
0.3595695251226257,0.22517729311845927
0.338906001556192,0.20360418965399696
0.33270694448626187,0.19333128324234827
0.34303870626947874,0.18305837683069956
0.34097235391283537,0.14093946054293985
0.30171165913661135,0.10601157874333422
0.22422344576248499,0.08341118463770707
0.1415693514967502,0.06594724373790425
0.0816451331540925,0.017664583603155322
0.04341761455619017,-0.026508913966934132
0.007256448314931207,-0.056300342560715394
-0.02270566085639765,-0.07890073666634255
-0.04543553677947471,-0.13129255936575096
-0.04646871295779639,-0.18471167270632427
-0.04646871295779639,-0.2258032983529191
-0.03820330353122292,-0.2535401456643706
-0.035103774996257865,-0.3038773870814493
-0.028904717926327757,-0.35626920978085774
-0.024772013213041018,-0.40249728863327694
-0.01857295614311091,-0.4322887172270582
-0.01650660378646754,-0.4774895054383125
-0.020639308499754278,-0.5278267468553912
-0.019606132321432594,-0.5781639882724698
-0.002042137289963955,-0.6110372887897457
-0.0010089611116422701,-0.6521289144363406
-0.04543553677947471,-0.6983569932887598
-0.06403270798926504,-0.7528033972704979
0.10024230436388283,-0.7908131509935982
0.5372758277939554,-0.8277956140755335
1.1954090533848685,-0.8627234958751391
1.9785565965527054,-0.9058697028040638
2.8567563481261375,-0.9336065501155152
3.788681260972297,-0.9582615255034721
4.587326446814959,-0.9890802447384183
4.951004461584192,-1.0373629048731672
4.6761795981506245,-1.0743453679551025
3.8165770177869827,-1.1041367965488837
2.6542538171750873,-1.1370100970661596
1.538423544587668,-1.1955656636125573
0.722214363713537,-1.2448756143884712
0.29861213060164626,-1.2787762055469118
0.18599592716458266,-1.308567634140693
0.17773051773800919,-1.366095910045926
0.0754460760841624,-1.4215696046688289
-0.15908491639486003,-1.4616339396742588
-0.3967154374088475,-1.4832070431387212
-0.5134643455591978,-1.5273805407088106
-0.5258624596990581,-1.580799654049384
-0.5237961073424147,-1.6270277329018032
-0.5434264547305268,-1.637300639313452
-0.5516918641571001,-1.6547645802132547
-0.5361942214822749,-1.69174704329519
-0.5258624596990581,-1.7359205408652794
-0.5330946929473098,-1.7297567970182903
-0.5599572735836736,-1.7009926590656739
-0.5878530303983591,-1.6938016245775198
-0.6116160824997579,-1.7184565999654766
-0.6023174968948627,-1.6896924620128604
-0.5671895068319255,-1.6054546294373409
-0.5330946929473098,-1.5335442845557998
-0.5341278691256316,-1.524298668785316
-0.5568577450487087,-1.469852264803578
-0.5764880924368206,-1.2993220183702092
-0.5878530303983591,-1.0527722644906403
-0.6033506730731845,-0.840123101769512
-0.620914668104653,-0.6500743331540109
-0.6333127822445133,-0.4518072394091907
-0.6395118393144434,-0.2514855643820409
-0.6415781916710868,-0.11691049038944278
-0.6395118393144434,-0.016236007555285422
-0.6343459584228349,0.09676596297285038
-0.6343459584228349,0.2477776872240864
-0.6405450154927651,0.3792708892931899
-0.6436445440277301,0.4850818253331716
-0.6415781916710868,0.5765106923968452
-0.6415781916710868,0.6895126629249809
-0.6477772487410168,0.7942963083237978
-0.6467440725626952,0.8816160128228119
-0.6364123107794784,0.9442807419338689
-0.6281469013529049,1.0192729587389044
-0.6333127822445133,1.0983743381085995
-0.6353791346011567,1.1723392642724704
-0.6147156110347229,1.215485471201395
-0.5723553877235339,1.2555498062068249
-0.5248292835207364,1.2976687224945846
-0.4762700031396172,1.3438968013470038
-0.4163457847969595,1.3634153235291364
-0.3388575714228332,1.381906555070104
-0.2479380677305249,1.4045069491757312
-0.15598538785989496,1.4404621216165017
-0.07539764595080356,1.453816899951645
-0.005141665824929009,1.4589533531574694
0.07957878079744914,1.4568987718751396
0.20149356983940792,1.4712808408514477
0.3451050586261221,1.4733354221337776
0.4587544382415074,1.4661443876456235
0.512479599514235,1.4425167028988315
0.5290104183673819,1.4404621216165017
0.5465744133988506,1.4353256684106772
0.5724038178568928,1.422998180716699
0.5786028749268228,1.3849884269935986
0.5527734704687807,1.3634153235291364
0.512479599514235,1.3480059639116633
0.4783847856296194,1.3305420230118605
0.44945585263661225,1.2812320722359467
0.40812880550374486,1.2421950278716816
0.3544036442310173,1.2144581805602301
0.302744835314933,1.190830495813438
0.26245096436038734,1.1333022199082052
0.22732297429745005,1.0809103972087968
0.18806227952122603,1.0439279341268615
0.1570669941715755,1.0182456680977396
0.1415693514967502,0.959690101551342
0.13846982296178517,0.9011345350049443
0.13330394207017673,0.8507972935878657
0.1219390041086382,0.8199785743529195
0.10644136143381293,0.7665594610123463
0.0888773664023443,0.7121130570306081
0.06614749047926723,0.6617758156135294
0.04755031926947691,0.6319843870197481
0.039284909842903434,0.5908927613731534
0.039284909842903434,0.5487738450853936
0.03308585277297332,0.5004911849506447
0.023787267168078163,0.4717270469980283
0.016555033919826368,0.4388537464807524
0.019654562454791424,0.41522606173396037
0.028953148059686584,0.38646192378134403
0.0413512621995468,0.37310714544620066
0.046517143091155226,0.354615913905233
0.04548396691283354,0.34023384492892483
0.04341761455619017,0.3124969976174733
0.05994843340933712,0.2970876380000002
0.10334183289884788,0.2796236971001974
0.17256463684640075,0.26832350004738387
0.25418555493381384,0.24572310594175667
0.338906001556192,0.23647749017127284
0.4163942149303183,0.22620458375962413
0.4814843141645845,0.2169589679891403
0.5414085325072422,0.1892221206776888
0.6116645126331167,0.17278547041905085
0.6839868451156347,0.15840340144274265
0.7335793016750756,0.1429940418252696
0.758375529954796,0.10498428810216935
0.7914371676610898,0.08032931271421245
0.8461955051121391,0.06389266245557451
0.892688433136615,0.045401430914606834
0.8854561998883632,-0.004935810502471841
0.8317310386156356,-0.04500014550790181
0.7687072917380128,-0.07273699281935332
0.7180816590002502,-0.09739196820731023
0.6612569691925576,-0.1518383721890484
0.5806692272834661,-0.19703916040030273
0.46805302384640257,-0.22477600771175424
0.3440718824478004,-0.24634911117621652
0.2231902695841633,-0.2997682245167898
0.12607170882192495,-0.34702359401037386
0.0413512621995468,-0.37578773196299026
-0.02270566085639765,-0.39736083542745254
-0.07436446977248189,-0.44667078620336637
-0.10329340276548905,-0.4887897024911261
-0.11259198837038421,-0.5113900965967533
-0.10432657894381074,-0.5257721655730614
-0.09812752187388063,-0.5781639882724698
-0.10019387423052399,-0.6418560080246919
-0.09089528862562883,-0.6963024120064301
-0.059900003275978296,-0.7353394563706951
-0.05680047474101324,-0.7908131509935982
-0.11879104544031432,-0.8421776830518417
-0.1621844449298251,-0.8832693086984366
0.0031237436016444686,-0.9068969934452286
0.473218904738011,-0.9459340378094937
1.1633805918568962,-0.9901075353795832
1.9454949588464117,-1.0332537423085077
2.7875335441785847,-1.0589360083376296
3.6574678863254433,-1.0959184714195649
4.3569281590492235,-1.141119259630819
4.570795627961813,-1.1965929542537221
4.120330814213558,-1.2356299986179873
3.1222826259548104,-1.270557880417593
1.9165660258534045,-1.3034311809348689
0.8503282098254259,-1.3476046785049582
0.13227076589185505,-1.382532560304564
-0.19937878734940573,-1.4082148263336856
-0.25103759626548994,-1.4143785701806748
-0.21487643002423099,-1.4308152204393128
-0.2634357104053502,-1.4472518706979507
-0.4380424845417149,-1.4585520677507644
-0.6364123107794784,-1.4359516736451372
-0.7479953380382203,-1.4092421169748506
-0.7738247424962624,-1.3948600479985422
-0.7769242710312274,-1.3917781760750476
-0.788289208992766,-1.3393863533756392
-0.7955214422410177,-1.2572031020824497
-0.7975877945976612,-1.191456501047898
-0.8213508466990599,-1.1616650724541167
-0.8626778938319273,-1.0825636930844216
-0.9019385886081513,-0.9459340378094937
-0.9143367027480115,-0.8154681263815551
-0.9184694074612982,-0.7486942347058384
-0.9215689359962633,-0.6552107863598352
-0.9401661072060536,-0.4990626089027748
-0.9701282163773824,-0.3388052688810549
-0.9928580923004595,-0.2535401456643706
-0.9866590352305294,-0.16416585988302684
-0.9608296307724873,-0.016236007555285422
-0.9504978689892705,0.14915778567225882
-0.9701282163773824,0.24366852465942693
-1.0052562064403197,0.3217426133879571
-1.0321187870766835,0.44193561840424705
-1.0527823106431173,0.5888381800908236
-1.0558818391780822,0.6802670471544972
-1.0300524347200402,0.7460136481890488
-0.9825263305172427,0.8302514807645682
-0.9628959831291307,0.9391442887280446
-1.0021566779053548,1.0090000523272558
-1.060014543891369,1.055228131179675
-1.0693131294962641,1.1065926632379186
-1.0186874967585016,1.1785030081194596
-0.9732277449123475,1.2278129588953735
-0.984592682873886,1.262740840694979
-1.026952906185075,1.2884231067241008
-1.0300524347200402,1.3264328604472009
-0.9773604496256343,1.350060545193993
-0.9267348168878717,1.3685517767349606
-0.9329338739578018,1.3757428112231147
-0.9732277449123475,1.3942340427640825
-0.9804599781605994,1.4086161117403906
-0.9267348168878717,1.4271073432813584
-0.844080722622137,1.4291619245636882
-0.7614266283564022,1.4332710871283476
-0.6684407723074506,1.4250527619990285
-0.5465259832654917,1.4271073432813584
-0.41221308008367274,1.4178617275108745
-0.30682910989486095,1.4086161117403906
-0.22934089652073458,1.389097589558258
-0.14462044989835643,1.3860157176347634
-0.03820330353122292,1.3757428112231147
0.055815728696050386,1.3562242890409821
0.10644136143381293,1.3130780821120576
0.13846982296178517,1.2884231067241008
0.19322816041283444,1.2678772939008034
0.26658366907367403,1.2350039933835275
0.3110102447415065,1.167202811066646
0.29861213060164626,1.117892860290732
0.25211920257717046,1.0839922691322914
0.2025267460177296,1.0439279341268615
0.15190111327996705,0.9607173921925068
0.08371148551073587,0.887779756669801
0.013455505384861314,0.8394970965350521
-0.02993789410464944,0.800460052170787
-0.04233600824450966,0.721358672801092
-0.05783365091933493,0.6504756185607159
-0.08779576009066378,0.6032202490671318
-0.10019387423052399,0.5724015298321856
-0.07849717448576862,0.5076822194387988
-0.059900003275978296,0.4470720716100714
-0.0867625839123421,0.40598044596347654
-0.13738821665010464,0.3854346331401791
-0.1611512687515034,0.3412611355700897
-0.14978633078996487,0.3022240912058246
-0.14978633078996487,0.2796236971001974
-0.18594749703122382,0.27140537197087844
-0.234506777412343,0.23339561824777824
-0.2500044200871683,0.19024941131885365
-0.2221086632724828,0.1532669482369183
-0.1735493828913636,0.12963926349012625
-0.12808963104520948,0.0895749284846963
-0.07746399830744694,0.05567433732625555
0.007256448314931207,0.027937490014804032
0.13433711824849842,0.01561000232082558
0.2645173167170307,-0.016236007555285422
0.3461382348044438,-0.05321847063722078
0.36886811072752085,-0.09431009628381562
0.37610034397577263,-0.12204694359526713
0.41742739110864,-0.16005669731836736
0.492849252126123,-0.20012103232379733
0.5548398228254241,-0.24532182053505167
0.5600057037170325,-0.2751132491288329
0.5083468948009483,-0.30901384028727363
0.4453231479233255,-0.345996303369209
0.41019515786038824,-0.39427896350395797
0.4008965722554931,-0.42920684530356357
0.378166696332416,-0.4600255645385097
0.30377801149325473,-0.49084428377345585
0.17153146066807906,-0.5360450719847102
0.022754090989756476,-0.5668637912196562
-0.10845928365709748,-0.5894641853252834
-0.20454466824101414,-0.6141191607132404
-0.28513241015010554,-0.6603472395656595
-0.34815615702772834,-0.6932205400829354
-0.3987817897654909,-0.7147936435473977
-0.41221308008367274,-0.7384213282941897
-0.3894832041605957,-0.7897858603524333
-0.3471229808494066,-0.8329320672813578
-0.33472486670954643,-0.8586143333104796
-0.38121779473402223,-0.8853238899807663
-0.4504405986815751,-0.943879456527164
-0.4773031793179389,-0.999353151150067
-0.463871888999757,-1.0342810329496726
-0.48246906020954733,-1.0589360083376296
-0.5558245688703869,-1.1133824123193676
-0.575454916258499,-1.1729652695069301
-0.3832841470906656,-1.2161114764358547
0.08267830933241418,-1.236657289259152
0.7666409393813695,-1.2808307868292417
1.5952482343953605,-1.3434955159402988
2.538538085203059,-1.4020510824866963
3.536586273461806,-1.420542314027664
4.398255206182091,-1.4318425110804776
4.812558853689087,-1.4544429051861048
4.5294685808289445,-1.4893707869857105
3.559316149384883,-1.4832070431387212
2.239950169668092,-1.4472518706979507
1.0424989789932593,-1.41335127953951
0.2820813117484993,-1.4082148263336856
-0.04026965588786629,-1.3753415258164097
-0.14565362607667812,-1.301376599652539
-0.2562034771570984,-1.2068658606653708
-0.45354012721654013,-1.1442011315543137
-0.6880711196955626,-1.0753726585962675
-0.8616447176536056,-0.9705890131974506
-0.9288011692445151,-0.8288229047166984
-0.9195025836396199,-0.7096571903415734
-0.9081376456780814,-0.6059008355839214
-0.9329338739578018,-0.49084428377345585
-0.9742609210906692,-0.33366881567523055
-0.9928580923004595,-0.18265709142399453
-0.978393625803956,-0.05424576127838565
-0.9670286878424175,0.054647046685090676
-0.9773604496256343,0.19435857388351313
-1.0093889111536065,0.3453702981347492
-1.0197206729368233,0.4778907908450175
-1.0083557349752847,0.5672650766263613
-0.9835595066955644,0.6710214313840133
-0.9732277449123475,0.7942963083237978
-0.9752940972689909,0.9103801507754282
-0.9804599781605994,0.9740721705276503
-0.9825263305172427,1.0367368996387074
-0.981493154338921,1.119947441573062
-0.9742609210906692,1.2113763086367355
-0.9618628069508091,1.2576043874891547
-0.9525642213459139,1.2884231067241008
-0.9484315166326271,1.3305420230118605
-0.939132931027732,1.389097589558258
-0.9195025836396199,1.4158071462285446
-0.9050381171431163,1.422998180716699
-0.9040049409647947,1.4291619245636882
-0.9102039980347247,1.4579260625163044
-0.9071044694997598,1.4692262595691181
-0.8967727077165428,1.4630625157221289
-0.8885072982899694,1.445598574822326
-0.8802418888633959,1.453816899951645
-0.8678437747235357,1.4589533531574694
-0.8564788367619972,1.4486804467458205
-0.847180251157102,1.4096434023815556
-0.8368484893738851,1.3921794614817526
-0.8161849658074515,1.3860157176347634
-0.7851896804578009,1.366497195452631
-0.7438626333249335,1.2915049786475954
-0.6891042958738842,1.2082944367132409
-0.6188483157480097,1.13432951054937
-0.5444596309088484,1.0757739440029725
-0.47213729842633045,0.9925634020686179
-0.3967154374088475,0.9185984759047472
-0.3026964051815742,0.864152071923009
-0.19008020174451057,0.8281968994822385
-0.07436446977248189,0.7655321703711814
0.031019500416329955,0.6987582786954648
0.12917123735688998,0.6360935495844077
0.22938932665409342,0.5970565052201425
0.3234083588813667,0.5436373918795693
0.3884984581156328,0.4891909878978311
0.41536103875199665,0.4337172932749281
0.42052691964360506,0.4008439927576522
0.42879232907017856,0.362834239034552
0.44119044321003875,0.3237971946702869
0.4380909146750737,0.2734599532532082
0.40296292461213645,0.24058665273593233
0.3513041156960522,0.20874064285982133
0.302744835314933,0.18716753939535904
0.2686500214303174,0.1563488201604129
0.2376547360806669,0.13991216990177496
0.19839404130444288,0.12347551964313704
0.15396746563661043,0.11320261323148832
0.11470677086038641,0.09060221912586117
0.0888773664023443,0.08032931271421245
0.06924701901423229,0.07005640630256374
0.046517143091155226,0.060810790532079904
0.016555033919826368,0.033073943220628385
-0.01650660378646754,0.01663729296199045
-0.04130283206618797,0.0022552239856822556
-0.04853506531443976,-0.01315413563179081
-0.04956824149276145,-0.050136598713726166
-0.05783365091933493,-0.07581886474284794
-0.08159670302073367,-0.09328280564265075
-0.1063929313004541,-0.11074674654245355
-0.12395692633192275,-0.15594753475370787
-0.1332555119368179,-0.1898481259121486
-0.13015598340185286,-0.21142122937661093
-0.08986211244730716,-0.23196704219990832
-0.007208018181572378,-0.2792224116934924
0.09301007111563103,-0.31620487477542775
0.1766973415596875,-0.33777797823989003
0.2376547360806669,-0.35524191913969283
0.28518084028346435,-0.4055791605567715
0.32960741595129683,-0.45077994876802585
0.36886811072752085,-0.4785167960794774
0.40709562932542315,-0.5011171901851045
0.45462173352822066,-0.5555635941668426
0.5166123042275217,-0.6100099981485808
0.5775696987485012,-0.649047042512846
0.6199299220596902,-0.6757565991831326
0.6292285076645854,-0.7250665499590464
0.6137308649897601,-0.7733492100937953
0.5827355796401096,-0.8082770918934009
0.5414085325072422,-0.8308774859990281
0.48251749034290614,-0.8760782742102824
0.397797043720528,-0.9284700969096908
0.29344624971003785,-0.975725466403275
0.18806227952122603,-1.0065441856382211
0.08681101404570092,-1.0486631019259807
-0.008241194359894063,-1.0928365994960703
-0.10329340276548905,-1.1359828064249948
-0.1735493828913636,-1.1647469443776113
-0.21797595855919605,-1.1996748261772168
-0.22934089652073458,-1.2356299986179873
-0.2283077203424129,-1.2756943336234172
-0.22417501562912615,-1.3024038902937038
-0.23244042505569965,-1.3280861563228257
-0.2500044200871683,-1.3547957129931123
-0.2613693580487068,-1.389723594792718
-0.2562034771570984,-1.4123239888983452
-0.25207077244381165,-1.4328698017216426
-0.27996652925849713,-1.4575247771095994
-0.33265851435290306,-1.4975891121150293
-0.3150945193214344,-1.5284078313499756
-0.08779576009066378,-1.5540900973790972
0.43395820996178697,-1.5787450727670542
1.194375877206547,-1.620863989054814
2.0756751573149437,-1.6557918708544195
3.0045005416261383,-1.682501427524706
3.9178282832625078,-1.7030472403480037
4.6141890274513235,-1.747220737918093
4.7681322780212545,-1.794476107411677
4.212283494084188,-1.8335131517759422
3.1222826259548104,-1.850977092675745
1.8876370928603974,-1.8838503931930208
0.8348305671506007,-1.9321330533277699
0.1353702944268201,-1.9793884228213539
-0.17458255906968528,-1.9824702947448485
-0.2066110205976575,-1.9742519696155296
-0.18904702556618888,-1.9906886198741676
-0.29339781957667904,-2.0286983735972677
-0.5000330552410159,-2.0071252701328053
-0.6767061817340241,-1.9444605410217484
-0.7552275712864721,-1.9146691124279671
-0.7665925092480106,-1.9434332503805833
-0.7603934521780805,-1.899259752810494
-0.7603934521780805,-1.722565762530136
-0.7789906233878708,-1.484234333779886
-0.8203176705207382,-1.2962401464467146
-0.8616447176536056,-1.117491574884027
-0.8833414173983609,-0.8997059589570745
-0.8812750650417176,-0.6798657617477921
-0.8833414173983609,-0.5391269439082048
-0.8874741221116477,-0.4250976827389041
-0.9009054124298296,-0.2720313772053383
-0.9081376456780814,-0.08095531794867229
-0.9133035265696898,0.06389266245557451
-0.9143367027480115,0.17689463298371033
-0.9143367027480115,0.29914221928233
-0.9184694074612982,0.45529039673939037
-0.9267348168878717,0.5898654707319885
-0.9360334024927669,0.6956764067719702
-0.9411992833843753,0.7829961112709842
-0.939132931027732,0.8908616285932957
-0.9319006977794801,0.9925634020686179
-0.9308675216011585,1.0768012346441374
-0.9360334024927669,1.1312476386258754
-0.9463651642759837,1.1898032051722731
-0.9535973975242356,1.2493860623598356
-0.9556637498808789,1.3048597569827387
-0.9504978689892705,1.3325966042941901
-0.9411992833843753,1.358278870323312
-0.9329338739578018,1.3839611363524338
-0.9329338739578018,1.4178617275108745
-0.9370665786710886,1.4281346339225232
-0.9329338739578018,1.4342983777695124
-0.9174362312829766,1.4394348309753369
-0.8978058838948646,1.4589533531574694
-0.8781755365067525,1.4640898063632937
-0.8482134273354237,1.4640898063632937
-0.8017204993109479,1.4568987718751396
-0.7490285142165419,1.4692262595691181
-0.7025355861920661,1.4733354221337776
-0.6519099534543036,1.4661443876456235
-0.5826871495067507,1.4384075403341718
-0.49590035052772924,1.4281346339225232
-0.4060140230137427,1.4188890181520393
-0.32542628110465127,1.4014250772522365
-0.23967265830395143,1.3531424171174875
-0.13428868811513958,1.3243782791648713
-0.0123738990731808,1.3069143382650685
0.09920912818556114,1.2853412348006061
0.17979687009465253,1.2216492150483842
0.23145567901073677,1.1661755204254811
0.2707163737869608,1.1281657667023808
0.299645306779968,1.0973470474674347
0.3120434209198282,1.0264639932270587
0.30171165913661135,0.9586628109101771
0.2820813117484993,0.9083255694930985
0.26245096436038734,0.8744249783346577
0.2428206169722753,0.8076510866589411
0.21389168397926814,0.7377953230597298
0.1756641653813658,0.6792397565133322
0.1415693514967502,0.6432845840725617
0.1157399470387081,0.5878108894496588
0.0888773664023443,0.5313099041855908
0.05168302398276365,0.47686350020385265
0.013455505384861314,0.44809936225123626
-0.01650660378646754,0.4111168991693009
-0.0392364797095446,0.37721630801086015
-0.05680047474101324,0.3412611355700897
-0.06506588416758671,0.32482448531145175
-0.06506588416758671,0.3022240912058246
-0.07023176505919514,0.28476015030602175
-0.09916069805220232,0.25702330299457027
-0.1404877451850697,0.24161394337709718
-0.17251620671304194,0.22517729311845927
-0.17458255906968528,0.2169589679891403
-0.1611512687515034,0.20154960837166722
-0.14565362607667812,0.1994950270893375
-0.12808963104520948,0.1923039926011834
-0.08366305537737705,0.18716753939535904
-0.002042137289963955,0.16764901721322648
0.09920912818556114,0.1604579827250724
0.18909545569954772,0.15018507631342368
0.2531523787554922,0.13580300733711548
0.2975789544233246,0.10087512553750987
0.3358064730212269,0.07827473143188271
0.37403399161912926,0.060810790532079904
0.4112283340387099,0.03821039642645274
0.4556549097065424,-0.012126844990625938
0.50938007097927,-0.050136598713726166
0.5569061751820674,-0.07684615538401281
0.5724038178568928,-0.10458300269546433
0.5465744133988506,-0.16005669731836736
0.5052473662659832,-0.20320290424729195
0.47528525709465436,-0.22683058899408398
0.45462173352822066,-0.25251285502320575
0.40296292461213645,-0.31415029349309803
0.2924130735317162,-0.3675694068336713
0.14776840856668033,-0.3994154167097823
0.02998632423800827,-0.4250976827389041
-0.044402360601153025,-0.4826259586441369
-0.10122705040884568,-0.5309086187788858
-0.1818147923179371,-0.5545363035256778
-0.26240253422702847,-0.5761094069901401
-0.3202604002130428,-0.6418560080246919
-0.3388575714228332,-0.7168482248297274
-0.3388575714228332,-0.7743765007349602
-0.32955898581793797,-0.8154681263815551
-0.3223267525696862,-0.8760782742102824
-0.32645945728297293,-0.9305246781920206
-0.3419570999577982,-0.9654525599916263
-0.3553883902759801,-0.9859983728149236
-0.3760519138424138,-1.032226451667343
-0.4173789609752812,-1.086672855649081
-0.444241541611645,-1.1318736438603354
-0.34608980467108497,-1.1596104911717868
-0.002042137289963955,-1.205838570024206
0.6188967458813686,-1.2633668459294387
1.4351059267554993,-1.3208951218346716
2.33706873043033,-1.3589048755577717
3.2565955291366295,-1.4030783731278613
4.084169647972299,-1.4554701958272698
4.5625302185352385,-1.5212167968618215
4.393089325290482,-1.5684721663554055
3.5303872163918757,-1.6054546294373409
2.288509450049211,-1.6331914767487923
1.1034563735142386,-1.675310393036552
0.2376547360806669,-1.7092109841949927
-0.2489712439088466,-1.7287295063771253
-0.4039476706570993,-1.7143474374008172
-0.36881968059416204,-1.7020199497068387
-0.3595210949892668,-1.6968834965010144
-0.5010662314193376,-1.6907197526540252
-0.7118341717969613,-1.6383279299546167
-0.8337489608389201,-1.5674448757142407
-0.8347821370172418,-1.5129984717325025
-0.8058532040242347,-1.4821797524975564
-0.8120522610941647,-1.398969210563202
-0.8389148417305285,-1.269530589776428
-0.8564788367619972,-1.1555013286071274
-0.8678437747235357,-1.0948911807783999
-0.8833414173983609,-0.9952439885854075
-0.9122703503913682,-0.8298501953578632
-0.9411992833843753,-0.6685655646949785
-0.9659955116640957,-0.5833004414782942
-0.9639291593074524,-0.4846805399264666
-0.9525642213459139,-0.3192867466989224
-0.9504978689892705,-0.14156546577739967
-0.9690950401990608,-0.041918273584407195
-0.9887253875871728,0.0433468496322771
-0.9928580923004595,0.1779219236248752
-0.9907917399438162,0.33509739172310044
-0.9866590352305294,0.42652625878677397
-0.9794268019822776,0.49021827853899597
-0.9680618640207391,0.5847290175261641
-0.9711613925557042,0.7059493131836189
-0.9897585637654945,0.7809415299886545
-1.004223030261998,0.8251150275587439
-0.9959576208354246,0.8764795596169874
-0.981493154338921,0.9483899044985284
-0.9794268019822776,0.9925634020686179
-0.9866590352305294,1.015163796174245
-0.9804599781605994,1.031600446432883
-0.958763278415844,1.063446456308994
-0.9453319880976621,1.0819376878499616
-0.9525642213459139,1.0922105942616105
-0.9639291593074524,1.0891287223381159
-0.9597964545941656,1.09426517554394
-0.9360334024927669,1.0891287223381159
-0.9122703503913682,1.087074141055786
-0.8926400030032561,1.072692072079478
-0.8657774223668924,1.0613918750266642
-0.8213508466990599,1.039818771562202
-0.7655593330696889,1.0274912838682235
-0.7066682909053529,1.0059181804037611
-0.6395118393144434,0.9884542395039584
-0.5599572735836736,0.9627719734748367
-0.47420365078297383,0.9524990670631879
-0.3905163803389174,0.9340078355222202
-0.3047627575382176,0.9072982788519336
-0.2076441967759792,0.8590156187171847
-0.10432657894381074,0.8271696088410737
-0.008241194359894063,0.7973781802472925
0.07647925226248407,0.7624502984476867
0.14880158474500202,0.6997855693366296
0.2025267460177296,0.656639362407705
0.22628979811912836,0.6247933525315941
0.22422344576248499,0.5898654707319885
0.20872580308765973,0.5200097071327773
0.19116180805619107,0.4645360125098742
0.1766973415596875,0.42858084006910374
0.16843193213311403,0.394680248910663
0.16739875595479234,0.3196880321056274
0.17153146066807906,0.250859559147581
0.18083004627297422,0.2056587709363267
0.19116180805619107,0.1738127610602157
0.19839404130444288,0.10806616002566397
0.19426133659115613,0.04745601219693658
0.18496275098626097,0.009446258473836353
0.1828963986296176,-0.011099554349461067
0.1973608651261212,-0.057327633201880265
0.22112391722751992,-0.10252842141313459
0.24488696932891868,-0.1333471406480807
0.2614177881820656,-0.1446473377008943
0.2614177881820656,-0.1795752195004999
0.22422344576248499,-0.21450310130010553
0.15086793710164537,-0.24326723925272192
0.07131337137087565,-0.25456743630553547
0.019654562454791424,-0.2751132491288329
0.005190095958287838,-0.28846802746397626
0.01242232920653963,-0.2966863525932952
0.021720914811434792,-0.29463177131096546
0.009322800671574576,-0.3079865496461088
-0.03820330353122292,-0.32031403734008723
-0.1063929313004541,-0.3326415250340657
-0.1621844449298251,-0.33777797823989003
-0.1942129064577973,-0.35626920978085774
-0.22314183945080449,-0.3747604413218254
-0.27273429601024535,-0.39427896350395797
-0.3202604002130428,-0.4055791605567715
-0.34505662849276325,-0.4281795546623987
-0.33989074760115484,-0.4528345300503556
-0.3388575714228332,-0.48365324928530173
-0.3388575714228332,-0.5011171901851045
-0.3440234523144416,-0.5257721655730614
-0.33989074760115484,-0.5565908848080076
-0.3357580428878681,-0.6028189636604268
-0.33162533817458134,-0.6367195548188676
-0.3285258096396163,-0.6675382740538136
-0.3223267525696862,-0.6952751213652651
-0.30889546225150427,-0.7343121657295303
-0.29339781957667904,-0.759994431758652
-0.3006300528249308,-0.7784856632996197
-0.33782439524451147,-0.7959496041994225
-0.33989074760115484,-0.8329320672813578
-0.1807816161396154,-0.8616962052339743
0.23145567901073677,-0.8801874367749419
0.8864893760666849,-0.8945695057512502
1.704764909297459,-0.9243609343450314
2.6077608891506117,-0.9459340378094937
3.510756869003764,-0.959288816144637
4.241212427077195,-0.9695617225562857
4.5367008140771965,-1.0003804417912319
4.188520441982789,-1.021953545255694
3.2586618814932726,-1.0332537423085077
2.0798078620282308,-1.0445539393613212
1.0321672172100425,-1.0805091118020917
0.32134200652472333,-1.110300540395873
-0.03407059881793618,-1.1287917719368408
-0.13842139282842633,-1.142146550271984
-0.16425079728646844,-1.1842654665597439
-0.2871987625067489,-1.229466254770998
-0.5361942214822749,-1.2643941365706037
-0.7707252139612973,-1.285967240035066
-0.8554456605836754,-1.3270588656816609
-0.8234171990557032,-1.3763688164575747
-0.7965546184193395,-1.4215696046688289
-0.8234171990557032,-1.4410881268509614
-0.8554456605836754,-1.467797683521248
-0.8585451891186405,-1.5058074372443484
-0.8544124844053538,-1.5499809348144378
-0.860611541475284,-1.563335713149581
-0.8771423603284308,-1.5623084225084163
-0.8854077697550043,-1.563335713149581
-0.8905736506466128,-1.5818269446905489
-0.886440945933326,-1.5766904914847244
-0.8874741221116477,-1.5427899003262837
-0.8916068268249344,-1.4873162057033806
-0.9009054124298296,-1.4503337426214453
-0.9071044694997598,-1.4071875356925208
-0.9050381171431163,-1.3404136440168042
-0.902971764786473,-1.236657289259152
-0.9040049409647947,-1.1400919689896543
-0.9122703503913682,-1.05482684577297
-0.922602112174585,-0.9664798506327911
-0.9360334024927669,-0.8308774859990281
-0.9432656357410186,-0.6829476336712867
-0.9432656357410186,-0.5565908848080076
-0.9380997548494102,-0.45797098325617996
-0.9432656357410186,-0.3182594560577575
-0.9628959831291307,-0.1446473377008943
-0.9835595066955644,0.013555421038495837
-0.9887253875871728,0.11525719451381806
-0.981493154338921,0.23647749017127284
-0.9742609210906692,0.3977621208341576
-0.9763272734473126,0.5549375889323829
-0.984592682873886,0.6443118747137266
-0.9897585637654945,0.7275224166480811
-0.9794268019822776,0.8466881310232062
-0.9504978689892705,0.9750994611688151
-0.9122703503913682,1.039818771562202
-0.8792087126850743,1.0860468504146212
-0.8482134273354237,1.1548753233726674
-0.8017204993109479,1.2442496091540114
-0.7304313430067516,1.2853412348006061
-0.6488104249193386,1.303832466341574
-0.5702890353668906,1.3305420230118605
-0.48866811727947745,1.3798519737877744
-0.388450027982274,1.4014250772522365
-0.2758338245452104,1.4014250772522365
-0.1735493828913636,1.397315914687577
-0.09709434569555894,1.4168344368697097
-0.028904717926327757,1.4260800526401936
0.05374937633940702,1.4199163087932043
0.14053617531842852,1.3911521708405878
0.19012863187786938,1.37471552058195
0.18496275098626097,1.3562242890409821
0.15190111327996705,1.3367057668588498
0.1353702944268201,1.2976687224945846
0.14053617531842852,1.2730137471066276
0.1364034706051418,1.253495224924495
0.0961095996505961,1.239113155948187
0.03721855748626006,1.1969942396604272
-0.011340722894859117,1.1600117765784919
-0.04026965588786629,1.1261111854200512
-0.06919858888087346,1.1024835006732592
-0.11259198837038421,1.0521462592561803
-0.16011809257318171,0.9946179833509476
-0.18904702556618888,0.9350351261633851
-0.19834561117108404,0.8929162098756254
-0.20454466824101414,0.8364152246115575
-0.2221086632724828,0.7758050767828301
-0.24690489155220322,0.7080038944659486
-0.270667943653602,0.6617758156135294
-0.29339781957667904,0.6114385741964508
-0.3223267525696862,0.5569921702147126
-0.35228886174101504,0.48405453469200677
-0.36881968059416204,0.43063542135143346
-0.36881968059416204,0.38440734249901426
-0.3626206235242319,0.34228842621125455
-0.3646869758808753,0.27859640645903255
-0.3677865044158403,0.2313410369654485
-0.36572015205919695,0.19641315516584287
-0.35848791881094516,0.1707308891367211
-0.3553883902759801,0.12347551964313704
-0.3564215664543018,0.08443847527887194
-0.3553883902759801,0.05875620924975016
-0.34505662849276325,0.04745601219693658
-0.33782439524451147,0.01971916488548506
-0.33989074760115484,0.0022552239856822556
-0.34608980467108497,-0.008017682425966455
-0.3357580428878681,-0.009044973067131324
-0.3026964051815742,-0.03164536717275849
-0.24690489155220322,-0.04705472679023155
-0.17664891142632866,-0.056300342560715394
-0.0929616409822722,-0.05938221448421
0.0010573912450010992,-0.08300989923100204
0.08784419022402261,-0.09739196820731023
0.1570669941715755,-0.10355571205429946
0.21182533162262476,-0.10869216526012382
0.26038461200374396,-0.14053817513623482
0.302744835314933,-0.16827502244768633
0.338906001556192,-0.186766253988654
0.378166696332416,-0.2011483229649622
0.43602456231843034,-0.24121265797039218
0.5021478377310181,-0.27716783041116266
0.5300435945457036,-0.30285009644028443
0.48768337123451455,-0.3213413279812521
0.4008965722554931,-0.3644875349101767
0.3306405921296185,-0.4076337418391013
0.29861213060164626,-0.44358891427987174
0.25935143582542225,-0.4672165990266638
0.1611996988848622,-0.5103628059555884
0.019654562454791424,-0.5555635941668426
-0.11982422161863601,-0.5956279291722727
-0.22314183945080449,-0.6213101952013944
-0.30889546225150427,-0.6593199489244946
-0.37398556148577045,-0.6973297026475949
-0.43081025129346306,-0.7353394563706951
-0.4762700031396172,-0.7579398504763223
-0.5103648170242328,-0.7867039884289386
-0.5175970502724846,-0.8144408357403902
-0.4989998790626943,-0.848341426898831
-0.4783363554962606,-0.8678599490809635
-0.46490506517807867,-0.8904603431865906
-0.44940742250325344,-0.9130607372922178
-0.44630789396828835,-0.9469613284506585
-0.48246906020954733,-0.9695617225562857
-0.5206965788074497,-0.9901075353795832
-0.43081025129346306,-1.0116806388440454
-0.08986211244730716,-1.046608520643651
0.5104132471575916,-1.070236205390443
1.2780631476506032,-1.0907820182137404
