ECG,PPG
-0.0727041683629459,-0.12601832729934415
-0.06557900330457464,0.5737685505393468
-0.1172364499777662,0.5944373612771985
-0.18225358113540385,0.30950304181967236
-0.14306517331436197,0.1530106176616529
0.028829433718844413,0.17441760021157066
0.20695856017812564,0.18475200558049648
0.2630692350127992,0.08657515457570121
0.22477147282405377,-0.02488878904628437
0.20963049707501485,-0.060321036025458595
0.25505342432213157,-0.05515383334099569
0.2995857059369519,-0.0950151111925667
0.3040389340984339,-0.1695704642112458
0.3147266816859908,-0.2145989447472797
0.39844737112185297,-0.21828980380761034
0.5543103567737241,-0.23600592729719747
0.7021575317349275,-0.28103440783323136
0.7404552939236729,-0.31720482662447175
0.6309058811512149,-0.3238483729330669
0.44030771583978406,-0.3312300910537282
0.2862260214525058,-0.35928061991224114
0.22477147282405377,-0.3932365232672831
0.2149743708687933,-0.4079999595086057
0.1864737106353083,-0.41981070850166374
0.1276910989037455,-0.4404795192395154
0.05733009395232941,-0.47591176621868964
-0.002343163411529803,-0.49879509239273967
-0.05845383824620339,-0.5135585286340623
-0.10832999365480214,-0.5379181984322445
-0.1920506830906643,-0.5836848507803446
-0.3087252609214935,-0.6169025823233204
-0.3933365959896521,-0.6353568776249736
-0.3541481881686102,-0.6670982655438172
-0.22856715401481698,-0.7446063058107608
-0.15553421216651167,-0.8317105796345642
-0.18670680929688588,-0.8966696990963836
-0.21164488700118525,-0.9409600078203514
-0.1492996927404368,-0.9926320346649804
-0.09318901790576323,-1.035445999764816
-0.15642485779880808,-1.0561148105026676
-0.22945779964711338,-1.0634965286233289
-0.0308438236450148,-1.0878561984215112
0.578357788845727,-1.115906727280024
1.4280337220564985,-1.132884678957545
2.2705844902088987,-1.1373137098299417
3.0792907243340357,-1.1513389742591984
3.9316385944416963,-1.1668405823125871
4.635248643955857,-1.1764368158694467
4.710062877068755,-1.1771749876815127
3.9075911623696933,-1.1845567058021742
2.5644975488667128,-1.1926765957349015
1.2971088141089269,-1.1985819702314306
0.42249480319385596,-1.1978437984193644
-0.13415871699139792,-1.2037491729158936
-0.5171363388788526,-1.212607234660687
-0.7139690236163583,-1.223679811841679
-0.6997186934996158,-1.2273706709020096
-0.5874973438302686,-1.2340142172106048
-0.5483089360092268,-1.2428722789553983
-0.6186699409606429,-1.2568975433846548
-0.6899215915443554,-1.26354108969325
-0.6721086788984272,-1.2664937769415145
-0.6159980040637536,-1.2664937769415145
-0.6204512322252357,-1.2731373232501098
-0.6854683633828733,-1.275351838686308
-0.7317819362622865,-1.2731373232501098
-0.7148596692486547,-1.2568975433846548
-0.684577717750577,-1.2443486225795306
-0.6783431983245021,-1.2340142172106048
-0.6961561109704302,-1.2222034682175467
-0.706843858557987,-1.183818533990108
-0.7139690236163583,-1.138790053454074
-0.7246567712039153,-1.1055723219110982
-0.7415790382175469,-1.0826889957370482
-0.7513761401728074,-1.019206219899361
-0.7362351644237685,-0.9261965715790288
-0.693484174073541,-0.8494267031241513
-0.6257951060190141,-0.8058745662122496
-0.5500902272738196,-0.7209848078246447
-0.48863567864536755,-0.5873757098406752
-0.4743853485286251,-0.46853004809802834
-0.5189176301434454,-0.40652361588447344
-0.6070915477407895,-0.31351396756414107
-0.7032812760288014,-0.15554519978198933
-0.7780955091416996,-0.003481806496366608
-0.8030335868459989,0.07476440558264315
-0.7870019654646636,0.16408319484264483
-0.7843300285677745,0.3213137908127305
-0.8546910335191905,0.4866642767155435
-0.963349800659352,0.574506722351413
-0.9945223977897263,0.6534911062424889
-0.8796291112234899,0.7922674069109212
-0.7032812760288014,0.950236174693073
-0.6168886496960501,1.0402931357651408
-0.6792338439567985,1.1074667706631587
-0.807486815007481,1.2152398552248136
-0.8938794413402323,1.3503252968329154
-0.9099110627215676,1.434476883408454
-0.8938794413402323,1.49057794112548
-0.8680507180036365,1.5643951223320929
-0.8083774606397773,1.6625719733368882
-0.6943748197058374,1.7290074364228398
-0.5581060379644872,1.7696068860864769
-0.4530098533535113,1.8087299921259818
-0.38621143093128085,1.86630739346714
-0.30961590655378995,1.9076450149428432
-0.1902693918260715,1.9327428565530915
-0.06379771203998183,1.946029949170282
0.00032877348535941556,1.9696514471563982
-0.006796391573011834,1.985153055209787
-0.00768703720530824,1.9954874605787127
0.08939333671500004,1.9895820860821836
0.27821021076183816,1.985891227021853
0.4509954634273409,1.9770331652770594
0.492855808145272,1.9740804780287948
0.4046818905479278,1.9548880109150755
0.29335118651087705,1.9268374820565626
0.2577253612190208,1.8899288914532562
0.29156989524628424,1.8685219089033382
0.3227424923766584,1.8397332082327593
0.2995857059369519,1.7947047276967254
0.2408030942053891,1.7275310927987075
0.19181758442908675,1.6817644404506076
0.17934854557693705,1.644117678035235
0.19359887569367956,1.5865402766940768
0.2007240407520508,1.4942688001858107
0.17311402615086222,1.4263569934757265
0.1125501231547066,1.3805903411276266
0.05376751142314379,1.3171075652899396
0.029720079351140818,1.2041672780438215
0.05020492889395816,1.1178011760320845
0.10008108430255691,1.0683436646236537
0.1561917591372305,0.9930501397929085
0.17934854557693705,0.8203179357694341
0.14372272028508082,0.6291314364443066
0.06534590464299707,0.48961696396380805
0.007453938543730665,0.39513097201934344
0.018141686131287537,0.2799761693370272
0.10008108430255691,0.1803229747080997
0.22209953592716455,0.13012729148760288
0.35480573513932906,0.11314933981008189
0.46880837607326903,0.06221548477751894
0.5373880897600923,0.0031617398122285594
0.5685606868904666,-0.03227050716694567
0.5997332840208408,-0.03817588166347471
0.6487187937971431,-0.06401189508578925
0.6905791385150742,-0.09649145481669895
0.6959230123088527,-0.11937478099074897
0.6816726821921101,-0.1201129528028151
0.6709849346045532,-0.1304473581717409
0.6496094394294395,-0.142258107164799
0.587264245168691,-0.1525925125337248
0.4901838712483828,-0.14816348166132803
0.41269770123859545,-0.15111616890959256
0.3868689779019997,-0.15185434072165868
0.3654934827268859,-0.15554519978198933
0.2871166670848022,-0.15111616890959256
0.14461336591737722,-0.15333068434579095
0.019032331763583946,-0.1525925125337248
-0.05221931882012855,-0.15406885615785706
-0.08339191595050276,-0.15037799709752642
-0.12079903250695183,-0.15406885615785706
-0.13950259078517635,-0.15923605884231998
-0.09942353733183808,-0.17030863602331192
-0.013030910999086676,-0.1747376668957087
0.04040782693869769,-0.18359572864050225
0.010125875440619884,-0.1895011031370313
-0.08250127031820635,-0.2020500239421555
-0.18225358113540385,-0.20943174206281678
-0.26953685310045167,-0.21755163199554423
-0.3220849454059396,-0.21607528837141196
-0.24370812976385586,-0.2197661474317426
0.08939333671500004,-0.221980662867941
0.6959230123088527,-0.2264096937403378
1.4743472949359115,-0.2145989447472797
2.33471097573424,-0.20131185213008937
3.26899824401317,-0.1917156185732297
4.204176157924397,-0.19097744676116354
4.836534556854845,-0.16661777696298127
4.7617203237419465,-0.1297091863596748
3.8461366137412414,-0.09649145481669895
2.4326819952868446,-0.08246619038744249
1.1020574206360139,-0.045557599784136
0.231896637882425,0.014234316993220504
-0.18047228987081104,0.07254989014644475
-0.314069134715272,0.09912407538082542
-0.3051626783923079,0.14119986866859482
-0.261521042409784,0.2128025344390094
-0.31050655218608636,0.2925250901421514
-0.47171341163173586,0.3360772270540531
-0.6017476739470111,0.3796293639659547
-0.5830441156687867,0.4468029988639725
-0.5064485912912957,0.5272637263791806
-0.53762118842167,0.5759830659755452
-0.6747806157953165,0.6128916565788517
-0.768298407186439,0.6616109961752162
-0.7246567712039153,0.7265701156370357
-0.6062009021084932,0.7686459089248051
-0.5153550476142598,0.7944819223471196
-0.5162456932465561,0.8181034203332358
-0.5696844311843405,0.8572265263727407
-0.5946225088886399,0.8852770552312536
-0.5278240864664094,0.89930231966051
-0.4539004989858077,0.89930231966051
-0.5153550476142598,0.9066840377811713
-0.7184222517778404,0.9118512404656343
-0.8858636306495647,0.910374896841502
-0.8671600723713402,0.8897060861036503
-0.7237661255716188,0.8668227599296003
-0.6249044603867177,0.8424630901314181
-0.6462799555618315,0.8225324512056326
-0.73089129062999,0.7871002042264583
-0.8101587519043701,0.7435480673145567
-0.8502378053577084,0.6955668995302582
-0.8466752228285228,0.6608728243631501
-0.807486815007481,0.6180588592633146
-0.7718609897156247,0.563434145170421
-0.7700796984510319,0.49478416664827096
-0.7887832567292564,0.4431121398036419
-0.7994710043168133,0.39808365926760797
-0.7905645479938492,0.3427207733626482
-0.7638451790249571,0.267427248531903
-0.7121877323517655,0.20984984719074487
-0.6471706011941278,0.16851222571504162
-0.6106541302699752,0.11979288611867706
-0.6266857516513106,0.0415466740396673
-0.6623115769431668,-0.02193610179801985
-0.6667648051046488,-0.06253555146165699
-0.6249044603867177,-0.10387317293736024
-0.5527621641707088,-0.17916669776810548
-0.4752759941609215,-0.24338764541785876
-0.43074371254610117,-0.2795580642090991
-0.4351969407075832,-0.318681170248604
-0.4351969407075832,-0.41021447494480406
-0.3390072124195713,-0.5135585286340623
-0.14128388204976916,-0.5881138816527414
0.05198622015855097,-0.6309278467525768
0.16064498729871252,-0.6840762172213382
0.2149743708687933,-0.7313192131935705
0.26485052627739203,-0.7564170548038189
0.27642891949724535,-0.7593697420520834
0.20339597764894002,-0.7763476937296044
0.09562785614107487,-0.7970165044674561
0.06356461337840426,-0.8103035970846464
0.13303497269752393,-0.8058745662122496
0.22744340972094299,-0.808089081648448
0.26930375443887405,-0.8132562843329109
0.25238148742524236,-0.8184234870173738
0.21853695339797893,-0.8132562843329109
0.2025053320166436,-0.8088272534605141
0.20873985144271845,-0.802183707151919
0.22031824466257174,-0.7977546762795221
0.21853695339797893,-0.7881584427226624
0.2016146863843472,-0.7807767246020012
0.18291112810612267,-0.7704423192330754
0.16777015235708378,-0.762322429300348
0.16064498729871252,-0.7542025393676205
0.16153563293100892,-0.7505116803072899
0.1588636960341197,-0.7431299621866285
0.10987818625781737,-0.7372245876900996
-0.013921556631383083,-0.7305810413815044
-0.16800325101866134,-0.7320573850056367
-0.24103619286696665,-0.7364864158780334
-0.17245647918014337,-0.7438681339986947
-0.013921556631383083,-0.7482971648710914
0.11611270568389222,-0.7578933984279512
0.1588636960341197,-0.7689659756089431
0.13392561832982033,-0.7837294118502657
0.10275302119944613,-0.791111129970927
0.11433141441929941,-0.802183707151919
0.18380177373841908,-0.8213761742656384
0.284444730187913,-0.8509030467482835
0.37529058468214643,-0.8730482011102674
0.4465422352658589,-0.8915024964119207
0.5267003421725355,-0.9143858225859707
0.6273432986220293,-0.9483417259410126
0.7155172162193736,-0.973439567551261
0.7475804589820442,-0.9889411756046498
0.7262049638069304,-1.0118245017786998
0.6896884928827778,-1.0546384668785354
0.6478281481648467,-1.092285229293908
0.5694513325227629,-1.1144303836558918
0.44119836147208047,-1.138051881642008
0.30938280789221234,-1.1823421903659757
0.24525632236687112,-1.223679811841679
0.24703761363146393,-1.2480394816398612
0.24614696799916752,-1.2672319487535806
0.16598886109249097,-1.3063550547930856
0.03150137061573363,-1.3462163326446566
-0.09497030917035604,-1.3705760024428388
-0.16800325101866134,-1.3853394386841613
-0.21787940642726009,-1.4148663111668067
-0.26330233367437683,-1.4502985581459809
-0.26330233367437683,-1.4746582279441631
-0.17156583354784696,-1.4872071487492873
-0.04242221686486808,-1.5056614440509406
0.005672647279137853,-1.5270684266008583
-0.05400061008472136,-1.542570034654247
-0.12168967813924823,-1.54773723733871
-0.12614290630073025,-1.5529044400231728
-0.09586095480265244,-1.5580716427076358
-0.02371865858664355,-1.5610243299559003
0.23278728351472142,-1.5588098145197018
0.810816298875089,-1.5558571272714374
1.6738519165703065,-1.5492135809628422
2.652671466464057,-1.542570034654247
3.582505506581505,-1.5337119729094535
4.296803303683223,-1.5285447702249906
4.576466032224294,-1.5226393957284616
4.239801983216252,-1.5167340212319325
3.3144211712602867,-1.5108286467354035
2.076423742368282,-1.5108286467354035
0.9043340902662117,-1.5130431621716018
0.09295591924418566,-1.5159958494198664
-0.2535052317191163,-1.5167340212319325
-0.2348016734408918,-1.5233775675405277
-0.1038767654933201,-1.5351883165335858
-0.1172364499777662,-1.5529044400231728
-0.34435108621334976,-1.5676678762644956
-0.5910599263594543,-1.582431312505818
-0.5964038001532327,-1.5986710923712728
-0.34167914931646054,-1.622292590357389
-0.10743934802250572,-1.645175916531439
-0.15731550343110448,-1.6658447272692907
-0.45568179025040056,-1.6754409608261505
-0.7442509751144362,-1.6916807406916052
-0.8529097422545977,-1.7204694413621844
-0.8395500577701516,-1.747043626596565
-0.8235184363888163,-1.7367092212276392
-0.8377687665055588,-1.7182549259259858
-0.8137213344335558,-1.7308038467311102
-0.7424696838498434,-1.7581162037775568
-0.67388997016302,-1.7057060051208617
-0.6632022225754631,-1.57062056351276
-0.6836870721182805,-1.439225980964989
-0.6801244895890949,-1.360241597073913
-0.6551864118847955,-1.2443486225795306
-0.6649835138400559,-1.064234700435395
-0.7300006449976937,-0.904789589029111
-0.7870019654646636,-0.8302342360104319
-0.7647358246572534,-0.7305810413815044
-0.669436742001538,-0.5401327138684429
-0.5768095962427118,-0.341564496422654
-0.5340586058924843,-0.23231506823686682
-0.5287147320987059,-0.12454198367521188
-0.5438557078477447,0.06443000021371732
-0.6053102564761967,0.2792379975249611
-0.7300006449976937,0.4121089236968644
-0.8573629704160797,0.5191438364464532
-0.8814104024880827,0.6815416351010017
-0.768298407186439,0.8801098525467906
-0.607982193373086,1.0174098095910908
-0.5420744165831519,1.1170630042200183
-0.6249044603867177,1.2418140404591942
-0.7772048635094032,1.4005209800534122
-0.8502378053577084,1.5208429854201913
-0.7611732421280678,1.60499457199573
-0.5483089360092268,1.6869316431350705
-0.3381165667872749,1.7954428995087914
-0.24370812976385586,1.8914052350773884
-0.28111524632030493,1.9622697290357367
-0.36750787265305634,2.008774553195903
-0.3968991785188377,2.0582320646043337
-0.32653817356742165,2.0980933424559045
-0.18314422676770026,2.129096558562682
0.002110064749952228,2.1372164484954097
0.22388082719175736,2.1431218229919384
0.43941707020748766,2.1482890256764016
0.54540390045076,2.163052461917724
0.46969902170556543,2.157147087421195
0.2737569826003561,2.133525589435079
0.1276910989037455,2.0951406552076404
0.14461336591737722,2.075948188093921
0.29156989524628424,2.0523266901078046
0.4278386769876344,2.0065600377597046
0.4429796527366733,1.9327428565530915
0.35391508950703265,1.8810708297084626
0.284444730187913,1.84342406729309
0.31383603605369437,1.7887993532001962
0.37083735652066435,1.6935751894436657
0.3236331380089548,1.6197580082370526
0.17578596304775143,1.5739913558889527
0.07603365223055394,1.5201048136081252
0.10453431246403894,1.4152844162947347
0.16242627856330533,1.3215365961623362
0.13214432706522752,1.2661737102573765
0.052876865790847376,1.2159780270368796
0.039517181306401285,1.115586660595886
0.10720624936092815,1.0203624968393552
0.15173853097574846,0.9627850954981971
0.11611270568389222,0.9207093022104278
0.04664234636477253,0.8328668565745584
0.028829433718844413,0.7428098955024905
0.0858307541858144,0.6852324941613324
0.18023919120923346,0.6505384189942243
0.2577253612190208,0.5811502686600081
0.29156989524628424,0.5058567438292629
0.2835540845556166,0.4519702015484354
0.27642891949724535,0.4239196726899225
0.3289770118027333,0.3744621612814918
0.464355147911787,0.3213137908127305
0.6273432986220293,0.2799761693370272
0.7315488376007089,0.2600455304112417
0.7600494978341938,0.22682779886826587
0.7956753231260502,0.19213372370115778
0.8856305319879871,0.16186867940644645
0.9542102456748104,0.14784341497718997
0.8820679494588015,0.1256982606152061
0.6709849346045532,0.10429127806528833
0.45812062848571217,0.08140795189123831
0.37885316721133205,0.07033537471024637
0.4438702983689697,0.05557193846892377
0.540950672289278,0.04597570491206408
0.5356067984954995,0.03268861229487375
0.3868689779019997,0.028997753234543098
0.1579730504018233,0.020139691489749544
-0.022828012954347145,0.011281629744955987
-0.09229837227346682,-0.0049581501204988675
-0.05400061008472136,-0.013816211865292425
0.012797812337509101,-0.02488878904628437
0.060892676481515036,-0.03817588166347471
0.06623655027529347,-0.06105920783752473
0.039517181306401285,-0.07434630045471506
-0.013030910999086676,-0.08689522125983927
-0.06557900330457464,-0.10387317293736024
-0.07626675089213152,-0.13635273266826994
-0.028171886748125582,-0.15923605884231998
0.018141686131287537,-0.17621401051984095
-0.029062532380421988,-0.19835916488182484
-0.16622195975406853,-0.2396967863575281
-0.22411392585333495,-0.2692236588401733
0.011016521072916289,-0.2854634387056282
0.6059678034469156,-0.31203762394000883
1.431596304585684,-0.3762585715897621
2.3053196698684584,-0.4434322064877799
3.146089146756266,-0.4914133742720784
3.9191695555895465,-0.5261074494391864
4.467807265084133,-0.5763031326596832
4.498979862214507,-0.6198552695715849
3.8301049923599058,-0.6434767675577011
2.624170806230572,-0.6552875165507591
1.3265001199747082,-0.6855525608454704
0.3610402545654039,-0.7165557769522479
-0.12525226066843384,-0.7357482440659673
-0.2481613579253379,-0.7431299621866285
-0.20541036757511041,-0.7667514601727448
-0.15553421216651167,-0.7955401608433238
-0.1911600374583679,-0.8191616588294399
-0.33989785805186773,-0.8280197205742335
-0.5242615039372238,-0.8435213286276222
-0.6088728390053824,-0.8627137957413415
-0.5313866689955951,-0.8819062628550609
-0.38799272219587366,-0.8863352937274578
-0.3354446298903857,-0.8915024964119207
-0.42807177564921195,-0.9003605581567142
-0.5777002418750082,-0.9151239943980368
-0.6569677031493883,-0.915862166210103
-0.6133260671668644,-0.9099567917135739
-0.465478892205661,-0.9018369017808464
-0.3051626783923079,-0.9055277608411771
-0.21698876079496368,-0.9003605581567142
-0.2624116880420804,-0.8833826064791932
-0.4173840280616551,-0.8501648749362174
-0.6062009021084932,-0.825067033325969
-0.7380164556883613,-0.8007073635277867
-0.7602825964957715,-0.7689659756089431
-0.7032812760288014,-0.7076977152074544
-0.6569677031493883,-0.6434767675577011
-0.6899215915443554,-0.5888520534648075
-0.7700796984510319,-0.5430854011167074
-0.7985803586845169,-0.4641010172256316
-0.7264380624685081,-0.3688768534691008
-0.6133260671668644,-0.28767795414182656
-0.5429650622154484,-0.23305324004893294
-0.53762118842167,-0.14594896622512965
-0.5652312030228585,-0.02341244542215211
-0.6026383195793076,0.08731332638776734
-0.6409360817680531,0.1507961022254545
-0.6649835138400559,0.23420951698892717
-0.6551864118847955,0.36043689685223534
-0.6204512322252357,0.48444976127934514
-0.5964038001532327,0.5501470525532307
-0.6035289652116039,0.6195352028874469
-0.6266857516513106,0.733951833757697
-0.6355922079742746,0.8587028699968728
-0.6249044603867177,0.9258765048948907
-0.607982193373086,0.9805012189877843
-0.5670124942874513,1.0661291491874554
-0.4752759941609215,1.1679968592525813
-0.3621639988592779,1.2226215733454748
-0.28645912011408337,1.257315648512583
-0.22589521711792776,1.309725847169278
-0.10120482859643089,1.3820666847517589
0.058220739584625814,1.4211897907912638
0.10542495809633534,1.4411204297170492
0.012797812337509101,1.4647419277031655
-0.03975027996797886,1.508294064615067
0.09740914740566768,1.5333919062253154
0.3289770118027333,1.5429881397821752
0.4705896673378619,1.5437263115942412
0.49819968193905045,1.558489747835564
0.49909032757134686,1.5673478095803575
0.4848399974546044,1.5658714659562252
0.4020099536510386,1.5466789988425058
0.2826634389233202,1.537082765285646
0.23724051167620344,1.5274865317287865
0.29691376904006267,1.5171521263598606
0.36816541962377514,1.4861489102530832
0.3467899244486614,1.455883865958372
0.23813115730849985,1.4270951652877928
0.14105078338819158,1.405688182737875
0.1303630358006347,1.3643505612621718
0.18023919120923346,1.3134167062296087
0.20606791454582923,1.2558393048884506
0.170442089253973,1.2145016834127473
0.11165947752241019,1.1650441720043168
0.08137752602433238,1.1008232243545635
0.06712719590758988,1.0225770122755538
0.02259491429276957,0.9649996109343956
-0.051328673187832144,0.9125894122777004
-0.08250127031820635,0.8439394337555503
-0.0005618721469369906,0.7450244109386889
0.16420756982789814,0.6667781988596791
0.27910085639413457,0.6099389693305872
0.2612879437482064,0.5427653344325694
0.1980521038551616,0.43868310893124507
0.26039729811591,0.35157883510744176
0.464355147911787,0.29621594920248207
0.6193274879313617,0.23863854786132394
0.5543103567737241,0.1382471814203303
0.33788346812569736,0.04966656397239473
0.2007240407520508,-0.0027436346843004783
0.2826634389233202,-0.05515383334099569
0.49998097320364326,-0.165141433338849
0.6745475171337388,-0.28767795414182656
0.7164078618516699,-0.37256771252943144
0.6629691239138856,-0.41981070850166374
0.5819203713749126,-0.47886445346695417
0.5079967838943109,-0.5305364803115832
0.464355147911787,-0.5541579782976994
0.4670270848086762,-0.5548961501097655
0.4670270848086762,-0.574826789035551
0.38063445847592486,-0.6006628024578655
0.20517726891353283,-0.6161644105112543
0.06267396774610785,-0.6139498950750559
0.021704268660473165,-0.6235461286319156
0.0270481424542516,-0.6353568776249736
-0.005905745940715428,-0.6434767675577011
-0.02639059548353277,-0.6390477366853042
0.009235229808323477,-0.6434767675577011
0.0412984725709941,-0.6493821420542301
-0.02104672168975433,-0.6575020319869576
-0.1305961344622123,-0.6567638601748914
-0.16889389665095775,-0.660454719235222
-0.09407966353805963,-0.6597165474231559
0.03150137061573363,-0.6611928910472882
0.10275302119944613,-0.6589783756110897
0.026157496821955194,-0.6619310628593543
-0.18225358113540385,-0.660454719235222
-0.3069439696569007,-0.660454719235222
-0.05221931882012855,-0.6582402037990237
0.6326871724158077,-0.6619310628593543
1.484144396891172,-0.6648837501076188
2.2313960823878567,-0.6693127809800156
2.880676748331937,-0.6700509527920817
3.545098390025056,-0.6759563272886108
4.120455468488534,-0.6855525608454704
4.2807716823018875,-0.6988396534626607
3.7855727107450856,-0.7062213715833221
2.724813762680066,-0.7180321205763802
1.4413934065409446,-0.7372245876900996
0.3209612011120656,-0.7667514601727448
-0.38621143093128085,-0.7874202709105964
-0.6168886496960501,-0.8066127380243158
-0.4975421349683316,-0.8339250950707625
-0.2704274987327481,-0.8789535756067964
-0.17423777044473618,-0.9173385098342351
-0.29981880459852944,-0.9461272105048143
-0.5331679602601879,-0.9749159111753933
-0.6765619070599093,-1.0214207353355595
-0.6444986642972387,-1.0671873876836595
-0.5358398971570771,-1.0996669474145693
-0.5073392369235921,-1.1195975863403547
-0.5999663826824183,-1.1542916615074628
-0.7130783779840619,-1.1978437984193644
-0.7442509751144362,-1.2325378735864725
-0.6908122371766517,-1.239919591707134
-0.6507331837233135,-1.246563138015729
-0.6703273876338344,-1.2694464641897791
-0.7157503148809511,-1.2989733366724243
-0.7148596692486547,-1.2879007594914322
-0.6783431983245021,-1.2517303407001918
-0.6444986642972387,-1.2266324990899435
-0.5892786350948614,-1.2273706709020096
-0.44855662519202927,-1.1912002521107694
-0.24192683849926305,-1.1092631809714288
-0.11634580434546979,-1.0280642816441548
-0.18047228987081104,-0.9896793474167159
-0.36839851828535275,-0.9306256024514256
-0.5082298825558885,-0.8191616588294399
-0.5349492515247807,-0.6929342789661318
-0.5572153923321909,-0.6132117232629898
-0.684577717750577,-0.5327509957477816
-0.8333155383440768,-0.4087381313206718
-0.8368781208732624,-0.25741290984711523
-0.6997186934996158,-0.14373445078893124
-0.6204512322252357,-0.04924845884446665
-0.7166409605132475,0.0688590310861141
-0.8600349073129689,0.22166059618380296
-0.8725039461651186,0.3560078659798386
-0.7665171159218462,0.4652572941656258
-0.684577717750577,0.5686013478548839
-0.684577717750577,0.6977814149664566
-0.7246567712039153,0.8232706230176987
-0.7816580916708852,0.9258765048948907
-0.84489393156393,1.0041227169739004
-0.8555816791514869,1.0949178498580343
-0.7585013052311786,1.194571044486962
-0.5928412176240471,1.2831516619348975
-0.4512285620889185,1.337038204215725
-0.3746330377114276,1.3857575438120895
-0.3327726929934965,1.4425967733411815
-0.2748807268942301,1.5031268619306042
-0.15820614906340089,1.5326537344132494
0.00389135601454504,1.5466789988425058
0.13481626396211674,1.5636569505200268
0.16420756982789814,1.5976128538750687
0.1570824047695269,1.610899946492259
0.2630692350127992,1.6005655411233333
0.5053248469974218,1.581373074009614
0.6914697841473706,1.5880166203182091
0.6219994248282509,1.5917074793785397
0.3610402545654039,1.558489747835564
0.2007240407520508,1.474338161260025
0.3245237836412513,1.3975682928051476
0.5676700412581701,1.3392527196519233
0.6095303859761012,1.280198974686633
0.37439993904985003,1.1938328726748957
0.10364366683174253,1.1281355814010103
0.021704268660473165,1.092703334421836
0.06890848717218269,1.0587474310667941
0.05733009395232941,0.9827157344239826
-0.045984799394053706,0.910374896841502
-0.13415871699139792,0.8668227599296003
-0.14128388204976916,0.8328668565745584
-0.08606385284739199,0.7597878471800115
0.010125875440619884,0.6852324941613324
0.11522206005159581,0.6342986391287695
0.1579730504018233,0.6010809075857936
0.09562785614107487,0.5368599599360403
0.004782001646841446,0.466733637789758
-0.01481220226367949,0.41284709550893056
0.04575170073247613,0.3796293639659547
0.10542495809633534,0.32795733712132563
0.1268004532714491,0.27333262302843203
0.1570824047695269,0.2283041424923981
0.2425843854699819,0.2009917854459513
0.3441179875517722,0.16260685121851257
0.39844737112185297,0.11905471430661092
0.4296199682522272,0.07550257739470927
0.5347161528632031,0.04745204853619634
0.7190797987485592,0.014972488805286635
0.8473327697992417,-0.018983414549755332
0.8117069445073855,-0.055892005153061815
0.6683129977076641,-0.08025167495124409
0.5605448761997989,-0.10387317293736024
0.5489664829799457,-0.12823284273554253
0.5890455364332838,-0.16071240246645224
0.6184368422990653,-0.18285755682843613
0.5890455364332838,-0.20278819575422163
0.459901919750305,-0.2264096937403378
0.23545922041161063,-0.26479462796777653
0.012797812337509101,-0.29358332863835557
-0.09229837227346682,-0.31499031118827336
-0.06646964893687105,-0.33787363736232334
-0.043312862497164484,-0.37773491521389435
-0.1288148431976195,-0.409476303132738
-0.28645912011408337,-0.43014511387058957
-0.351476251271721,-0.4500757527963751
-0.26686491620356245,-0.4899370306479461
-0.1466277558435476,-0.5246311058150542
-0.1288148431976195,-0.5460380883649719
-0.19650391125214633,-0.5637542118545591
-0.24281748413155946,-0.6021391460819978
-0.22678586275022417,-0.6390477366853042
-0.18581616366458947,-0.6626692346714205
-0.15553421216651167,-0.6774326709127431
-0.1492996927404368,-0.7099122306436527
-0.1501903383727332,-0.7431299621866285
-0.06468835767227823,-0.7667514601727448
0.2408030942053891,-0.7778240373537366
0.8001285512875321,-0.7984928480915883
1.5340205522997707,-0.8191616588294399
2.3934935874658025,-0.8324487514466302
3.3669692635657746,-0.8354014386948948
4.255833604597588,-0.8457358440638206
4.625451542000596,-0.8545939058086142
4.163206458838761,-0.8612374521172094
3.0249613407639546,-0.8597611084930771
1.7228374263466089,-0.8634519675534077
0.687907201618185,-0.8641901393654738
0.04307976383558691,-0.86492831117754
-0.31050655218608636,-0.8619756239292755
-0.4975421349683316,-0.8656664829896061
-0.6008570283147148,-0.8693573420499368
-0.6640928682077596,-0.8745245447343997
-0.7059532129256907,-0.8752627165464658
-0.7184222517778404,-0.8819062628550609
-0.6899215915443554,-0.8892879809757223
-0.6302483341804962,-0.8996223863446481
-0.5848254069333795,-0.9040514172170449
-0.599075737050122,-0.9121713071497722
-0.6819057808536877,-0.9225057125186981
-0.7967990674199241,-0.938745492384153
-0.892988795707936,-0.9505562413772111
-0.9312865578966815,-0.9601524749340707
-0.8938794413402323,-0.9638433339944014
-0.816393271330445,-0.9741777393633272
-0.7487042032759181,-0.9815594574839884
-0.7371258100560649,-0.9867266601684513
-0.759391950863475,-0.973439567551261
-0.783439382935478,-0.9608906467461369
-0.8003616499491097,-0.955723444061674
-0.8155026256981486,-0.9549852722496078
-0.835987475240966,-0.9202911970824997
-0.853800387886894,-0.8715718574861352
-0.8627068442098581,-0.8376159541310931
-0.8395500577701516,-0.8221143460777045
-0.7611732421280678,-0.763060601112414
-0.6257951060190141,-0.671527296416214
-0.493979552439146,-0.6073063487664607
-0.44677533392743646,-0.5836848507803446
-0.5340586058924843,-0.4906752024600122
-0.7202035430424332,-0.2891542977659588
-0.9179268734122353,-0.06179737964959085
-1.0390546794045465,0.09395687269636252
-1.0568675920504746,0.23051865792859652
-1.0132259560679509,0.3936546283952112
-0.9811627133052802,0.5449798498687678
-0.9989756259512083,0.6151061720150501
-1.0426172619337322,0.6704690579200098
-1.0461798444629178,0.7760276270454664
-0.978490776408391,0.9059458659691052
-0.8733945917974151,0.9805012189877843
-0.8110493975366666,1.0284823867720827
-0.835987475240966,1.1015613961666295
-0.9134736452507533,1.1967855599231603
-0.9526620530717952,1.25214844582812
-0.892988795707936,1.2838898337469635
-0.7611732421280678,1.3267037988467991
-0.632029625445089,1.3916629183086184
-0.5411837709508556,1.433738711596388
-0.45657243588269697,1.456622037770438
-0.34078850368416413,1.474338161260025
-0.2027384306782212,1.5046032055547365
-0.06468835767227823,1.5245338444805219
0.060892676481515036,1.5341300780373817
0.14995723971115565,1.5304392189770508
0.1597543416664161,1.5348682498494477
0.11611270568389222,1.5356064216615137
0.11076883189011377,1.5356064216615137
0.198942749487458,1.5215811572322573
0.3289770118027333,1.5060795491788685
0.44030771583978406,1.4861489102530832
0.516903240217275,1.474338161260025
0.5267003421725355,1.450716663273909
0.3850876866374069,1.4204516189791976
0.08137752602433238,1.3820666847517589
-0.23925490160237384,1.3584451867656426
-0.3977898241511341,1.3303946579071297
-0.37196110081453837,1.2890570364314264
-0.2757713725265265,1.2270506042178717
-0.20630101320740682,1.1842366391180361
-0.16711260538636494,1.1488043921388618
-0.1323774257268051,1.0963941934821666
-0.11634580434546979,1.0100280914704294
-0.1492996927404368,0.9435926283844778
-0.22589521711792776,0.89930231966051
-0.2935842851724546,0.8424630901314181
-0.30160009586312225,0.7391190364421599
-0.24370812976385586,0.6505384189942243
-0.16711260538636494,0.5966518767133968
-0.11100193055169136,0.5412889908084371
-0.06468835767227823,0.4364685934950467
0.00032877348535941556,0.33829174249025146
0.08137752602433238,0.2799761693370272
0.13837884649130236,0.23347134517686102
0.1561917591372305,0.14267621229272706
0.1900362931644939,0.05261925122065925
0.3067108709953231,-0.0012672910601682187
0.49374645377756843,-0.035223194415210185
0.6424842743710683,-0.10682586018562477
0.6469375025325503,-0.18359572864050225
0.5293722790694246,-0.23305324004893294
0.4180415750323739,-0.25888925347124747
0.40913511870940983,-0.3090849366917443
0.45901127411800857,-0.36444782259670405
0.43941707020748766,-0.4035709286362089
0.284444730187913,-0.42128705212579604
0.06623655027529347,-0.4530284400446396
-0.09497030917035604,-0.48698434339968155
-0.16533131412177213,-0.51208218500993
-0.19739455688444274,-0.5202020749426574
-0.2481613579253379,-0.5379181984322445
-0.2935842851724546,-0.5563724937338977
-0.3078346152891971,-0.5718741017872865
-0.2935842851724546,-0.5777794762838155
-0.30160009586312225,-0.5895902252768735
-0.34167914931646054,-0.6036154897061301
-0.3781956202406132,-0.6198552695715849
-0.3808675571375024,-0.6279751595043124
-0.3621639988592779,-0.6390477366853042
-0.3532575425363138,-0.6456912829938994
-0.351476251271721,-0.6538111729266269
-0.34524173184564616,-0.6552875165507591
-0.3603827075946851,-0.6597165474231559
-0.4164933824293587,-0.6648837501076188
-0.4209466105908407,-0.6759563272886108
-0.204519721942814,-0.682599873597206
0.29067924961398783,-0.6892434199058011
0.9453037893518463,-0.6936724507781978
1.631100926220079,-0.7025305125229915
2.3756806748198747,-0.705483199771256
3.2422788750442777,-0.7076977152074544
4.075032541241417,-0.7121267460798512
4.477604367039393,-0.7246756668849753
4.099079973313421,-0.7305810413815044
2.955490981444835,-0.7357482440659673
1.4583156735545764,-0.7438681339986947
0.15173853097574846,-0.762322429300348
-0.621341877857532,-0.7719186628572077
-0.8627068442098581,-0.7770858655416706
-0.816393271330445,-0.7940638172191915
-0.7469229120113253,-0.8413068131914239
-0.7825487373031816,-0.8974078709084496
-0.8903168588110467,-0.9431745232565497
-0.9722562569823161,-0.973439567551261
-0.9838346502021694,-1.0096099863425014
-0.95889657249787,-1.0479949205699401
-0.9321772035289778,-1.0782599648646514
-0.8983326695017144,-1.0856416829853128
-0.8457845771962265,-1.0959760883542387
-0.8092681062720738,-1.120335758152421
-0.8333155383440768,-1.149862630635066
-0.9027858976631964,-1.1483862870109338
-0.9660217375562412,-1.1284556480851482
-0.9713656113500198,-1.115168555467958
-0.9170362277799389,-1.1218121017765532
-0.8306436014471875,-1.098928775602503
-0.7896739023615529,-1.0435658896975433
-0.8386594121378552,-0.9867266601684513
-0.925942684102903,-0.9608906467461369
-0.9366304316904599,-0.9188148534583674
-0.8217371451242235,-0.836139610506961
-0.6899215915443554,-0.734271900441835
-0.6792338439567985,-0.6634074064834866
-0.816393271330445,-0.5932810843372043
-1.0061007910095796,-0.4928897178962106
-1.15216667470619,-0.3607569635363734
-1.2216370340253098,-0.2492930199143878
-1.228762199083681,-0.15406885615785706
-1.1851205631011572,-0.04998663065653278
-1.1138689125174448,0.08878967001189961
-1.053305009521289,0.2253514552441336
-1.0524143638889927,0.3390299143023176
-1.1138689125174448,0.4342540780588483
-1.191355082527232,0.5567905988618258
-1.2207463883930134,0.6911378686578614
-1.182448626204268,0.80776901496431
-1.1129782668851482,0.8867533988553858
-1.0693366309026244,0.9768103599274537
-1.068445985270328,1.0882743035494393
-1.0862588979162562,1.1938328726748957
-1.083586961019367,1.2536247894522523
-1.0470704900952141,1.3082495035451458
-0.9882878783636514,1.3805903411276266
-0.930395912264385,1.4595747250187026
-0.8814104024880827,1.4979596592461413
-0.8297529558148912,1.5230575008563896
-0.7451416207467325,1.5607042632717623
-0.612435421534568,1.6145908055525897
-0.4387595232367688,1.639688647162838
-0.26597427057126605,1.6455940216593672
-0.14039323641747276,1.6500230525317638
-0.07181352273064949,1.67364455051788
-0.01214026536679027,1.6825026122626736
0.07514300659825754,1.6751208941420124
0.15173853097574846,1.6551902552162268
0.13481626396211674,1.6551902552162268
0.030610724983437226,1.6537139115920947
-0.05578190134931417,1.638950475350772
-0.045984799394053706,1.599089197499201
0.006563292911434259,1.5739913558889527
0.010125875440619884,1.558489747835564
-0.0450941537617573,1.537082765285646
-0.09586095480265244,1.4846725666289509
-0.1172364499777662,1.4403822579049832
-0.13326807135910151,1.411593557234404
-0.1599874403279937,1.3842812001879572
-0.17245647918014337,1.3230129397864685
-0.16711260538636494,1.2624828511970458
-0.1893787461937751,1.2159780270368796
-0.2766620181588229,1.1805457800577055
-0.37107045518224197,1.1163248324079522
-0.3728517464468348,1.0491511975099344
-0.2748807268942301,0.9930501397929085
-0.19472261998755352,0.9531888619413375
-0.2223326345887421,0.8919206015398488
-0.2953655764370474,0.8225324512056326
-0.2926936395401582,0.7553588163076147
-0.18670680929688588,0.7081158203353825
-0.051328673187832144,0.6512765908062904
0.03862653567410488,0.5870556431565371
0.058220739584625814,0.5176674928223209
0.0270481424542516,0.46820998141389025
0.0012194191176558217,0.42096698544165795
0.03862653567410488,0.370033130409095
0.1268004532714491,0.30581218275934174
0.19448952132597597,0.25856918678710944
0.23278728351472142,0.2201842525596707
0.31739861858288,0.18106114652016583
0.4652457935440834,0.1234837451790077
0.5614355218320953,0.07919343645503991
0.5097780751589037,0.0489283921603286
0.3735092934175536,0.021616035113881802
0.29335118651087705,-0.02710330448248276
0.29691376904006267,-0.06475006689785537
0.2862260214525058,-0.08763339307190539
0.17845789994464065,-0.10904037562182316
0.007453938543730665,-0.15333068434579095
-0.1314867800945087,-0.18654841588876678
-0.18492551803229307,-0.20278819575422163
-0.1590967946956973,-0.2271478655524039
-0.10565805675791291,-0.29358332863835557
-0.06290706640768542,-0.36666233803290244
-0.08339191595050276,-0.41907253668959765
-0.17958164423851464,-0.455242955480838
-0.3309914017289037,-0.5076531541375332
-0.4521192077212149,-0.5526816346735671
-0.4619163096764754,-0.5755649608476171
-0.3630546444915743,-0.5873757098406752
-0.25973975114519116,-0.6198552695715849
-0.24638006666074508,-0.6552875165507591
-0.29981880459852944,-0.6774326709127431
-0.3381165667872749,-0.688505248093735
-0.355929479433203,-0.7158176051401818
-0.40580563484180177,-0.745344477622827
-0.4200559649585443,-0.7660132883606786
-0.19294132872296071,-0.7756095219175383
0.39755672548955656,-0.7955401608433238
1.2418887849065496,-0.813994456144977
2.168160242494812,-0.8265433769501013
3.1122446127290027,-0.8317105796345642
4.02248444893593,-0.8464740158758868
4.635248643955857,-0.8582847648689448
4.563996993372145,-0.8656664829896061
3.65553844842981,-0.8678809984258045
2.2224896260648928,-0.8811680910429949
0.8357543765793884,-0.8981460427205158
-0.09586095480265244,-0.9143858225859707
-0.5402931253185591,-0.9254583997669626
-0.6819057808536877,-0.9439126950686159
-0.6988280478673194,-0.967534193054732
-0.6881403002797626,-0.9941083782891127
-0.7210941886747295,-1.014039017214898
-0.811940043168963,-1.036184171576882
-0.9027858976631964,-1.064234700435395
-0.930395912264385,-1.0996669474145693
-0.9188175190445318,-1.1269793044610161
-0.9152549365153461,-1.1513389742591984
-0.9108017083538641,-1.1742223004332484
-0.8627068442098581,-1.2103927192244888
-0.7843300285677745,-1.2450867943915969
-0.7495948489082146,-1.2716609796259775
-0.7878926110969601,-1.279780869558705
-0.8582536160483761,-1.2923297903638291
-0.8912075044433432,-1.3122604292896145
-0.8956607326048251,-1.3299765527792018
-0.906348480192382,-1.3122604292896145
-0.9330678491612743,-1.2819953849949033
-0.9339584947935706,-1.2679701205656468
-0.8983326695017144,-1.2701846360018452
-0.8849729850172683,-1.2258943272778775
-0.9312865578966815,-1.1417427407023386
-0.9945223977897263,-1.0730927621801885
-0.9954130434220226,-1.0443040615096095
-0.9428649511165347,-0.9741777393633272
-0.9143642908830497,-0.8464740158758868
-0.9490994705426096,-0.7276283541332399
-0.9856159414667622,-0.6707891246041479
-0.954443344336388,-0.5881138816527414
-0.8787384655911935,-0.43383597293092024
-0.853800387886894,-0.26996183065223944
-0.9161455821476425,-0.17621401051984095
-0.9865065870990586,-0.08394253401157474
-0.9660217375562412,0.07181171833437862
-0.8760665286943042,0.2474966096061175
-0.8466752228285228,0.3574842096039708
-0.95889657249787,0.44606482705190637
-1.1281192426341873,0.5774594095996775
-1.1931363737918248,0.7376426928180276
-1.0960559998715165,0.8483684646279471
-0.9490994705426096,0.9288291921431552
-0.9090204170892713,1.0262678713358844
-1.0061007910095796,1.1510189075750603
-1.1120876212528519,1.2455048995195248
-1.0907121260777382,1.3119403626054766
-0.9419743054842383,1.372470451194899
-0.7825487373031816,1.451454835085975
-0.6810151352213913,1.5178902981719267
-0.5999663826824183,1.5673478095803575
-0.4806198679546999,1.5976128538750687
-0.33989785805186773,1.633783272666309
-0.2187700520595565,1.6647864887730865
-0.12614290630073025,1.6913606740074671
-0.053109964452424954,1.6987423921281286
-0.017484139160568707,1.6994805639401946
-0.01926543042516152,1.6943133612557317
-0.018374784792865115,1.6972660485039963
0.02526685118965879,1.6869316431350705
0.09028398234729644,1.6640483169610205
0.13125368143293112,1.6286160699818462
0.14105078338819158,1.6094236028681268
0.1561917591372305,1.5887547921302752
