ECG,PPG
-0.6963479220770957,-0.5264588596812194
-0.8558419992720295,0.0526623840335283
-0.8563736461960126,0.06841104579091328
-0.8037406007216844,-0.17426151492515532
-0.7569556714111706,-0.31170438117142424
-0.7293100313640487,-0.2973874159374379
-0.759082259107103,-0.2966715676757386
-0.8558419992720295,-0.39474277952854503
-0.9212345709219523,-0.5099943496621352
-0.8292596530728739,-0.5593878797193881
-0.6107527673158146,-0.5729889966916751
-0.4539169247407964,-0.6281093128425225
-0.4921955032675805,-0.7175903455549372
-0.6357401727430209,-0.7791532960610785
-0.6798668674336192,-0.8020604404354567
-0.5586513687654696,-0.8392845500438212
-0.4023471731144345,-0.9087218314286549
-0.34333436455230903,-0.9717164784581949
-0.35237236226002194,-1.0017821054495661
-0.33323307299662985,-1.0325635807026368
-0.2800683805983186,-1.1041484068725687
-0.2518910936272137,-1.2079464048189696
-0.23859992052763584,-1.296711589269685
-0.17001746733381434,-1.359706236299225
-0.05305514405752958,-1.4169740972351703
0.0011728421887479015,-1.4856955303583048
-0.08282737180058387,-1.5400999982474528
-0.22637204127602426,-1.569449776977125
-0.27634685213043686,-1.5959361626599995
-0.1726757019537299,-1.6496247822874484
-0.009991743214897462,-1.7090401880084918
0.08942623156994457,-1.7462642976168563
0.10590728621342106,-1.7655922006827378
0.11441363699715086,-1.8013846137677036
0.15216056859995186,-1.8507781438249566
0.1627935070796141,-1.8872864051716218
0.08091988078621477,-1.892297343003517
-0.07166278639693852,-1.8958765843120136
-0.20989098663254777,-1.9166361839012938
-0.2784734398263693,-1.9409750247990705
-0.286448143686116,-1.9280897560884829
-0.2524227405511968,-1.892297343003517
-0.1769288773455948,-1.8693901986291388
-0.08601725334448256,-1.8693901986291388
-0.06634631715710738,-1.8371770268526695
-0.1811820527374597,-1.7620129593742413
-0.36725847613154905,-1.6882805884192116
-0.45551186551274575,-1.651056478810847
-0.34173942378035965,-1.5966520109216988
-0.1088780710757564,-1.4935698612369972
0.038919773791548894,-1.3776024428417077
-0.02487785708642461,-1.3024383753632796
-0.22477710050407493,-1.2287060044082498
-0.36672682920756594,-1.1148861307980584
-0.33376471992061296,-0.978874961075188
-0.1944732258370375,-0.8765086596521856
-0.10249830798795904,-0.7906068682482675
-0.1264224195671991,-0.6839454772550693
-0.1944732258370375,-0.547934307532199
-0.20457451739271665,-0.43125104087521027
-0.15087817807042228,-0.33747491859259965
-0.11844771570745241,-0.24584634109508705
-0.168422526561865,-0.13131061922319626
-0.2603974444109435,-0.021785835183200708
-0.3135621368092547,0.06841104579091328
-0.30718237372145735,0.13856417543744637
-0.28910637830603153,0.2223184220562665
-0.28538484983814977,0.3125153030303805
-0.25508097517111233,0.3919744600790047
-0.16682758578991566,0.44279968665965624
-0.07113113947295541,0.49863585107220304
-0.04827032174168156,0.5666414359336381
-0.10568818953185771,0.631783627748276
-0.1726757019537299,0.6661443443098433
-0.19606816660898685,0.6990733643480119
-0.1944732258370375,0.7441718048350688
-0.22903027589593983,0.7935653348923217
-0.3284482506807819,0.8164724792667
-0.43743587009731993,0.8372320788559802
-0.43105610700952257,0.8694452506324494
-0.24551133053941632,0.9109644498110098
0.009679192972477702,0.929576504615192
0.14418586474020517,0.9417459250640805
0.11973010623698199,0.9574945868214655
0.09102117234189391,0.9846968207660395
0.18565432481088795,0.9947186964298299
0.33451546352615946,0.9997296342617251
0.3956548597842174,1.004024723831921
0.34036357968997366,1.0233526268978026
0.23243925412140184,1.0340903508232924
0.09261611311384325,1.0376695921317889
-0.0966501918241448,1.0297952612530965
-0.27634685213043686,1.033374502561593
-0.3114355491133223,1.035522047346691
-0.17001746733381434,1.0312269577764952
-0.020093034770576598,1.0090356616638163
-0.06794125792905673,0.9954345446915293
-0.2970810821657782,0.9854126690277388
-0.4794359770919858,0.9746749451022491
-0.45604351243672886,0.9410300768023812
-0.3135621368092547,0.9102486015493105
-0.22637204127602426,0.8851939123898344
-0.22690368820000736,0.8658660093239529
-0.22690368820000736,0.825778506668791
-0.20032134200085175,0.7842593074902307
-0.21520745587237888,0.7463193496201668
-0.3002709637096769,0.7198329639372921
-0.38692941231892425,0.6775979164970324
-0.3986256446465527,0.6303519312248774
-0.34492930532425836,0.5809584011676245
-0.30611907987349113,0.5480293811294559
-0.34173942378035965,0.5100894232593921
-0.4369042231733368,0.4700019206042303
-0.532600669490297,0.4206083905469774
-0.5629045441573345,0.38553182572371086
-0.5262209064024997,0.35475035047064024
-0.4326510477814719,0.3289798130494648
-0.35237236226002194,0.29103985517940095
-0.3263216629848494,0.26169007644972897
-0.3598154191957855,0.24093047686044877
-0.4076636423542656,0.24093047686044877
-0.4411573985652017,0.23591953902855353
-0.4656131570684249,0.2337719942434556
-0.4783726832440196,0.23305614598175628
-0.4576384532086782,0.2581108351412324
-0.42148646237782655,0.2874606138709044
-0.45604351243672886,0.3153786960771778
-0.6272338219592911,0.3304115095728634
-0.8595635277399113,0.3690673157046266
-0.9191079832260198,0.4184608457618795
-0.5554614872215708,0.46713852755743307
0.35631298740946704,0.49219321671690913
1.7986710921756512,0.5308490228486723
3.6376378022332374,0.5838217942144218
5.505845093109895,0.6396579586269685
6.72969631211902,0.6661443443098433
6.654734095837401,0.6990733643480119
5.256502685761816,0.749182742666964
3.2755862470007377,0.8093139966497067
1.6168478441734269,0.841527168426176
0.6636049094717061,0.8701610988941487
0.2526418372327601,0.9066693602408139
0.10005917004960684,0.9553470420363674
0.05167929996714359,0.9818334277192422
0.010742486820443927,1.0004454825234246
-0.10994136492372261,1.019773385589306
-0.3305748383767143,1.0519865573657754
-0.5751324234089461,1.0698827639082582
-0.754829083715238,1.080620487833748
-0.8196900084411778,1.0856314256656432
-0.7766266075985457,1.1006642391613288
-0.6899681589892984,1.1071068735166227
-0.6665756943340414,1.1114019630868186
-0.7734367260546471,1.104959328731525
-0.9669562063845,1.1063910252549234
-1.1152856981757884,1.1042434804698256
-1.0913615865965482,1.1035276322081262
-0.920171277073986,1.08921066697414
-0.7420695575396434,1.0770412465252515
-0.72612014982015,1.0598608882444678
-0.8696648192955904,1.0484073160572787
-1.019057604934845,1.0276477164679985
-1.0222474864787436,1.0076039651404176
-0.88667752086305,0.9825492759809415
-0.7691835506627821,0.9682323107469553
-0.796829190709904,0.9460410146342764
-0.9323991563255977,0.9224180219981989
-1.0153360764669632,0.8909206984834289
-0.9414371540333106,0.8715927954175473
-0.7760949606745626,0.8494014993048685
-0.678803573585653,0.8186200240517979
-0.7266517967441332,0.769226493994545
-0.8547787054240632,0.7355816256946771
-0.9472852701971248,0.7069476952267044
-0.9515384455889897,0.6682918890949412
-0.8739179946874553,0.604581393803702
-0.7511075552473563,0.5573354085315471
-0.6458414642987,0.5272697815401757
-0.6399933481348858,0.4864664306233146
-0.7484493206274407,0.40987066662148763
-0.8898674024069487,0.3483077161153464
-0.9611080902206858,0.3125153030303805
-0.9499435048170404,0.27028025559012075
-0.9159181016821212,0.185094312447902
-0.9047535162784758,0.10849854844607505
-0.8872091677870331,0.0648318044824167
-0.8175634207452454,0.02188090878045765
-0.6963479220770957,-0.06545257914685906
-0.570347601093098,-0.14705928098058124
-0.4773093893960534,-0.19358941799103688
-0.4342459885534212,-0.23224522412280002
-0.45444857166477953,-0.3152836224799208
-0.5458918425898749,-0.3997537173604403
-0.6649807535620921,-0.45201064046449047
-0.7239935621242176,-0.4899505983345543
-0.6766769858897206,-0.5601037279810873
-0.5671577195491994,-0.6324044024127184
-0.46348656937249244,-0.6760711463763768
-0.39490411617867094,-0.7054209251060488
-0.3725749453713802,-0.7641204825653928
-0.42254975622579277,-0.8285468261183314
-0.5288791410224153,-0.8707818735585912
-0.588955243432507,-0.8994158040265638
-0.48156256478791826,-0.9509568788689147
-0.21680239664432824,-1.0110881328516572
0.05061600611917737,-1.0583341181238122
0.162261860155631,-1.0905472899002815
0.11547693084511709,-1.1356457303873386
0.03785647994358266,-1.1893343500147873
0.04636283072731247,-1.2372961835486416
0.1335529262605429,-1.2687935070634115
0.21383161178199292,-1.3081651614568741
0.23350254796936806,-1.3582745397758262
0.21702149332589157,-1.414110704188373
0.20798349561817867,-1.454914055105234
0.21542655255394225,-1.4928540129752979
0.22818607872953695,-1.5365207569389563
0.24998360261284455,-1.5916410730898036
0.26593301033233796,-1.6367395135768608
0.22021137486979026,-1.6703843818767286
0.07666670539434987,-1.6975866158213027
-0.09505525105219546,-1.7419692080466604
-0.16204276347406765,-1.7920785863656126
-0.08654890026846566,-1.8242917581420819
0.00010954834078167651,-1.8121223376931934
-0.04880196866566468,-1.7834884072252208
-0.19659981353296996,-1.7641605041593391
-0.24232144899551764,-1.7498435389253528
-0.08282737180058387,-1.6932915262511068
0.1202617531609651,-1.6088214313705873
0.1287681039446949,-1.5436792395559493
-0.05252349713354646,-1.5100343712560815
-0.1737389958016961,-1.4370178485627512
-0.08920713488838122,-1.3138919475504685
0.04264130225943068,-1.2036513152487738
-0.005206920899049449,-1.1463834543128284
-0.2029795766207673,-1.0654926007408054
-0.31622037142917025,-0.9208912518775433
-0.21627074972034513,-0.7755740547525819
-0.00946009629091435,-0.6953990494422584
0.12983139779266112,-0.6159398923936341
0.1330212793365598,-0.48064457093246316
0.053274240739092926,-0.3338956772841031
-0.023814563238458385,-0.25014143066528294
-0.051460203285580236,-0.1814199975421485
-0.04667538096973223,-0.07117936524045361
-0.05199185020956335,0.05982086665052147
-0.07059949254897228,0.1392800236991457
-0.07378937409287097,0.19583203637339178
-0.06687796408109051,0.2767228899454146
-0.0838906656485501,0.379089191368417
-0.11685277493550307,0.44709477622985216
-0.11259959954363817,0.49362491324030777
-0.08016913718066832,0.5473135328677566
-0.0966501918241448,0.6153191177291918
-0.1902200504451726,0.6618492547396474
-0.2673088544227239,0.6933465782544174
-0.22690368820000736,0.724128053507488
-0.09452360412821235,0.7685106457328457
0.017122249908241276,0.8021555140327136
0.04583118380332935,0.8293577479772877
0.023502012996038626,0.8494014993048685
-0.007333508594981899,0.8787512780345406
-0.05092855636159713,0.9030901189323173
-0.11100465877168884,0.9267131115683948
-0.1343971234269458,0.9388825320172832
-0.06102984791727626,0.9546311937746682
0.07932494001426545,0.9646530694384586
0.19043914712673596,0.9782541864107457
0.24892030876487833,0.9818334277192422
0.3366420512220919,0.9882760620745361
0.4918829530251608,0.990423606859634
0.6056553947575468,1.001877179046823
0.5413261169555902,1.0047405720936204
0.3026166480871727,1.004024723831921
0.012337427592393264,0.9947186964298299
-0.19394157891305439,0.9975820894766272
-0.21946063126424378,0.9961503929532286
-0.04667538096973223,0.9875602138128368
0.18724926558283728,0.9625055246533607
0.24785701491691212,0.9510519524661716
0.05380588766307604,0.9417459250640805
-0.20882769278458155,0.9238497185215975
-0.2917646129259471,0.8794671262962398
-0.16576429194194942,0.8458222579963719
-0.012118330910829912,0.8221992653602944
0.010742486820443927,0.7971445762008184
-0.09133372258431367,0.7448876530967682
-0.20457451739271665,0.7005050608714105
-0.24019486129958517,0.6718711304034378
-0.18703016890127394,0.6482481377673603
-0.08708054719244877,0.5938436698782122
-0.003611980127100111,0.5401550502507634
-0.0009537455071845486,0.5022150923806996
-0.09558689797617857,0.4778762514829228
-0.21361251510042956,0.4313461144724672
-0.25720756286704477,0.38052088789181565
-0.23859992052763584,0.33971753697495455
-0.2577392097910279,0.31895793738567435
-0.35237236226002194,0.28531306908580645
-0.40128387926646825,0.24880480773914126
-0.34067612993239343,0.21444409117757401
-0.23594168590772027,0.200842974205287
-0.21733404356831135,0.185094312447902
-0.2588025036389941,0.16934565069051702
-0.26465061980280835,0.1478702028395375
-0.22318215973212557,0.14500680979274025
-0.22584039435204115,0.14715435457783818
-0.31037225526535606,0.15789207850332795
-0.4018155261904514,0.16003962328842591
-0.4156383462140123,0.17149319547561498
-0.37842306153519445,0.18795770549469928
-0.39596741002663716,0.22017087727116855
-0.5187778494667361,0.24450971816894534
-0.6463731112226831,0.2709961038518201
-0.5432336079699593,0.2967666412729955
0.04264130225943068,0.3411492334983532
1.2516064073970286,0.38052088789181565
3.000724787301469,0.41416575619168355
4.916248654412623,0.44279968665965624
6.372429579202368,0.5072260302125948
6.746177366762496,0.5988546077101075
5.824833247499763,0.694778274777816
4.0448793460043015,0.7584887700690552
2.230368394449939,0.8128932379582033
1.0107703508326786,0.8630026162771556
0.45732590296625847,0.9088169050259118
0.2685912449522535,0.9267131115683948
0.16066691938368166,0.9438934698491784
0.03732483301959955,0.9689481590086545
-0.10409324875990837,1.006172268617019
-0.24870121208331497,1.021920930374404
-0.3731065922953633,1.0312269577764952
-0.4597650409046107,1.0405329851785863
-0.5235626717825842,1.0620084330295658
-0.5714108949410642,1.071314460431657
-0.5857653618886083,1.0720303086933562
-0.5660944257012331,1.0641559778146636
-0.5629045441573345,1.0698827639082582
-0.6022464165320848,1.0698827639082582
-0.6399933481348858,1.0634401295529645
-0.6469047581466663,1.0441122264870828
-0.6415882889068352,1.0369537438700898
-0.6846516897494672,1.0319428060381945
-0.7431328513876096,1.0212050821127048
-0.7612088468030355,0.9911394551213334
-0.7144239174925215,0.9703798555320532
-0.6548794620064129,0.9574945868214655
-0.6442465235267507,0.9438934698491784
-0.6936896874571802,0.9059535119791146
-0.763867081422951,0.8737403402026453
-0.796829190709904,0.8515490440899665
-0.7670569629668497,0.8329369892857842
-0.7032593320888761,0.7885543970604265
-0.6586009904742948,0.7420242600499709
-0.6453098173747169,0.7033684539182078
-0.6383984073629364,0.6733028269268364
-0.6293604096552236,0.6231934486078843
-0.6500946396905649,0.5673572841953375
-0.706980860556758,0.5151003610912873
-0.7542974367912549,0.4771604032212235
-0.7410062636916772,0.4256193283788726
-0.6809301612815855,0.36477222613443067
-0.6282971158072573,0.30106173084319143
-0.617664177327595,0.25667913861783376
-0.6352085258190378,0.20728560856058084
-0.655411108930396,0.14214341674594297
-0.6633858127901427,0.05982086665052147
-0.6543478150824298,-0.004605476902417092
-0.6229806465674262,-0.05757824826816658
-0.5751324234089461,-0.11842535051260855
-0.5320690225663139,-0.2021795971314287
-0.5076132640630908,-0.2694693337311645
-0.4842207994078338,-0.31599947074162016
-0.442752339337151,-0.3682563938456703
-0.39543576310265405,-0.4498630956793925
-0.3848028246229918,-0.5193003770642263
-0.4172332869859616,-0.5608195762427867
-0.4416890454891848,-0.6016229271596478
-0.4081952892782487,-0.6746394498529782
-0.33535966069256234,-0.7390657934059167
-0.28166332137026795,-0.7741423582291833
-0.2667772074987408,-0.8063555300056525
-0.24976450593128122,-0.8729294183436891
-0.18703016890127394,-0.9352082171115297
-0.0918653695082968,-0.967421388887999
-0.016903153226677924,-0.9939077745708736
0.0075526052765452515,-1.0540390285536163
0.01127413374442704,-1.1134544342746597
0.04742612457527869,-1.1442359095277304
0.1324896324125767,-1.1671430539021086
0.23137596027343563,-1.222263370052956
0.2930470034554767,-1.2809629275123
0.3015533542392065,-1.3153236440738671
0.28773053421564554,-1.3389466367099447
0.3020850011631896,-1.391203559813995
0.36907251358506177,-1.4541982068435348
0.4594524906621909,-1.4992966473305918
0.5184652992243164,-1.5264988812751659
0.5200602399962657,-1.569449776977125
0.48816142455727896,-1.6245700931279723
0.46157907835812334,-1.6689526853533299
0.45413602142235976,-1.691859829727708
0.4567942560422753,-1.7197779119339816
0.4583891968142247,-1.761297111112542
0.4514777868024442,-1.8071113998612982
0.4243637936793055,-1.8300185442356764
0.3610978097253151,-1.8378928751143688
0.27018618572420283,-1.842903812946264
0.18990750020275285,-1.8565049299185512
0.16066691938368166,-1.8557890816568519
0.1750213863312257,-1.8350294820675717
0.19362902867063464,-1.8006687655060043
0.1925657348226684,-1.779909165916724
0.18459103096292173,-1.7598654145891433
0.17714797402715815,-1.7197779119339816
0.1548188032198674,-1.6446138444555531
0.11654022469308331,-1.5737448665473208
0.09580599465774194,-1.5257830330134665
0.10909716775731974,-1.4649359307690246
0.12610986932477936,-1.3117444027653706
0.1075022269853704,-1.0812412624981904
0.07613505847036676,-0.8564649083246048
0.08091988078621477,-0.694683201180559
0.12610986932477936,-0.5414916731769052
0.1500339809040194,-0.3718356351541669
0.1032490515935055,-0.23224522412280002
0.013932368364342602,-0.16066039795286827
-0.04189055865388421,-0.08621217873613927
-0.03072597325023885,0.03691372227614331
0.010742486820443927,0.16290301633522317
0.03254001070375154,0.2258976633647631
0.03626153917163333,0.275291193422016
0.04902106534722803,0.3640563778727314
0.077198352318333,0.4642751345106358
0.10005917004960684,0.5115211197827907
0.10537563928943795,0.5430184432975607
0.0862363500260459,0.6031496972803033
0.04848941842324492,0.6811771578055289
0.0224387191480724,0.7198329639372921
0.05274259381510982,0.7413084117882716
0.12557822240079622,0.7799642179200348
0.17395809248325947,0.8343686858091829
0.1548188032198674,0.8608550714920576
0.10112246389757305,0.8751720367260439
0.05912235690290717,0.8973633328387228
0.02775518838790353,0.9360191389704859
-0.009991743214897462,0.9574945868214655
-0.0285993855543064,0.9696640072703538
-0.000422098583201436,0.9796858829341443
0.04902106534722803,1.0011613307851237
0.06284388537078896,1.0111832064489144
0.04955271227121114,1.0161941442808096
0.09793258235367439,1.0161941442808096
0.2669963041803042,1.0276477164679985
0.4727436637617687,1.035522047346691
0.5641869346868641,1.0412488334402856
0.5078323607446541,1.0340903508232924
0.4381866137028664,1.0312269577764952
0.47965507377354916,1.0247843234212013
0.5907692808860197,1.0226367786361032
0.625326330944922,1.0054564203553198
0.5179336523003333,0.9875602138128368
0.34036357968997366,0.965368917700158
0.20957843639012802,0.9524836489895703
0.18671761865885417,0.9288606563534928
0.25317348415674323,0.8987950293621214
0.3291989942863283,0.8579916784452604
0.32494581889446345,0.8307894445006863
0.21861643409784093,0.8014396657710142
0.0857047031020628,0.764931404424349
0.0351982453236671,0.7098110882735016
0.1027174046695224,0.6690077373566405
0.21861643409784093,0.6353628690567726
0.27975583035589885,0.5988546077101075
0.23722407643724985,0.5380075054656654
0.1335529262605429,0.485034734099916
0.04210965533544757,0.44781062449155146
0.0011728421887479015,0.41917669402357877
-0.008396802442948124,0.3690673157046266
-0.016903153226677924,0.3246847234792689
-0.03338420787015441,0.2946190964878976
-0.05199185020956335,0.28030213125391124
-0.07751090256075276,0.2466572629540433
-0.1173844218594862,0.20871730508397948
-0.16629593886593255,0.17865167809260815
-0.1822453465854259,0.17364074026071294
-0.15885288193016897,0.1636188645969225
-0.11525783416355374,0.14858605110123682
-0.1312072418830471,0.13068984455875388
-0.21680239664432824,0.14142756848424365
-0.3114355491133223,0.1607554715501252
-0.3119671960373054,0.17865167809260815
-0.20776439893661533,0.18294676766280404
-0.09292866335626301,0.20800145682228016
-0.07113113947295541,0.24522556643064466
-0.14077688651474313,0.28602891734750574
-0.20882769278458155,0.30320927562828937
-0.21414416202441267,0.3325590543579614
-0.20670110508864908,0.379089191368417
-0.27315697058653815,0.43778874882776103
-0.37576482691527885,0.4735811619127269
-0.2970810821657782,0.5115211197827907
0.24094560490513164,0.559482953316645
1.3839864914688236,0.6210459038227862
3.020927370412827,0.6639967995247453
4.754096342597774,0.7026526056565084
6.002934967034105,0.7427401083116703
6.270885016721594,0.7992921209859163
5.462250045343279,0.843674713211274
3.9598158381670037,0.8823305193430371
2.351583893118088,0.913827842857807
1.0586185739911587,0.9582104350831647
0.20479361407427998,0.996866241214928
-0.2614607382589097,1.0326586542998937
-0.414043405442063,1.0548499504125726
-0.34173942378035965,1.0834838808805454
-0.18756181582525705,1.1092544183017208
-0.11259959954363817,1.137172500507994
-0.18809346274924016,1.1500577692185818
-0.35130906841205567,1.1629430379291694
-0.4863473871037663,1.17296491359296
-0.5357905510341957,1.1915769683971422
-0.5240943187065673,1.1965879062290374
-0.5007018540513103,1.193008664920541
-0.49698032558342853,1.1779758514248553
-0.5161196148468206,1.1743966101163585
-0.5453601956658918,1.1658064309759668
-0.5384487856541113,1.1486260726951831
-0.4863473871037663,1.1156970526570147
-0.4081952892782487,1.0999483908996297
-0.3853344715469749,1.08921066697414
-0.44753716165299906,1.0677352191231604
-0.5565247810695372,1.019773385589306
-0.6213857057954768,0.9861285172894382
-0.5979932411402199,0.9660847659618572
-0.5251576125545335,0.9403142285406818
-0.4741195078521547,0.8830463676047364
-0.4767777424720703,0.8408113201644767
-0.5161196148468206,0.8186200240517979
-0.5671577195491994,0.7921336383689231
-0.6112844142397977,0.7255597500308866
-0.6293604096552236,0.6654284960481439
-0.6086261796198822,0.6310677794865768
-0.5623728972333514,0.5974229111867088
-0.5161196148468206,0.5222588437082805
-0.494322090963513,0.4485264727532508
-0.504423382519192,0.40128048748109585
-0.5363221979581788,0.3640563778727314
-0.5474867833618242,0.288892310394303
-0.5054866763671583,0.20871730508397948
-0.43849916394528615,0.15216529240973342
-0.42095481545384345,0.10993024496947369
-0.4767777424720703,0.03834541879954195
-0.5421703141219931,-0.04111373824908228
-0.5474867833618242,-0.10482423354032153
-0.5012335009752934,-0.14992267402737852
-0.4597650409046107,-0.21434901758031707
-0.4528536308928302,-0.2902289333204447
-0.4741195078521547,-0.36038206296697783
-0.5065499702151246,-0.41120728954762936
-0.5230310248586011,-0.46775930222187545
-0.4927271501915636,-0.532185645774814
-0.423613050073759,-0.6001912306362491
-0.36779012305553216,-0.6488689124318027
-0.3598154191957855,-0.6939673529188597
-0.3630053007396842,-0.7440767312378119
-0.3215368406690014,-0.8049238334822539
-0.24444803669145007,-0.8500222739693108
-0.20616945816466598,-0.8850988387925774
-0.24444803669145007,-0.9259021897094385
-0.29761272908976133,-0.9831700506453839
-0.27209367673857193,-1.0289843393941402
-0.15938452885415208,-1.0597658146472109
-0.047207027893715336,-1.0934106829470789
-0.0009537455071845486,-1.1513943921447236
0.00914754604849459,-1.2007879222019764
0.04689447765129558,-1.2308535491933477
0.1160085777691002,-1.2616350244464183
0.17023656401537768,-1.3181870371206645
0.1925657348226684,-1.3718756567481132
0.20160373253038133,-1.4033729802628832
0.21011008331411113,-1.4312910624691566
0.21383161178199292,-1.4878430751434026
0.21967972794580715,-1.5501218739112432
0.24254054567708097,-1.5916410730898036
0.2770975957359833,-1.6159799139875806
0.29676853192335845,-1.6582149614278403
0.28347735882378067,-1.7111877327935896
0.24892030876487833,-1.7505593871870522
0.21542655255394225,-1.7620129593742413
0.18724926558283728,-1.7763299246082276
0.14684409936012074,-1.8049638550762002
0.08038823386223166,-1.8350294820675717
0.016590602984258164,-1.8328819372824736
0.020843778376123064,-1.8135540342165921
0.12132504700893133,-1.8056797033378995
0.24626207414496276,-1.8149857307399908
0.2781608895839495,-1.7949419794124097
0.18033785557105683,-1.7398216632615624
0.04423624303138002,-1.6832696505873164
-0.017434800150661036,-1.6546357201193436
0.01765389683222439,-1.610253127893986
0.0814515277101979,-1.5257830330134665
0.11281869622520153,-1.4248484281138627
0.10431234544147173,-1.3518319054205323
0.08304646848214722,-1.2816787757739994
0.07135023615451876,-1.184323412182892
0.07560341154638366,-1.0604816629089102
0.08676799695002901,-0.9566836649625092
0.08889458464596146,-0.8686343287734931
0.06709706076265386,-0.7698472686589873
0.03147671685578531,-0.6395628850297116
0.010210839896460815,-0.5128577427089325
0.024033659920021738,-0.4083438965008321
0.05912235690290717,-0.31599947074162016
0.08304646848214722,-0.20003205234633073
0.08889458464596146,-0.07690615133404814
0.10005917004960684,0.0240284535655556
0.11813516546503265,0.09990836930568324
0.11494528392113398,0.21158069813077676
0.07400847077443432,0.37193070875142387
0.02828683531188664,0.5322807193720709
0.012869074516376377,0.6346470207950733
0.021375425300106176,0.7090952400118024
0.03147671685578531,0.782827610966832
0.04902106534722803,0.8494014993048685
0.08038823386223166,0.8723086436792467
0.0989958762016406,0.8837622158664358
0.06816035461062007,0.9131119945961078
-0.0025486862791338862,0.9560628902980668
-0.0626247886892256,0.9732432485788505
-0.07325772716888786,0.976822489887347
-0.04401714634981666,0.9861285172894382
-0.017434800150661036,1.010467358187215
-0.03125762017422196,1.019773385589306
-0.0796374902566852,1.0183416890659074
-0.1131312464676213,1.0161941442808096
-0.07432102101685407,1.033374502561593
0.04583118380332935,1.0433963782253834
0.19416067559461775,1.0412488334402856
0.294641944227426,1.0247843234212013
0.33132558198226075,1.019773385589306
0.3664142789651462,1.0154782960191102
0.46104743143414023,1.004024723831921
0.5668451693067796,0.9725274003171511
0.5588704654470329,0.9524836489895703
0.3967181536321836,0.9410300768023812
0.19150244097470218,0.9274289598300941
0.0857047031020628,0.8859097606515337
0.1112237554532522,0.8458222579963719
0.20000879175843198,0.8143249344816019
0.27443936111606776,0.7885543970604265
0.2840090057477638,0.7384450187414743
0.20638855484622934,0.6847563991140255
0.07400847077443432,0.6382262621035699
-0.022219622466509048,0.6060130903271006
-0.008396802442948124,0.5566195602698477
0.08517305617807967,0.49935169933390233
0.14897068705605318,0.4413679901362576
0.12664151624876246,0.40128048748109585
0.08357811540613035,0.3561820469940389
0.09740093542969126,0.3075043651984853
0.11494528392113398,0.25166820078593855
0.014995662212308827,0.2137282429158747
-0.18809346274924016,0.1800833746160068
-0.3135621368092547,0.15001774762463546
-0.2540176813231461,0.10635100366097709
-0.1269540664911822,0.0734219836228085
-0.1051565426078746,0.049798990986731025
-0.1822453465854259,0.04120881184633922
-0.23434674513577095,0.023312605303856284
-0.20989098663254777,0.007563943546471302
-0.20032134200085175,-0.0038896286407177753
-0.24551133053941632,0.010427336593268572
-0.31834695912510275,0.025460150088954237
-0.33589130761654545,0.036197874014444
-0.29867602293772755,0.0404929635846399
-0.24816956515933186,0.0734219836228085
-0.22637204127602426,0.11780457584816617
-0.23275180436382162,0.15717623024162863
-0.24285309591950074,0.17435658852241226
-0.24072650822356828,0.21659163596267197
-0.23594168590772027,0.2817338277773099
-0.26465061980280835,0.34759186785364704
-0.36991671075146465,0.38052088789181565
-0.5522716056776722,0.42633517664057197
-0.697942862849045,0.49648830628710505
-0.5948033595963212,0.5702206772421348
-0.0328525609461713,0.6067289385888
1.0793528040265001,0.6468164412439618
2.672698635203888,0.7119586330585996
4.476045001354606,0.7899860935838252
6.000808379338173,0.8336528375474835
6.669088562784945,0.8708769471558481
6.146479636509546,0.9224180219981989
4.610551673122333,0.9882760620745361
2.680673339063635,1.0262160199446
1.026719758552172,1.0548499504125726
0.0022361360367141266,1.0877789704507412
-0.43796751702130304,1.1364566522462949
-0.5395120795020776,1.1679539757610649
-0.5171829086947868,1.188713575350345
-0.4587017470566444,1.2066097818928279
-0.39437246925468783,1.2373912571458985
-0.3651318884356166,1.2581508567351787
-0.4103218769741812,1.2731836702308643
-0.504423382519192,1.2774787598010604
-0.5847020680406421,1.290364028511648
-0.6272338219592911,1.2989542076520397
-0.6745503981937881,1.3068285385307323
-0.7532341429432887,1.3003859041754384
-0.8165001268972791,1.2939432698201445
-0.8000190722538026,1.2832055458946547
-0.7043226259368424,1.2781946080627595
-0.6245755873393756,1.2602984015202767
-0.6118160611637808,1.2381071054075978
-0.6527528743104805,1.2137682645098211
-0.6623225189421765,1.2066097818928279
-0.6235122934914094,1.1858501823035477
-0.5825754803447096,1.1328774109377981
-0.5836387741926758,1.0412488334402856
-0.6150059427076795,0.9625055246533607
-0.631486997351156,0.9002267258855201
-0.6224489996434431,0.8365162305942808
-0.6070312388479329,0.7527619839754607
-0.5979932411402199,0.692630729992718
-0.5910818311284395,0.6575541651694514
-0.5873603026605576,0.6131715729440937
-0.5958666534442875,0.530133174586973
-0.6219173527194599,0.4606958932021392
-0.6543478150824298,0.4227559353320754
-0.6814618082055686,0.37980503963011636
-0.6851833366734503,0.2917557034411003
-0.6532845212344636,0.21301239465417537
-0.5974615942162368,0.17077734721391566
-0.5581197218414865,0.12854229977365594
-0.5650311318532669,0.03691372227614331
-0.6064995919239498,-0.05113561391287272
-0.6394617012109027,-0.10052914397012562
-0.6357401727430209,-0.14204834314868603
-0.5995881819121692,-0.22723428629090478
-0.5586513687654696,-0.3131360776948229
-0.5336639633382633,-0.36252960775207577
-0.5267525533264829,-0.3997537173604403
-0.5256892594785166,-0.47849702614736517
-0.5256892594785166,-0.563682969289584
-0.5352589041102126,-0.6195191337021307
-0.5570564279935203,-0.6581749398338939
-0.5644994849292838,-0.7276122212187276
-0.5230310248586011,-0.8042079852205546
-0.4432839862611342,-0.8571807565863041
-0.3816129430790931,-0.8922573214095706
-0.37789141461121134,-0.947377637560418
-0.40287882003841763,-1.010372284589958
-0.3911825877107891,-1.0590499663855115
-0.31622037142917025,-1.0912631381619808
-0.21786569049229446,-1.1356457303873386
-0.1524731188423716,-1.188618501753088
-0.130675594959064,-1.2365803352869422
-0.11951100955541864,-1.2702252035868102
-0.0838906656485501,-1.3074493131951748
-0.01849809399862726,-1.351116057158833
0.0607172976748565,-1.3962144976458901
0.13993268934834027,-1.4291435176840586
0.21117337716207735,-1.4613566894605279
0.2680595980282704,-1.5007283438539905
0.30899641117497006,-1.5479743291261454
0.34780663662573724,-1.5844825904728106
0.39884474132811604,-1.6145482174641819
0.4583891968142247,-1.6524881753342457
0.5051741261247386,-1.7061767949616944
0.5237817684641475,-1.75270693197215
0.5184652992243164,-1.786351800272018
0.5014525976568568,-1.8171332755250886
0.4754018983816843,-1.865095109058943
0.4424397890947313,-1.9137727908544966
0.4163890898195588,-1.9481335074160637
0.4179840305915081,-1.9660297139585468
0.4435030829426975,-1.99394779616482
0.4562626091182922,-2.0304560575114854
0.4233004998313392,-2.0576582914560593
0.3626927504972644,-2.0562265949326606
0.33026228813429453,-2.0490681123156675
0.3632243974212475,-2.059089987979458
0.43712331985490016,-2.0762703462602414
0.49719942226499186,-2.053363201885863
0.5110222422885528,-2.0011062787818132
0.4987943630369412,-1.964598017435148
0.5009209507328737,-1.955291990033057
0.5349463538677929,-1.9094777012843005
0.5753515200905094,-1.81570157900169
0.5886426931900872,-1.7305156358594713
0.5657818754588134,-1.6911439814660087
0.5253767092360968,-1.6295810309598675
0.47061707606583625,-1.506455129947585
0.3993763882520992,-1.3733073532715119
0.33345216967819324,-1.2924164996994891
0.3206926435025985,-1.2115256461274662
0.36907251358506177,-1.0783778694513932
0.4259587344512548,-0.9251863414477393
0.43552837908295083,-0.8206724952396389
0.39831309440413293,-0.7340548555740215
0.3382369919940412,-0.6137923476085362
0.27071783264818594,-0.46847515048357474
0.21436325870597603,-0.3589503664435792
0.20798349561817867,-0.2737644233013604
0.2563633657006419,-0.17569321144855393
0.3031482950111558,-0.050419765651173405
0.27922418343191574,0.05838917012712284
0.19416067559461775,0.1428592650076423
0.11494528392113398,0.21802333248607061
0.09208446618986015,0.3075043651984853
0.10643893313740418,0.3912586118173054
0.11654022469308331,0.45854834841704123
0.10431234544147173,0.5072260302125948
0.09208446618986015,0.5630621946251416
0.0899578784939277,0.6231934486078843
0.08942623156994457,0.6775979164970324
0.077198352318333,0.7098110882735016
0.05912235690290717,0.7405925635265723
0.04104636148748134,0.7756691283498388
0.02988177608383598,0.8136090862199027
0.04264130225943068,0.8307894445006863
0.1160085777691002,0.8422430166878754
0.25317348415674323,0.857275830183561
0.39246497824031873,0.8844780641281351
0.4562626091182922,0.8966474845770235
0.44562967063862996,0.8930682432685269
0.44616131756261307,0.8780354297728412
0.5301615315519449,0.8758878849877433
0.6503137363721283,0.8701610988941487
0.6891239618228955,0.8515490440899665
0.5971490439738171,0.8157566310050006
0.45307272757439354,0.7942811831540211
0.35631298740946704,0.780680066181734
0.31484452733878426,0.7577729218073559
0.2696545388002197,0.7069476952267044
0.20904678946614488,0.6661443443098433
0.18990750020275285,0.6396579586269685
0.24466713337301343,0.6131715729440937
0.30580652963107136,0.5566195602698477
0.2696545388002197,0.5043626371657975
0.12610986932477936,0.4700019206042303
-0.014776565530745474,0.4442313831830549
-0.027536091706340176,0.3898269152939068
0.09580599465774194,0.3304115095728634
0.24679372106894587,0.2845972208241071
0.30527488270708825,0.25739498687953305
0.23669242951326674,0.21158069813077676
0.1027174046695224,0.16003962328842591
-0.006801861670998786,0.1149411828013689
-0.04454879327379978,0.09131819016529144
-0.039232324033968646,0.06268425969731874
-0.05518173175346203,0.031186936182548777
-0.11897936263143553,-0.003173780379018458
-0.19181499121712195,-0.01677489735130549
-0.22637204127602426,-0.025365076491697298
-0.21414416202441267,-0.02679677301509593
-0.20563781124068287,-0.03538695215548774
-0.21414416202441267,-0.031091862585291834
-0.24232144899551764,-0.01963829039810276
-0.25135944670323057,0.006848095284771985
-0.2518910936272137,0.025460150088954237
-0.2625240321068759,0.04621974967823444
-0.2928279067739133,0.06984274231431191
-0.31462543065722093,0.11637287932476754
-0.2944228475458627,0.1636188645969225
-0.23700497975568652,0.20800145682228016
-0.19181499121712195,0.2416463251221481
-0.21786569049229446,0.29891418605809345
-0.33323307299662985,0.363340529611032
-0.5007018540513103,0.42204008707037605
-0.6463731112226831,0.45854834841704123
-0.6522212273864973,0.514384512829588
-0.32525836913688316,0.5874010355229183
0.5418577638795733,0.6575541651694514
2.008671627148981,0.6962099713012146
3.842853514890719,0.7456035013584675
5.550503434724476,0.8157566310050006
6.535113537941201,0.8894890019600303
6.346910526851179,0.9274289598300941
4.969944993734917,0.9646530694384586
2.964041149546634,1.019773385589306
1.1575049018520176,1.0834838808805454
0.06390717921875518,1.1149812043953153
-0.3821445900030762,1.1400358935547914
-0.5012335009752934,1.1765441549014566
-0.475714448624104,1.2266535332204087
-0.3560938907279037,1.2524240706415841
-0.25720756286704477,1.268172732398969
-0.3124988429612885,1.2860689389414521
-0.5012335009752934,1.3204296555030193
-0.6697655758779401,1.339757558568901
-0.730904972135998,1.3483477377092927
-0.7176137990364202,1.3476318894475934
-0.6958162751531126,1.3605171581581812
-0.6942213343811633,1.3662439442517758
-0.7192087398083695,1.364812247728377
-0.7633354344989679,1.346916041185894
-0.7947026030139716,1.3411892550922995
-0.8037406007216844,1.335462468998705
-0.7840696645343093,1.3268722898583132
-0.7612088468030355,1.2982383593903406
-0.7229302682762514,1.274615366754263
-0.6793352205096361,1.2552874636883815
-0.6484996989186156,1.2381071054075978
-0.6500946396905649,1.2008829957992333
-0.688373218217349,1.161511341405771
-0.7452594390835421,1.1250030800591058
-0.7962975437859209,1.0978008461145317
-0.8085254230375325,1.0541341021508732
-0.7659936691188834,1.0047405720936204
-0.6894365120653153,0.9531994972512695
-0.6394617012109027,0.9188387806897023
-0.6591326373982779,0.8737403402026453
-0.7293100313640487,0.8157566310050006
-0.7707784914347314,0.7506144391903627
-0.7330315598319305,0.7098110882735016
-0.6431832296787845,0.663280951263046
-0.5825754803447096,0.573084070288932
-0.5884235965085238,0.42705102490227126
-0.6282971158072573,0.29390324822619823
-0.650626286614548,0.19511618811169246
-0.6564744027783623,0.10635100366097709
-0.6814618082055686,-0.0024579321173191404
-0.7314366190599811,-0.08478048221274063
-0.7574873183351537,-0.12916307443809832
-0.7197403867323526,-0.17569321144855393
-0.6399933481348858,-0.2694693337311645
-0.5847020680406421,-0.3560869733967819
-0.584170421116659,-0.40404880693063616
-0.6017147696081017,-0.4455680061091966
-0.5825754803447096,-0.530038100989716
-0.5294107879463984,-0.6109289545617389
-0.49804361943139475,-0.6531640020019986
-0.5310057287183477,-0.6860930220401672
-0.6006514757601354,-0.7612570895185955
-0.6373351135149702,-0.8385687017821218
-0.5990565349881861,-0.8822354457457802
-0.5118664394549557,-0.9108693762137529
-0.43796751702130304,-0.9731481749815935
-0.4081952892782487,-1.0354269737494342
-0.3933091754067216,-1.0683559937876026
-0.35343565610798816,-1.0905472899002815
-0.29973931678569377,-1.1428042130043317
-0.28272661521823417,-1.202219618725375
-0.3087773144934067,-1.238012031810341
-0.3199418998970521,-1.2623508727081176
-0.2704987359666226,-1.3117444027653706
-0.1859668750533077,-1.3682964154396167
-0.11206795261965506,-1.4090997663564777
-0.05252349713354646,-1.4363020003010518
0.01978048452815684,-1.479252896003011
0.10112246389757305,-1.529362274321963
0.1590719786117323,-1.5687339287154256
0.17714797402715815,-1.594504466136601
0.1712998578633439,-1.6324444240066647
0.1542871562958843,-1.682553802325617
0.12398328162884689,-1.7319473323828698
0.07985658693824856,-1.7670238972061365
0.04317294918341379,-1.8006687655060043
0.03307165762773465,-1.8400404198994669
0.04423624303138002,-1.8851388603865238
0.053274240739092926,-1.9194995769480911
0.05167929996714359,-1.9424067213224692
0.04955271227121114,-1.9581553830798542
0.04529953687934624,-1.9810625274542324
0.00914754604849459,-2.002537975305212
-0.07325772716888786,-2.011844002707303
-0.1599161757781352,-1.996095340949918
-0.18011875888949347,-1.9774832861457357
-0.11259959954363817,-1.9681772587436446
-0.022219622466509048,-1.9581553830798542
0.00010954834078167651,-1.9116252460693985
-0.06847290485303983,-1.845051357731362
-0.1609794696261014,-1.7970895241975078
-0.19606816660898685,-1.7691714419912343
-0.1561946473102534,-1.698302464083002
-0.09771348567211102,-1.5823350456877125
-0.08867548796439811,-1.4835479855732068
-0.15353641269033785,-1.4291435176840586
-0.2492328590072981,-1.3432417262801406
-0.28963802523001464,-1.1957769843700812
-0.21414416202441267,-1.0576182698621128
-0.059434907145326926,-0.9846017471687826
0.061780591522822725,-0.8979841075031652
0.07400847077443432,-0.7469401242846092
0.014995662212308827,-0.5901693549724587
-0.03232091402218819,-0.5035517153068413
-0.0371057363380362,-0.42480840651991636
-0.03125762017422196,-0.2902289333204447
-0.04880196866566468,-0.13918495010188875
-0.0966501918241448,-0.05185146217457204
-0.14928323729847295,0.013290729640065842
-0.1556630003862703,0.11708872758646686
-0.08123243102863453,0.23949878033705013
0.016590602984258164,0.3132311512920798
0.04051471456349823,0.36262468134933273
-0.02275126939049216,0.43420950751926446
-0.08070078410465142,0.5265539332784764
-0.06900455177702296,0.5866851872612191
-0.03763738326201931,0.6260568416546815
-0.057308319449394476,0.6718711304034378
-0.1009033672160097,0.7341499291712784
-0.10143501413999281,0.7778166731349367
-0.07272608024490473,0.8064506036029094
-0.08761219411643188,0.8307894445006863
-0.1397135926667769,0.8658660093239529
-0.11259959954363817,0.8923523950068276
0.05699576920697472,0.9109644498110098
0.2558317187766588,0.9224180219981989
0.3121862927188687,0.9424617733257797
0.23190760719741874,0.9596421316065634
0.20373032022631377,0.976822489887347
0.33132558198226075,0.9804017311958436
0.45307272757439354,0.9861285172894382
0.3270724065903959,0.992571151644732
-0.03976397095795176,1.0076039651404176
-0.3544989499559544,1.0068881168787183
-0.3555622438039206,0.9868443655511374
-0.09027042873634746,0.9460410146342764
0.16013527245969855,0.9145436911195064
0.18618597173487106,0.8830463676047364
