ECG,PPG
0.1817552822945456,0.27965048414221416
1.0628132594857986,1.511351839930824
0.24407401726660985,0.27965048414221416
-0.16493745019371983,-0.39064671733803125
0.3071090595372036,0.20705511936096013
0.5921993643519342,0.5530930248182709
0.3701441018077973,0.13365313941546997
0.27988938219308357,-0.1599547803664907
0.5592492286195784,0.06105777463421595
0.7440565116401827,0.21189481034637705
0.6853193131607659,0.06105777463421595
0.6609648650107638,-0.06316096065815202
0.8113893977019533,-0.01153759014703806
0.9625302376916723,-0.008311129490093437
1.063529566784328,-0.08413295492829206
1.176706119951985,-0.11639756149773829
1.315669735866703,-0.08413295492829206
1.413803835765241,-0.1018784885414875
1.5047748626784843,-0.15672831970954607
1.620816645040259,-0.20593184472795156
1.756915031760859,-0.2293236844908001
1.8593469754505738,-0.2720742881953163
1.9460201585726402,-0.3019190492720541
1.9889985964844086,-0.3495093439619873
2.009055200843234,-0.3745144140533081
1.9796866016035255,-0.4172650177578244
1.9460201585726402,-0.4471097788345621
1.8894318819888116,-0.49550668868873143
1.8199500740314527,-0.5197051436158161
1.6817027654152643,-0.5616491321560962
1.5047748626784843,-0.5923005083970702
1.299194668000525,-0.6447304940724202
1.126564609054922,-0.6657024883425603
0.9618139303931428,-0.679414946134575
0.8113893977019533,-0.6657024883425603
0.641624567950468,-0.6721554096564496
0.49621418634898473,-0.6657024883425603
0.3572505704342668,-0.6737686399849219
0.24407401726660985,-0.6657024883425603
0.12946484950189402,-0.6761884854776303
0.05568519775335819,-0.6657024883425603
-0.0109313810098829,-0.6673157186710326
-0.07038488678782924,-0.6657024883425603
-0.15562545531283667,-0.7044200162258958
-0.19645497132901668,-0.7382978531238144
-0.20648327350842932,-0.783468302321039
-0.19645497132901668,-0.8108932179050683
-0.23298664355401985,-0.8576768974307654
-0.2594900135996104,-0.8834885826863224
-0.2738161595701999,-0.9230127257338939
-0.2594900135996104,-0.9560839474675763
-0.26880200848049357,-1.0125470089641073
-0.2594900135996104,-1.0286793122488302
-0.25447586250990406,-1.032712388070011
-0.2594900135996104,-1.0286793122488302
-0.3089152171981441,-1.0722365311175828
-0.3225250558702041,-1.1012746770300843
-0.298170607720202,-1.1174069803148075
-0.2594900135996104,-1.1012746770300843
-0.2867096909437304,-1.109340828672446
-0.3225250558702041,-1.1012746770300843
-0.3411490456319704,-1.1020812921943206
-0.3225250558702041,-1.1012746770300843
-0.3275392069599104,-1.146445126227309
-0.3225250558702041,-1.1738700418113384
-0.30461737340696726,-1.1883891147675891
-0.2594900135996104,-1.1738700418113384
-0.25232694061431565,-1.1859692692748807
-0.2594900135996104,-1.1738700418113384
-0.2759650814657883,-1.1496715868842537
-0.2594900135996104,-1.1012746770300843
-0.25662478440549247,-1.0972416012089037
-0.2594900135996104,-1.1012746770300843
-0.2788303106599062,-1.115793749986335
-0.2594900135996104,-1.1012746770300843
-0.2294051070613725,-1.1061143680155012
-0.19645497132901668,-1.1012746770300843
-0.20075281512019352,-1.1117606741651544
-0.19645497132901668,-1.1012746770300843
-0.1978875859260756,-1.1085342135082097
-0.19645497132901668,-1.1012746770300843
-0.2172278829863714,-1.110147443836682
-0.19645497132901668,-1.1012746770300843
-0.1412993093422472,-1.110147443836682
-0.07038488678782924,-1.1012746770300843
-0.06035658460841661,-1.1085342135082097
-0.07038488678782924,-1.1012746770300843
-0.08471103275841872,-1.1125672893293905
-0.07038488678782924,-1.1012746770300843
-0.07396642328047662,-1.1069209831797375
-0.07038488678782924,-1.1012746770300843
-0.07683165247459452,-1.1182135954790435
-0.07038488678782924,-1.1012746770300843
-0.08112949626577136,-1.078689452431472
-0.07038488678782924,-1.0286793122488302
-0.0689522721907703,-1.001254396664801
-0.07038488678782924,-0.9560839474675763
-0.09330672034077242,-0.9278524167193108
-0.07038488678782924,-0.8834885826863224
-0.030987985368708174,-0.8447710548029869
-0.007349844517235531,-0.7382978531238144
-0.05032828242900397,-0.601979890367904
-0.07038488678782924,-0.4471097788345621
-0.0331369072642966,-0.3446696529765704
0.05568519775335819,-0.2293236844908001
0.09579840647100873,-0.10349171886995981
0.1187202400239519,0.06105777463421595
0.18820204798131088,0.19979558288283472
0.3701441018077973,0.35224584892346816
0.5499372337386953,0.49259688750055924
0.6222842708901721,0.6426273080484842
0.5563839994254606,0.7458740490707121
0.49621418634898473,0.8604134023922462
0.5033772593342795,0.9846321376846142
0.5592492286195784,1.1516014766814984
0.5492209264401658,1.2766268271381025
0.49621418634898473,1.3693875710252605
0.43962590976515625,1.4193977112079021
0.433179144078391,1.5145783005877684
0.41240623242103625,1.6218581174311772
0.3701441018077973,1.7331710100957667
0.2977970646563204,1.7735017683075744
0.24407401726660985,1.8057663748770207
0.1659965217268972,1.8259317539829245
0.05568519775335819,1.8783617396582746
-0.09473933493783136,1.9082065007350124
-0.19645497132901668,1.9509571044395286
-0.2508943260172567,1.958216640917654
-0.2594900135996104,1.9509571044395286
-0.2623552427937283,1.8969138884357062
-0.19645497132901668,1.8783617396582746
-0.0796968816687124,1.8711022031801492
0.05568519775335819,1.8783617396582746
0.12588331300924663,1.8323846752968138
0.1817552822945456,1.8057663748770207
0.23619463698278564,1.7904406867565337
0.3071090595372036,1.8057663748770207
0.30209490844749726,1.77027530765063
0.24407401726660985,1.7331710100957667
0.15525191224895507,1.6815476395846527
0.1187202400239519,1.6597690301502765
0.06857872912688871,1.6121787354603434
-0.007349844517235531,1.5871736653690225
-0.09044149114665452,1.5678149014273548
-0.07038488678782924,1.5871736653690225
-0.02812275617459028,1.5629752104419379
-0.07038488678782924,1.5145783005877684
-0.21006481000107668,1.4226241718648467
-0.2594900135996104,1.3693875710252605
-0.24373125303196197,1.3226038914995635
-0.3225250558702041,1.2967922062440065
-0.49157357832315995,1.2241968414627524
-0.3225250558702041,1.1516014766814984
0.46684558710927626,1.061260578287049
1.6938799894902652,1.0064107471189905
2.8743544174668383,0.9297823065165556
3.8363551193919223,0.8604134023922462
4.599938699624341,0.7684592736693244
5.096339657505267,0.7152226728297382
5.000354479502318,0.6652125326470966
4.213849065716955,0.6426273080484842
3.030509408546264,0.5966502436870234
2.009055200843234,0.5700319432672302
1.4338604401240662,0.5256681092342416
1.2526346935961092,0.49743657848597617
1.1931811878181628,0.4441999776463899
1.126564609054922,0.42484121370472216
0.9811542274534386,0.41032214074847134
0.7483543554313595,0.42484121370472216
0.39879639374897624,0.39418983746374825
0.05568519775335819,0.35224584892346816
-0.17854728886577984,0.289329866113048
-0.2594900135996104,0.27965048414221416
-0.2953053785260841,0.2748107931567972
-0.3225250558702041,0.27965048414221416
-0.36478718648344305,0.23609326527346172
-0.38556009814079784,0.20705511936096013
-0.4249569995599189,0.1836632795981116
-0.44859514041139154,0.20705511936096013
-0.47294958856139363,0.20705511936096013
-0.44859514041139154,0.20705511936096013
-0.42424069226138944,0.18446989476234776
-0.38556009814079784,0.20705511936096013
-0.3841274835437389,0.23448003494498942
-0.38556009814079784,0.27965048414221416
-0.40131885870844625,0.27965048414221416
-0.38556009814079784,0.27965048414221416
-0.366219801080502,0.2627115656932549
-0.3225250558702041,0.27965048414221416
-0.2960216858246136,0.27723063864950565
-0.2594900135996104,0.27965048414221416
-0.2372844873451967,0.2602917202005464
-0.19645497132901668,0.27965048414221416
-0.16923529398489667,0.2852967902918672
-0.13341992905842295,0.27965048414221416
-0.11551224659518611,0.22560726813839171
-0.07038488678782924,0.20705511936096013
-0.018810761293707116,0.20140881321130705
0.05568519775335819,0.20705511936096013
0.09508209917247926,0.1602714398352631
0.1187202400239519,0.13365313941546997
0.12516700571071718,0.12316714228039993
0.1817552822945456,0.13365313941546997
0.24622293916219828,0.09332238120366218
0.3071090595372036,0.06105777463421595
0.3422081171651478,0.04250562585678437
0.433179144078391,0.06105777463421595
0.5613981505151668,0.03363285905018666
0.6853193131607659,-0.01153759014703806
0.7411912824460648,-0.07122711230051358
0.8113893977019533,-0.08413295492829206
0.9224170289740218,-0.09300572173488979
1.063529566784328,-0.08413295492829206
1.1566495155931598,-0.11478433116926598
1.2526346935961092,-0.15672831970954607
1.3679601686593545,-0.21883768735573006
1.5047748626784843,-0.2293236844908001
1.6000437333829043,-0.2293236844908001
1.6938799894902652,-0.2293236844908001
1.771957485029978,-0.27852720950920556
1.8199500740314527,-0.3019190492720541
1.7891488601946854,-0.3107918160786518
1.756915031760859,-0.3019190492720541
1.7339931982079158,-0.3438630378123342
1.6938799894902652,-0.3745144140533081
1.5549163735755474,-0.3914533325022674
1.3787047781372967,-0.3745144140533081
1.2067910264902229,-0.4035525599658097
1.063529566784328,-0.4471097788345621
0.8794385910622533,-0.5043794554953291
0.6853193131607659,-0.5197051436158161
0.5019446447372206,-0.5519697501852624
0.3701441018077973,-0.5923005083970702
0.23834355887837405,-0.6745752551491581
0.1187202400239519,-0.7382978531238144
0.0005295357665886834,-0.7947609146203453
-0.07038488678782924,-0.8108932179050683
-0.1377177728495998,-0.8455776699672231
-0.19645497132901668,-0.8834885826863224
-0.2759650814657883,-0.9423714896755617
-0.3225250558702041,-0.9560839474675763
-0.3612056499907957,-0.9601170232887571
-0.38556009814079784,-0.9560839474675763
-0.4328363798437431,-0.9988345511720926
-0.44859514041139154,-1.0286793122488302
-0.4528929842025684,-1.0480380761904982
-0.44859514041139154,-1.0286793122488302
-0.48655942723345363,-1.031099157741539
-0.5116301826819852,-1.0286793122488302
-0.5238074067569863,-1.0407785397123728
-0.5116301826819852,-1.0286793122488302
-0.5216584848613979,-1.0343256183984835
-0.5116301826819852,-1.0286793122488302
-0.50518341699522,-1.0391653093839004
-0.5116301826819852,-1.0286793122488302
-0.5617716935790484,-1.032712388070011
-0.574665224952579,-1.0286793122488302
-0.5503107768025769,-1.0617505339825128
-0.5116301826819852,-1.1012746770300843
-0.5209421775628684,-1.1585443536908515
-0.5116301826819852,-1.1738700418113384
-0.4801126615466884,-1.1795163479609914
-0.44859514041139154,-1.1738700418113384
-0.4836941980393358,-1.2125875696946737
-0.5116301826819852,-1.2464654065925924
-0.4994529586069842,-1.271470476683913
-0.44859514041139154,-1.2464654065925924
-0.4435809893216852,-1.2383992549502307
-0.44859514041139154,-1.2464654065925924
-0.43713422363491994,-1.296475546775234
-0.38556009814079784,-1.3190607713738465
-0.3712339521702083,-1.3319666140016249
-0.38556009814079784,-1.3190607713738465
-0.4113471608878589,-1.3311599988373888
-0.38556009814079784,-1.3190607713738465
-0.3504610405128536,-1.29728216193947
-0.3225250558702041,-1.2464654065925924
-0.3325533580496167,-1.2375926397859947
-0.3225250558702041,-1.2464654065925924
-0.29888691501873144,-1.2730837070123855
-0.2594900135996104,-1.2464654065925924
-0.257341091704022,-1.2117809545304377
-0.2594900135996104,-1.1738700418113384
-0.2673693938834346,-1.1827428086179361
-0.2594900135996104,-1.1738700418113384
-0.28527707634667143,-1.156124508198143
-0.3225250558702041,-1.1012746770300843
-0.37195025946873783,-1.0698166856248743
-0.38556009814079784,-1.0286793122488302
-0.393439478424622,-1.0028676269932735
-0.38556009814079784,-0.9560839474675763
-0.39272317112609256,-0.9318854925404917
-0.38556009814079784,-0.8834885826863224
-0.3891416346334452,-0.8318652121752084
-0.38556009814079784,-0.7382978531238144
-0.3963047076187399,-0.6447304940724202
-0.38556009814079784,-0.5197051436158161
-0.38556009814079784,-0.4132319419366436
-0.38556009814079784,-0.3019190492720541
-0.3891416346334452,-0.2148046115345493
-0.3225250558702041,-0.08413295492829206
-0.20576696620989984,0.05541146848456286
-0.07038488678782924,0.20705511936096013
0.022735062021002377,0.30788201489047956
0.1187202400239519,0.42484121370472216
0.19966296475778247,0.5514797944897986
0.24407401726660985,0.7152226728297382
0.20825865234013616,0.8354083323009254
0.1817552822945456,0.9330087671735002
0.198946657459253,0.9935049044912119
0.24407401726660985,1.0790061119002443
0.20969126693719511,1.1467617856960814
0.1187202400239519,1.2241968414627524
0.022735062021002377,1.2806599029592833
-0.007349844517235531,1.3693875710252605
-0.029555370771649225,1.4435961661349868
-0.07038488678782924,1.5145783005877684
-0.16493745019371983,1.538776755514853
-0.2594900135996104,1.5871736653690225
-0.35977303539373673,1.6452499571940258
-0.44859514041139154,1.7331710100957667
-0.5574738497878716,1.7735017683075744
-0.6377002672231726,1.8057663748770207
-0.6778134759408232,1.8202854478332715
-0.6377002672231726,1.8783617396582746
-0.5603390789819895,1.9178858827058463
-0.44859514041139154,1.9509571044395286
-0.35404257700550096,1.9396644921402224
-0.2594900135996104,1.9509571044395286
-0.17854728886577984,1.947730643782584
-0.07038488678782924,1.9509571044395286
-0.005200922621647109,1.905786655242304
-0.007349844517235531,1.8783617396582746
-0.10978178820695032,1.8581963605523708
-0.19645497132901668,1.8783617396582746
-0.2480290968231388,1.8549698998954263
-0.2594900135996104,1.8057663748770207
-0.31607829018343886,1.7130056309898627
-0.38556009814079784,1.6597690301502765
-0.4457299112172736,1.6145985809530519
-0.44859514041139154,1.5871736653690225
-0.46507020827756945,1.512965070259296
-0.5116301826819852,1.4419829358065144
-0.5918566001172864,1.3548684980690096
-0.6377002672231726,1.2967922062440065
-0.6864091635231769,1.216130689820391
-0.7007353094937664,1.1516014766814984
-0.5209421775628684,1.0677134996009383
0.1187202400239519,1.0064107471189905
1.1659615104740428,0.9225227700384302
2.323514104897673,0.8604134023922462
3.316316020659524,0.7797518859686307
4.150814023446361,0.7152226728297382
4.720278325777293,0.6264950047637611
4.718129403881704,0.5700319432672302
3.9266098390066357,0.5143754969349354
2.7017243585212354,0.49743657848597617
1.6308449472196715,0.4764645842158361
1.063529566784328,0.49743657848597617
0.8651124450916639,0.5006630391429208
0.8113893977019533,0.49743657848597617
0.7411912824460648,0.44500659281062604
0.6222842708901721,0.42484121370472216
0.38518655507691624,0.41516183173388826
0.05568519775335819,0.42484121370472216
-0.2924401493319662,0.3828972251644421
-0.5116301826819852,0.35224584892346816
-0.6047501314908169,0.32885400916061963
-0.6377002672231726,0.35224584892346816
-0.7086146897775906,0.3498260034307597
-0.7637703517643601,0.35224584892346816
-0.7823943415261264,0.3369201608029812
-0.7637703517643601,0.35224584892346816
-0.7938552583025981,0.34659954277381505
-0.8268053940349538,0.35224584892346816
-0.8504435348864264,0.33772677596721734
-0.8268053940349538,0.35224584892346816
-0.8124792480643643,0.3482127731022874
-0.7637703517643601,0.35224584892346816
-0.7021679240908253,0.3328870849818004
-0.6377002672231726,0.35224584892346816
-0.6334024234319958,0.37805753417902516
-0.6377002672231726,0.42484121370472216
-0.6455796475069969,0.4264544440331945
-0.6377002672231726,0.42484121370472216
-0.65489164238788,0.4079022952557629
-0.6377002672231726,0.42484121370472216
-0.588275063624639,0.4224213682120137
-0.5116301826819852,0.42484121370472216
-0.47581481775551154,0.40709568009152675
-0.44859514041139154,0.42484121370472216
-0.42925484335109576,0.42887428952590295
-0.38556009814079784,0.42484121370472216
-0.34258166022902936,0.37402445835784437
-0.2594900135996104,0.35224584892346816
-0.18141251805989772,0.34175985178839813
-0.13341992905842295,0.35224584892346816
-0.14989499692460087,0.31272170587589654
-0.13341992905842295,0.27965048414221416
-0.06035658460841661,0.2546454140508933
0.05568519775335819,0.27965048414221416
0.12301808381512874,0.2836835599633949
0.1817552822945456,0.27965048414221416
0.25266970484896356,0.23609326527346172
0.3701441018077973,0.20705511936096013
0.48690219146810154,0.1602714398352631
0.6222842708901721,0.13365313941546997
0.7512195846254774,0.0892893053824814
0.874424439972547,0.06105777463421595
0.9610976230946133,0.014274095108518924
1.063529566784328,-0.01153759014703806
1.1659615104740428,-0.05428819385155431
1.2526346935961092,-0.08413295492829206
1.2805706782387587,-0.13333647994669756
1.315669735866703,-0.15672831970954607
1.3564992518828831,-0.19544584759288156
1.3787047781372967,-0.2293236844908001
1.3221165015534684,-0.28659336115156714
1.2526346935961092,-0.3019190492720541
1.190315958624045,-0.3075653554217072
1.126564609054922,-0.3019190492720541
0.9876009931402039,-0.3438630378123342
0.8113893977019533,-0.3745144140533081
0.6172701198004659,-0.3930665628307397
0.433179144078391,-0.3745144140533081
0.22831525669896144,-0.39951948414462896
0.05568519775335819,-0.4471097788345621
-0.08757626195253662,-0.5132522223019269
-0.19645497132901668,-0.5197051436158161
-0.3124967536907915,-0.5156720677946354
-0.38556009814079784,-0.5197051436158161
-0.44214837472462626,-0.5931071235613063
-0.5116301826819852,-0.6657024883425603
-0.6498774912981737,-0.7253920104960359
-0.7637703517643601,-0.7382978531238144
-0.8045998677805402,-0.7705624596932605
-0.7637703517643601,-0.8108932179050683
-0.7472952838981822,-0.8891348888359755
-0.7637703517643601,-0.9560839474675763
-0.8110466334673054,-1.0206131606064688
-0.8268053940349538,-1.0286793122488302
-0.836117388915837,-1.0278726970845942
-0.8268053940349538,-1.0286793122488302
-0.8318195451246602,-1.0762696069387636
-0.8268053940349538,-1.1012746770300843
-0.836117388915837,-1.1109540590009181
-0.8268053940349538,-1.1012746770300843
-0.8103303261687759,-1.13999220491342
-0.7637703517643601,-1.1738700418113384
-0.7451463620025938,-1.197261881574187
-0.7637703517643601,-1.1738700418113384
-0.8196423210496591,-1.1730634266471023
-0.8268053940349538,-1.1738700418113384
-0.7960041801981864,-1.1908089602602976
-0.7637703517643601,-1.1738700418113384
-0.795287872899657,-1.17145019631863
-0.8268053940349538,-1.1738700418113384
-0.8203586283481885,-1.218233875844327
-0.7637703517643601,-1.2464654065925924
-0.7437137474055349,-1.2666307856984962
-0.7637703517643601,-1.2464654065925924
-0.8124792480643643,-1.2456587914283563
-0.8268053940349538,-1.2464654065925924
-0.8332521597217191,-1.2674374008627325
-0.8268053940349538,-1.2464654065925924
-0.8196423210496591,-1.2166206455158546
-0.7637703517643601,-1.1738700418113384
-0.6942885438070011,-1.1746766569755744
-0.6377002672231726,-1.1738700418113384
-0.6377002672231726,-1.1851626541106446
-0.6377002672231726,-1.1738700418113384
-0.6391328818202316,-1.1811295782894637
-0.6377002672231726,-1.1738700418113384
-0.6584731788805275,-1.1811295782894637
-0.6377002672231726,-1.1738700418113384
-0.5961544439084632,-1.1851626541106446
-0.574665224952579,-1.1738700418113384
-0.6212251993569948,-1.177096502468283
-0.6377002672231726,-1.1738700418113384
-0.5911402928187569,-1.1940354209172424
-0.5116301826819852,-1.1738700418113384
-0.49873665130845474,-1.1432186655703644
-0.5116301826819852,-1.1012746770300843
-0.5230910994584569,-1.1085342135082097
-0.5116301826819852,-1.1012746770300843
-0.5245237140555158,-1.083529143416889
-0.5116301826819852,-1.0286793122488302
-0.4793963542481589,-1.000447781500565
-0.44859514041139154,-0.9560839474675763
-0.4822615834422768,-0.9052671921206985
-0.5116301826819852,-0.8108932179050683
-0.5037508023981611,-0.7374912379595782
-0.44859514041139154,-0.6657024883425603
-0.41994284847021257,-0.6156923481599187
-0.38556009814079784,-0.5197051436158161
-0.3232413631687336,-0.4011327144731012
-0.19645497132901668,-0.2293236844908001
-0.06465442839959346,-0.07848664877863898
0.05568519775335819,0.06105777463421595
0.11227347433718664,0.1562383640140823
0.1187202400239519,0.27965048414221416
0.07359288021659503,0.4095155255842352
0.05568519775335819,0.5700319432672302
0.07072765102247713,0.7055432908589043
0.1187202400239519,0.8604134023922462
0.12946484950189402,1.0015710561335736
0.1187202400239519,1.1516014766814984
0.08147226050041925,1.2564614480321987
0.05568519775335819,1.3693875710252605
0.0005295357665886834,1.4694078513905438
-0.07038488678782924,1.5871736653690225
-0.17210052317901456,1.6638021059714572
-0.2594900135996104,1.7331710100957667
-0.3554751916025599,1.7646290015009767
-0.44859514041139154,1.8057663748770207
-0.5632043081761073,1.8259317539829245
-0.6377002672231726,1.8783617396582746
-0.6520264131937622,1.9154660372131378
-0.574665224952579,1.9509571044395286
-0.47653112505404105,1.9412777224686948
-0.38556009814079784,1.9509571044395286
-0.3332696653481462,1.9493438741110565
-0.2594900135996104,1.9509571044395286
-0.174249445074603,1.9025601945853594
-0.07038488678782924,1.8783617396582746
-0.022392297786354487,1.86464928186626
-0.007349844517235531,1.8783617396582746
-0.04316520944370923,1.8428706724318837
-0.07038488678782924,1.8057663748770207
-0.13270362175989348,1.7541430043659068
-0.19645497132901668,1.7331710100957667
-0.2602063208981399,1.6871939457343057
-0.2594900135996104,1.6597690301502765
-0.2508943260172567,1.6178250416099964
-0.2594900135996104,1.5871736653690225
-0.3081989098996146,1.51215845509506
-0.3225250558702041,1.4419829358065144
-0.3533262697069715,1.3556751132332459
-0.44859514041139154,1.2967922062440065
-0.588275063624639,1.2153240746561547
-0.5116301826819852,1.1516014766814984
-0.01809445399517764,1.0685201147651744
0.874424439972547,1.0064107471189905
1.8772546579138107,0.921716154874194
2.8277944430624227,0.8604134023922462
3.7403699413889724,0.7813651162971029
4.655094361611111,0.7152226728297382
5.247480497494986,0.6256883895995249
5.096339657505267,0.5700319432672302
4.109984507430181,0.5184085727561162
2.8277944430624227,0.49743657848597617
1.8758220433167516,0.45226612928875143
1.5047748626784843,0.42484121370472216
1.453200737184362,0.38128399483596975
1.4417398204078904,0.35224584892346816
1.3271306526431745,0.27803725381374184
1.126564609054922,0.20705511936096013
0.7963469444328344,0.13607298490817843
0.3701441018077973,0.13365313941546997
-0.061072891906946085,0.1368796000724146
-0.3225250558702041,0.13365313941546997
-0.40131885870844625,0.08041653857588368
-0.38556009814079784,0.06105777463421595
-0.42853853605256625,0.05541146848456286
-0.5116301826819852,0.06105777463421595
-0.5839772198334622,0.015080710272755078
-0.574665224952579,-0.01153759014703806
-0.5660695373702253,-0.022830202446344237
-0.574665224952579,-0.01153759014703806
-0.6262393504467011,-0.051868348358845844
-0.6377002672231726,-0.08413295492829206
-0.6248067358496422,-0.10510494919843212
-0.574665224952579,-0.08413295492829206
-0.5445803184143411,-0.088972645913709
-0.5116301826819852,-0.08413295492829206
-0.49228988562168946,-0.09219910657065362
-0.44859514041139154,-0.08413295492829206
-0.41994284847021257,-0.10107187337725133
-0.38556009814079784,-0.08413295492829206
-0.3669361083790315,-0.05670803934426277
-0.3225250558702041,-0.01153759014703806
-0.2895749201378483,-0.01315082047551037
-0.2594900135996104,-0.01153759014703806
-0.2652204719878462,-0.01879712662516346
-0.2594900135996104,-0.01153759014703806
-0.24731278952460933,-0.04864188770190122
-0.19645497132901668,-0.08413295492829206
-0.14416453853636507,-0.11155787051232136
-0.07038488678782924,-0.08413295492829206
-0.010215073711353427,-0.07364695779322204
0.05568519775335819,-0.08413295492829206
0.0857701042915961,-0.1381761709321145
0.1187202400239519,-0.15672831970954607
0.15525191224895507,-0.16318124102343531
0.24407401726660985,-0.15672831970954607
0.3393428879710299,-0.19705907792135385
0.433179144078391,-0.2293236844908001
0.5048098739313384,-0.2688478275383717
0.6222842708901721,-0.3019190492720541
0.7734251108798912,-0.38177395053143354
0.9374594822431407,-0.4471097788345621
1.0427566551269734,-0.5019596100026207
1.126564609054922,-0.5197051436158161
1.205358411893164,-0.5616491321560962
1.315669735866703,-0.5923005083970702
1.412371221168182,-0.6366643424300586
1.5047748626784843,-0.6657024883425603
1.5685262122476074,-0.7173258588536743
1.6308449472196715,-0.7382978531238144
1.6645113902505568,-0.7479772350946482
1.6938799894902652,-0.7382978531238144
1.6817027654152643,-0.7745955355144413
1.6308449472196715,-0.8108932179050683
1.5126542429623084,-0.8383181334890977
1.3787047781372967,-0.8108932179050683
1.2246987089534598,-0.7996006056057622
1.063529566784328,-0.8108932179050683
0.8493536845240154,-0.8657430490731269
0.6222842708901721,-0.8834885826863224
0.4030942375401531,-0.8875216585075031
0.24407401726660985,-0.8834885826863224
0.10940824514306874,-0.9278524167193108
-0.007349844517235531,-0.9560839474675763
-0.14559715313342403,-0.9714096355880633
-0.2594900135996104,-0.9560839474675763
-0.34974473321432414,-0.9657633294384103
-0.38556009814079784,-0.9560839474675763
-0.41779392657462416,-0.954470717139104
-0.44859514041139154,-0.9560839474675763
-0.5152117191746326,-1.005287472485982
-0.574665224952579,-1.0286793122488302
-0.629104579640819,-1.0359388487269559
-0.6377002672231726,-1.0286793122488302
-0.642714418312879,-1.0722365311175828
-0.6377002672231726,-1.1012746770300843
-0.6505937985967032,-1.1133739044936266
-0.6377002672231726,-1.1012746770300843
-0.6326861161334664,-1.1383789745849475
-0.6377002672231726,-1.1738700418113384
-0.6828276270305296,-1.1964552664099508
-0.7007353094937664,-1.1738700418113384
-0.6864091635231769,-1.1746766569755744
-0.6377002672231726,-1.1738700418113384
-0.6255230431481716,-1.186775884439117
-0.6377002672231726,-1.1738700418113384
-0.6778134759408232,-1.1795163479609914
-0.7007353094937664,-1.1738700418113384
-0.7193592992555328,-1.1843560389464085
-0.7007353094937664,-1.1738700418113384
-0.6735156321496464,-1.1811295782894637
-0.6377002672231726,-1.1738700418113384
-0.6369839599246432,-1.1827428086179361
-0.6377002672231726,-1.1738700418113384
-0.6462959548055264,-1.1819361934536998
-0.6377002672231726,-1.1738700418113384
-0.642714418312879,-1.1819361934536998
-0.6377002672231726,-1.1738700418113384
-0.642714418312879,-1.1819361934536998
-0.6377002672231726,-1.1738700418113384
-0.6455796475069969,-1.1819361934536998
-0.6377002672231726,-1.1738700418113384
-0.6398491891187611,-1.1819361934536998
-0.6377002672231726,-1.1738700418113384
-0.6513101058952326,-1.1819361934536998
-0.6377002672231726,-1.1738700418113384
-0.6126295117746411,-1.1827428086179361
-0.574665224952579,-1.1738700418113384
-0.57323261035552,-1.1819361934536998
-0.574665224952579,-1.1738700418113384
-0.5653532300716958,-1.1827428086179361
-0.5116301826819852,-1.1738700418113384
-0.48655942723345363,-1.1819361934536998
-0.5116301826819852,-1.1738700418113384
-0.5782467614452264,-1.1835494237821722
-0.574665224952579,-1.1738700418113384
-0.5116301826819852,-1.1811295782894637
-0.44859514041139154,-1.1738700418113384
-0.4722332812628642,-1.186775884439117
-0.5116301826819852,-1.1738700418113384
-0.529537865145222,-1.1593509688550876
-0.5116301826819852,-1.1012746770300843
-0.5195095629658094,-1.0448116155335534
-0.5116301826819852,-0.9560839474675763
-0.48727573453198314,-0.8689695097300716
-0.44859514041139154,-0.7382978531238144
-0.43999945282903785,-0.6060129661890847
-0.38556009814079784,-0.4471097788345621
-0.25662478440549247,-0.3107918160786518
-0.07038488678782924,-0.15672831970954607
0.05783411964894661,-0.019603741789399616
0.1187202400239519,0.13365313941546997
0.1187202400239519,0.24657926240853176
0.1187202400239519,0.35224584892346816
0.10940824514306874,0.43613382600402834
0.1187202400239519,0.5700319432672302
0.10152886485924452,0.7111895970085574
0.05568519775335819,0.8604134023922462
-0.029555370771649225,0.962853528250238
-0.07038488678782924,1.0790061119002443
-0.07253380868341766,1.1846726984151807
-0.07038488678782924,1.2967922062440065
-0.14702976773048296,1.3605148042186628
-0.2594900135996104,1.4419829358065144
-0.3733828740657968,1.5347436796936724
-0.44859514041139154,1.6597690301502765
-0.5409987819216937,1.739623931409656
-0.6377002672231726,1.8057663748770207
-0.7329691379275928,1.8348045207895223
-0.7637703517643601,1.8783617396582746
-0.7358343671217106,1.900140349092651
-0.6377002672231726,1.9509571044395286
-0.5359846308319873,1.9864481716659195
-0.44859514041139154,2.0235524692207827
-0.39845362951432833,2.013873087249949
-0.3225250558702041,2.0235524692207827
-0.24946171142019774,2.0211326237280742
-0.19645497132901668,2.0235524692207827
-0.2229583413746072,1.9759621745308495
-0.2594900135996104,1.9509571044395286
-0.3203761339746157,1.9356314163190418
-0.38556009814079784,1.9509571044395286
-0.47868004694962946,1.9170792675416102
-0.5116301826819852,1.8783617396582746
-0.506616031592279,1.823511908490216
-0.5116301826819852,1.8057663748770207
-0.5889913709231684,1.7646290015009767
-0.6377002672231726,1.7331710100957667
-0.6362676526261137,1.6799344092561803
-0.6377002672231726,1.6597690301502765
-0.7386995963158285,1.6218581174311772
-0.8268053940349538,1.5871736653690225
-0.7480115911967117,1.5097386096023515
-0.38556009814079784,1.4419829358065144
0.23905986617690353,1.357288343561718
1.126564609054922,1.2967922062440065
2.183117874385896,1.2145174594919186
3.269039738956579,1.1516014766814984
4.15153033074489,1.0685201147651744
4.655094361611111,1.0064107471189905
4.565555949294927,0.921716154874194
3.8363551193919223,0.8604134023922462
2.683100368759469,0.7805585011328668
1.6308449472196715,0.7152226728297382
1.0305794310519723,0.6256883895995249
0.874424439972547,0.5700319432672302
0.8615309085990165,0.5167953424276439
0.8113893977019533,0.49743657848597617
0.6444897971445859,0.4530727444529876
0.3701441018077973,0.42484121370472216
-0.014512917502530271,0.37725091901478897
-0.38556009814079784,0.35224584892346816
-0.6498774912981737,0.30304232390506264
-0.7637703517643601,0.27965048414221416
-0.8117629407658349,0.25706525954360177
-0.8268053940349538,0.27965048414221416
-0.8576066078717212,0.28287694479915876
-0.8898404363055475,0.27965048414221416
-0.9442797909937876,0.2312535742880448
-0.9528754785761413,0.20705511936096013
-0.9349677961129044,0.18850297058352855
-0.8898404363055475,0.20705511936096013
-0.890556743604077,0.20140881321130705
-0.8898404363055475,0.20705511936096013
-0.8812447487231938,0.19414927673318164
-0.8268053940349538,0.20705511936096013
-0.7874084926158328,0.19898896771859856
-0.7637703517643601,0.20705511936096013
-0.7752312685408317,0.1949558918974178
-0.7637703517643601,0.20705511936096013
-0.7444300547040643,0.19898896771859856
-0.7007353094937664,0.20705511936096013
-0.6742319394481758,0.1949558918974178
-0.6377002672231726,0.20705511936096013
-0.6126295117746411,0.20060219804707088
-0.574665224952579,0.20705511936096013
-0.5517433913996358,0.19172943124047317
-0.5116301826819852,0.20705511936096013
-0.48297789074080627,0.2078617345251963
-0.44859514041139154,0.20705511936096013
-0.4321200725452136,0.1602714398352631
-0.38556009814079784,0.13365313941546997
-0.32897182155696936,0.1167142209665107
-0.2594900135996104,0.13365313941546997
-0.22797249246431353,0.12720021810158072
-0.19645497132901668,0.13365313941546997
-0.15777437720842508,0.1255869877731084
-0.07038488678782924,0.13365313941546997
0.01986983282688448,0.11994068162345531
0.1187202400239519,0.13365313941546997
0.20037927205631195,0.13607298490817843
0.3071090595372036,0.13365313941546997
0.4224345346004489,0.08525622956130062
0.5592492286195784,0.06105777463421595
0.682454083966648,0.05057177749914593
0.8113893977019533,0.06105777463421595
0.913821341391668,0.024760092243588945
1.0004945245137344,-0.01153759014703806
1.055650186500504,-0.05751465450849893
1.126564609054922,-0.08413295492829206
1.194613802415222,-0.13575632543940602
1.2526346935961092,-0.15672831970954607
1.259797766581404,-0.16640770168037994
1.2526346935961092,-0.15672831970954607
1.2103725629828703,-0.19221938693593693
1.126564609054922,-0.2293236844908001
0.9704096179754965,-0.2769139791807333
0.8113893977019533,-0.3019190492720541
0.6545180993239985,-0.3487027287977511
0.49621418634898473,-0.3745144140533081
0.2977970646563204,-0.41242532677240745
0.1187202400239519,-0.4471097788345621
-0.04316520944370923,-0.5277712952581777
-0.19645497132901668,-0.5923005083970702
-0.37911333245403256,-0.6479569547293649
-0.5116301826819852,-0.6657024883425603
-0.588275063624639,-0.705226631390132
-0.6377002672231726,-0.7382978531238144
-0.7394159036143579,-0.7850815326495113
-0.8268053940349538,-0.8108932179050683
-0.8576066078717212,-0.8552570519380569
-0.8268053940349538,-0.8834885826863224
-0.8389826181099549,-0.9270458015550748
-0.8898404363055475,-0.9560839474675763
-0.9507265566805528,-1.005287472485982
-0.9528754785761413,-1.0286793122488302
-0.946428712889376,-1.0456182306977897
-0.9528754785761413,-1.0286793122488302
-0.999435452980557,-1.031905772905775
-1.015910520846735,-1.0286793122488302
-1.0001517602790866,-1.042391770040845
-0.9528754785761413,-1.0286793122488302
-0.9435634836952581,-1.0278726970845942
-0.9528754785761413,-1.0286793122488302
-0.9707831610393781,-1.0706233007891104
-0.9528754785761413,-1.1012746770300843
-0.9442797909937876,-1.1238599016286968
-0.9528754785761413,-1.1012746770300843
-0.9972865310849687,-1.0948217557161952
-1.015910520846735,-1.1012746770300843
-1.0030169894732044,-1.1496715868842537
-0.9528754785761413,-1.1738700418113384
-0.9342514888143749,-1.186775884439117
-0.9528754785761413,-1.1738700418113384
-1.0044496040702633,-1.2021015725596038
-1.015910520846735,-1.2464654065925924
-0.9951376091893802,-1.3077681590745402
-0.9528754785761413,-1.3190607713738465
-0.9471450201879055,-1.321480616866555
-0.9528754785761413,-1.3190607713738465
-0.9664853172482013,-1.3618113750783627
-0.9528754785761413,-1.3916561361551003
-0.9342514888143749,-1.4126281304252404
-0.8898404363055475,-1.3916561361551003
-0.8547413786776034,-1.3714907570491965
-0.8268053940349538,-1.3190607713738465
-0.8318195451246602,-1.2795366283262748
-0.8268053940349538,-1.2464654065925924
-0.8268053940349538,-1.2585646340561347
-0.8268053940349538,-1.2464654065925924
-0.8454293837967202,-1.2214603365012715
-0.8268053940349538,-1.1738700418113384
-0.7909900291084802,-1.172256811482866
-0.7637703517643601,-1.1738700418113384
-0.7981531020937749,-1.187582499603353
-0.8268053940349538,-1.1738700418113384
-0.8203586283481885,-1.1811295782894637
-0.7637703517643601,-1.1738700418113384
-0.7265223722408275,-1.1811295782894637
-0.7007353094937664,-1.1738700418113384
-0.6993026948967075,-1.1891957299318254
-0.7007353094937664,-1.1738700418113384
-0.737983289017299,-1.1520914323769622
-0.7637703517643601,-1.1012746770300843
-0.7601888152717128,-1.0746563766102912
-0.7007353094937664,-1.0286793122488302
-0.6541753350893506,-0.9794757872304248
-0.6377002672231726,-0.8834885826863224
-0.6591894861790569,-0.7899212236349282
-0.6377002672231726,-0.6657024883425603
-0.547445547608459,-0.53987052272172
-0.38556009814079784,-0.3745144140533081
-0.25447586250990406,-0.2293236844908001
-0.19645497132901668,-0.08413295492829206
-0.2093485027025472,0.037665934871367435
-0.19645497132901668,0.20705511936096013
-0.16135591370107244,0.38531707065715054
-0.13341992905842295,0.5700319432672302
-0.16708637208930824,0.6869911420814727
-0.19645497132901668,0.7878180376109922
-0.20505065891137036,0.8765457056769693
-0.19645497132901668,1.0064107471189905
-0.24659648222607986,1.1169170246193436
-0.3225250558702041,1.2241968414627524
-0.40131885870844625,1.2903392849301172
-0.44859514041139154,1.3693875710252605
-0.5288215578466926,1.4323035538356805
-0.6377002672231726,1.5145783005877684
-0.7594725079731832,1.5766876682339523
-0.8268053940349538,1.6597690301502765
-0.8848262852158412,1.725104858453405
-0.9528754785761413,1.8057663748770207
-1.0137615989511466,1.8662625121947323
-0.9528754785761413,1.9509571044395286
-0.795287872899657,1.999354014293698
-0.6377002672231726,2.0235524692207827
-0.5739489176540495,2.0009672446221702
-0.5116301826819852,2.0235524692207827
-0.41564500467903576,2.060656766775646
-0.3225250558702041,2.0961478340020365
-0.3576241134981483,2.055817075790229
-0.44859514041139154,2.0235524692207827
-0.5195095629658094,2.005806935607587
-0.5116301826819852,2.0235524692207827
-0.5467292403099295,1.9896746323228642
-0.6377002672231726,1.9509571044395286
-0.7437137474055349,1.900140349092651
-0.7637703517643601,1.8783617396582746
-0.7551746641820064,1.8097994506982014
-0.7637703517643601,1.7331710100957667
-0.8124792480643643,1.6387970358801365
-0.8268053940349538,1.5871736653690225
-0.8540250713790738,1.5161915309162408
-0.9528754785761413,1.4419829358065144
-1.1040163185658602,1.3427692706054672
-1.015910520846735,1.2967922062440065
-0.41564500467903576,1.2580746783606709
0.6853193131607659,1.2241968414627524
1.8550491316593969,1.1370824037252476
2.764759400791829,1.0790061119002443
3.488229772306598,1.0322224323745475
4.276884107987549,1.0064107471189905
4.835603800840539,0.9257492306953748
4.529024277069923,0.8604134023922462
3.211018847775691,0.8071768015526599
1.6938799894902652,0.7878180376109922
0.8264318509710722,0.7184491334866828
0.6853193131607659,0.6426273080484842
0.7168368342960627,0.5506731793255625
0.6222842708901721,0.49743657848597617
0.44249113895927417,0.4401669018252091
0.24407401726660985,0.42484121370472216
-0.0882925692510661,0.39418983746374825
-0.5116301826819852,0.35224584892346816
-0.8504435348864264,0.25787187470783796
-0.9528754785761413,0.20705511936096013
-0.9213579574408444,0.19011620091200085
-0.8898404363055475,0.20705511936096013
-0.944996098292317,0.16833759147762464
-1.015910520846735,0.13365313941546997
-1.0717824901320339,0.10945468448838529
-1.0789455631173286,0.13365313941546997
-1.0932717090879183,0.13203990908699764
-1.0789455631173286,0.13365313941546997
-1.056740036862915,0.11913406645921916
-1.015910520846735,0.13365313941546997
-1.0180594427423233,0.12800683326581688
-1.015910520846735,0.13365313941546997
-1.000868067577616,0.12074729678769147
-0.9528754785761413,0.13365313941546997
-0.9249394939334917,0.12800683326581688
-0.8898404363055475,0.13365313941546997
-0.8619044516628981,0.12074729678769147
-0.8268053940349538,0.13365313941546997
-0.8282380086320128,0.13042667875852534
-0.8268053940349538,0.13365313941546997
-0.8167770918555411,0.11429437547380222
-0.7637703517643601,0.13365313941546997
-0.7071820751805317,0.16188467016373542
-0.6377002672231726,0.20705511936096013
-0.5997359804011105,0.2054418890324878
-0.574665224952579,0.20705511936096013
-0.5660695373702253,0.1965691222258901
-0.5116301826819852,0.20705511936096013
-0.44501360391874417,0.1747905127915139
-0.38556009814079784,0.13365313941546997
-0.36980133757314937,0.07557684759046675
-0.3225250558702041,0.06105777463421595
-0.23943340924078513,0.052185007827618236
-0.13341992905842295,0.06105777463421595
-0.07396642328047662,0.028793168064769725
-0.007349844517235531,-0.01153759014703806
0.09221686997836136,-0.06961388197204127
0.24407401726660985,-0.08413295492829206
0.3780234820916215,-0.09139249140641748
0.49621418634898473,-0.08413295492829206
0.587185213262228,-0.12043063731891908
0.6853193131607659,-0.15672831970954607
0.7705598816857733,-0.20673845989218773
0.874424439972547,-0.2293236844908001
0.971125925274026,-0.27046105786684405
1.063529566784328,-0.3019190492720541
1.123699379860804,-0.35192918945469576
1.1895996513255156,-0.3745144140533081
1.2383085476255198,-0.4140385571008797
1.2526346935961092,-0.4471097788345621
1.1795713491461028,-0.5027662251668569
1.063529566784328,-0.5197051436158161
0.9281474873622576,-0.5285779104224139
0.8113893977019533,-0.5197051436158161
0.6652627088019406,-0.5551962108422069
0.49621418634898473,-0.5923005083970702
0.2963644500592615,-0.643117263743948
0.1187202400239519,-0.6657024883425603
-0.05176089702606292,-0.7068398617186042
-0.19645497132901668,-0.7382978531238144
-0.34043273833344095,-0.7875013781422198
-0.44859514041139154,-0.8108932179050683
-0.5495944695040473,-0.8310585970109722
-0.6377002672231726,-0.8108932179050683
-0.7465789765996528,-0.8044402965911791
-0.8268053940349538,-0.8108932179050683
-0.8798121341261349,-0.8617099732519461
-0.8898404363055475,-0.8834885826863224
-0.917776420948197,-0.8915547343286839
-0.9528754785761413,-0.8834885826863224
-1.0030169894732044,-0.9205928802411855
-1.015910520846735,-0.9560839474675763
-1.0202083646379119,-1.000447781500565
-1.015910520846735,-1.0286793122488302
-1.0481443492805613,-1.0811092979241805
-1.0789455631173286,-1.1012746770300843
-1.1033000112673308,-1.109340828672446
-1.0789455631173286,-1.1012746770300843
-1.045995427384973,-1.140798820077656
