ECG,PPG
-0.6185784118877162,-3.4229820552233106
-0.7774578788517544,-1.2873801218996748
-0.7973910961092352,-1.0319329367101464
-0.7586972037858901,-1.607085760506445
-0.7440404263906837,-1.8284204333880552
-0.7510756795403828,-1.605499132027007
-0.7317287333787102,-1.4428697128846053
-0.6842407746182413,-1.5721799339588076
-0.6572723042110613,-1.7189430683068285
-0.6731016237978843,-1.6753107851222817
-0.6936211121511734,-1.5483805067672365
-0.6701702683188431,-1.5658334200410553
-0.6080255321631676,-1.6729308424031246
-0.5552611335404243,-1.7086299831904812
-0.5335691029955187,-1.6491314152115537
-0.5247750365583947,-1.6451648440129585
-0.504841819300914,-1.7006968407932908
-0.4737694512230763,-1.727669524943738
-0.4462147097200881,-1.68483055599891
-0.4362481010913477,-1.6697575854442486
-0.44035199876200554,-1.6911770699166624
-0.43273047451649815,-1.7141831828685143
-0.38817387123507047,-1.6927636983961005
-0.32427032179197024,-1.6919703841563816
-0.2914391404267077,-1.6919703841563816
-0.30140574905544815,-1.7062500404713241
-0.30844100220514725,-1.6919703841563816
-0.2779549052231178,-1.6935570126358195
-0.23046694646264881,-1.6951436411152576
-0.19646322290576979,-1.7252895822245808
-0.17008102359439814,-1.7371892958203663
-0.13666357113332736,-1.756228837573623
-0.10441866086387312,-1.7609887230119372
-0.07451883497765191,-1.7927212926006986
-0.02644460512137468,-1.8093808916347982
0.03511385993849251,-1.830007061867493
0.0638411436330972,-1.8323870045866502
0.04566673966304117,-1.8601530029768163
0.04508046856723291,-1.878399230490354
0.11250164458518269,-1.9061652288805202
0.19457959799833896,-1.9045786004010823
0.19047570032768113,-1.9164783139968677
0.08494690308219452,-1.9133050570379915
-0.018236809780059055,-1.923618142154339
-0.014132912109401242,-1.9117184285585536
0.09432724061512666,-1.923618142154339
0.21451281525581975,-1.9394844269487197
0.27607128031568695,-1.9799434531743902
0.28486534675281083,-1.9823233958935473
0.28310653346538606,-1.9775635104552332
0.2854516178486191,-1.9601105971814146
0.28486534675281083,-1.969630368058043
0.28193399127376956,-1.943450998147315
0.2795889068905365,-1.9093384858393965
0.2596556896330557,-1.8641195741754115
0.20278739333965456,-1.8617396314562544
0.11836435554326528,-1.8292137476277741
0.038045215417533806,-1.77526837932688
-0.025272062929758164,-1.6895904414372245
-0.07803646155250148,-1.6459581582526777
-0.13197340236686128,-1.5872529045134691
-0.19353186742672848,-1.5095081090210039
-0.2662294833069526,-1.3801978879468015
-0.3377545569955602,-1.288966750379113
-0.38817387123507047,-1.2088420121674905
-0.41396979945063384,-1.1104710464423306
-0.4374206432829642,-0.8867564308415633
-0.4743557223188845,-0.6043365615015877
-0.5095319880673801,-0.32588326336020723
-0.5218436810793535,-0.1331079031084823
-0.5153946990254626,0.05808082866380457
-0.5153946990254626,0.23578321836086788
-0.534155374091327,0.3888928666266412
-0.5576062179236573,0.46187777668079216
-0.5681590976482059,0.5634219993648284
-0.5699179109356307,0.699872048596502
-0.5822296039476041,0.8442552402253659
-0.6086118032589758,0.9061337509234505
-0.6308901048996897,0.9886384318542298
-0.636166544761964,1.113982081729837
-0.6349940025703474,1.2678850442353293
-0.6414429846242383,1.3408699542894804
-0.6502370510613622,1.404335093467003
-0.6473056955823209,1.48049326048003
-0.6355802736661558,1.5788642262051902
-0.6279587494206483,1.6082168530747945
-0.6349940025703474,1.6391561084238366
-0.651995864348787,1.6899282197658547
-0.6701702683188431,1.7827459858129815
-0.6783780636601586,1.8232050120386523
-0.6707565394146513,1.8557308958671326
-0.6484782377739374,1.8763570660998274
-0.6256136650374153,1.9263358632021266
-0.6209234962709492,1.9350623198390358
-0.6414429846242383,1.9493419761539785
-0.665480099552377,1.9533085473525735
-0.6684114550314183,1.9921809450988062
-0.6478919666781292,2.004080658694592
-0.6308901048996897,2.0247068289272865
-0.6285450205164567,2.0199469434889723
-0.6285450205164567,2.0413664279613863
-0.617992140791908,2.0358132282833528
-0.6138882431212501,2.0429530564408243
-0.6250273939416071,2.0255001431670054
-0.6349940025703474,2.03819317100251
-0.6256136650374153,2.034226599803915
-0.6150607853128667,2.0469196276394195
-0.6238548517499906,2.0239135146875675
-0.6461331533907044,2.0175670007698154
-0.6484782377739374,1.9913876308590872
-0.620337225175141,1.989801002379649
-0.5828158750434125,1.9572751185511688
-0.5646414710733564,1.9350623198390358
-0.5746080797020968,1.888256779695613
-0.6050941766841262,1.8692172379423562
-0.636166544761964,1.8279648974769664
-0.6525821354445952,1.8001988990868003
-0.6449606111990879,1.746253530785906
-0.6191646829835245,1.7248340463134921
-0.5834021461392207,1.6883415912864166
-0.5505709647739582,1.6645421640948457
-0.5335691029955187,1.6074235388350753
-0.5400180850494095,1.5812441689243473
-0.5517435069655747,1.5471316566164288
-0.5452945249116838,1.5272988006234531
-0.5247750365583947,1.4670069184048065
-0.5212574099835452,1.4376542915352024
-0.5482258803907252,1.40671503618616
-0.5775394351811381,1.3868821801931843
-0.5710904531272473,1.3131039558993143
-0.5312240186122856,1.260745216077858
-0.4966340239595984,1.20997310473584
-0.49722029505540666,1.184587049064831
-0.52301622327097,1.1187419671681513
-0.5394318139536013,1.0774896267027616
-0.5159809701212709,1.0425838001551242
-0.439179456570389,1.0370306004770908
-0.3107860865883803,0.9926050030528251
-0.15249289072015035,0.9711855185804111
-0.011787827726168206,0.9497660341079973
0.05915097486663113,0.9545259195463115
0.05797843267501461,0.9108936363617647
0.026906064597176885,0.8751944955744082
0.00697284733969608,0.8323555266295805
0.004627762956463044,0.823629069992671
0.04273538418399988,0.7855499864861575
0.16292095882469296,0.7641305020137437
0.36577075797435055,0.7323979324249823
0.5586539484952677,0.7347778751441394
0.6413181730042323,0.7165316476306016
0.590898858764722,0.7212915330689159
0.4642643020701381,0.7133583906717256
0.32766313674681374,0.726844732746949
0.24030874347138315,0.7085985052334114
0.2279970504594097,0.700665362836221
0.24851653881269878,0.6689327932474597
0.20044230895642154,0.6641729078091455
0.03570013103430077,0.6435467375764506
-0.18239271660637157,0.6490999372544839
-0.33951337028298495,0.6395801663778555
-0.39638166657638607,0.65227319421336
-0.4022443775344687,0.6379935378984174
-0.42100505260033294,0.6324403382203843
-0.4450421675284716,0.601501082871342
-0.44855979410332114,0.5959478831933087
-0.4462147097200881,0.5737350844811758
-0.4808047043727754,0.5658019420839855
-0.557019946827849,0.5324827440157861
-0.5986451946302355,0.5237562873788767
-0.5998177368218519,0.5039234313859009
-0.5974726524386189,0.4983702317078677
-0.6127157009296337,0.46346440516023024
-0.5945412969595776,0.4523580058041638
-0.5353279162829435,0.432525149811188
-0.5013241927260644,0.42935189285231184
-0.5329828318997104,0.39365275206495537
-0.5546748624446161,0.38095972422945085
-0.49897910834283143,0.36192018247619406
-0.4591126738278698,0.359540239757037
-0.6637212862649522,0.32463441320939956
-1.2066083209834,0.31035475689445696
-1.8468163576060188,0.2905219009014811
-2.163989020438287,0.2897285866617621
-1.8532653396599097,0.2540294458744056
-0.7575246615942736,0.238956475319744
1.2416597751118894,0.21991693356648723
3.9068481766562346,0.21833030508704918
6.202685787841377,0.1826311642996927
6.764333497625689,0.16914482222446914
5.221267973458351,0.1508985947109314
2.7401686959977996,0.1485186519917743
0.8922422020101671,0.1025064260880704
0.2397224723755749,0.06998054225959006
0.296590768668976,0.033488087232514556
0.4765759950821115,0.020001745157291
0.5897263165731055,-0.023630538027255794
0.6102458049263946,-0.04346339402023161
0.4824387060401941,-0.0648828784926455
0.23561857470491707,-0.0648828784926455
0.02866487788460166,-0.10375527623887809
-0.031134773887840753,-0.13469453158792036
0.004041491860654785,-0.1767401862930291
0.010490473914545634,-0.19260647108740975
-0.05868951539082892,-0.2330654973130804
-0.15542424619919165,-0.25369166754577527
-0.20408474715127714,-0.2798710374565033
-0.19822203619319456,-0.2814576659359414
-0.1806339033189468,-0.3131902355247027
-0.16070068606146598,-0.33936960543543077
-0.14545763757045124,-0.3853818313391347
-0.13197340236686128,-0.40680131581154855
-0.16070068606146598,-0.4440870850783431
-0.20818864482193497,-0.4623333125918809
-0.2322257597500736,-0.4948591964203612
-0.21698271125905885,-0.5004123960983944
-0.18825542756445415,-0.5242118232899654
-0.16832221030697336,-0.5440446792829412
-0.16070068606146598,-0.5924368479058022
-0.14838899304949255,-0.6178229035768112
-0.1190754382590796,-0.6527287301244487
-0.07041493730699411,-0.6773214715557387
-0.021754436354908608,-0.732853468336071
0.003455220764846526,-0.7629994094453942
0.0005238652858052314,-0.7947319790341555
-0.004166303480660841,-0.8082183211093791
0.016353184872628223,-0.8494706615747688
0.07146266787860457,-0.8645436321294304
0.149436723621103,-0.8804099169238111
0.22916959265102624,-0.8883430593210014
0.27665755141149523,-0.9383218564233005
0.2713811115492209,-0.9732276829709379
0.23151467703425926,-1.0057535667994182
0.20982264648935367,-1.0184465946349228
0.2321009481300675,-1.0612855635797505
0.280761449082153,-1.0803251053330072
0.3223866968845394,-1.0961913901273879
0.359908047016268,-1.098571332846545
0.4068097346809287,-1.145376872989968
0.457229048920439,-1.1818693280170434
0.48771514590246845,-1.216775154564681
0.49709548343540055,-1.2286748681604664
0.4982680256270171,-1.271513837105294
0.5058895498725244,-1.293726635817427
0.5234776827467722,-1.3119728633309649
0.5580676773994595,-1.311179549091246
0.6055556361599285,-1.3508452610771975
0.6548024082078222,-1.387337716104273
0.6958413849144004,-1.4270034280902246
0.7386391749084033,-1.4404897701654482
0.7955074712018044,-1.4841220533499948
0.8641011894113707,-1.5245810795756656
0.9209694857047718,-1.5737665624382455
0.9502830404951847,-1.5872529045134691
0.9473516850161434,-1.6166055313830734
0.9250733833754297,-1.6388183300952064
0.8975186418724415,-1.679277356320877
0.8811030511898102,-1.68483055599891
0.885206948860468,-1.6919703841563816
0.9092440637886067,-1.6856238702386293
0.9309360943335122,-1.707836668950762
0.9262459255670461,-1.704663411991886
0.8898971176269341,-1.6991102123138528
0.8441679721538898,-1.6705508996839675
0.8160269595550934,-1.6768974136017198
0.8043015376389283,-1.6713442139236867
0.772056627369474,-1.6443715297732395
0.6946688427227838,-1.530927593493418
0.5967615697228046,-1.3984441154603393
0.5293403937048549,-1.2588208092697897
0.49592294124378405,-1.1548966438665964
0.4507800668665481,-1.0136867091966086
0.37163346893243315,-0.879616602684092
0.3024534796270586,-0.7629994094453942
0.27665755141149523,-0.7035008414664667
0.26844975607017957,-0.5916435336660831
0.23034213484264274,-0.4448803993180621
0.17288756745343337,-0.296530636490603
0.12598587978877265,-0.22116578371729492
0.09315469842351015,-0.11168841863606842
0.057392161579206354,0.04062791538998585
0.02456098021394385,0.20325733453238753
-0.003580032384852581,0.28100213002485275
-0.028789689504607717,0.37540652455141765
-0.035238671558498566,0.5102699453036532
0.017525727064244743,0.6649662220488646
0.10898401801033314,0.7331912466647014
0.15002299471691127,0.8045895282394143
0.0867057163696193,0.9085136936426076
-0.01647799649263428,1.0449637428742813
-0.07041493730699411,1.1076355678120848
-0.06279341306148674,1.1655475073115742
-0.039342569229156375,1.237739103126006
-0.012374098821976466,1.3384900115703233
0.0280786067887934,1.3733958381179607
0.06735877020794676,1.40671503618616
0.07029012568698804,1.451933947850145
0.036872673225917287,1.5415784569383957
-6.240581000302757e-05,1.5875906828420996
-0.011201556630359948,1.6272563948280512
0.004627762956463044,1.648675879300465
0.034527588842684254,1.697068047923326
0.053874535004356794,1.7089677615191115
0.044494197471424655,1.7272139890326492
0.011663016106162152,1.7295939317518063
-0.011787827726168206,1.7644997582994437
-0.012374098821976466,1.7763994718952294
-0.01061528553455169,1.8017855275662384
-0.031134773887840753,1.7994055848470814
-0.06162087086987022,1.818445126600338
-0.0733462927860354,1.8128919269223047
-0.0674835818279528,1.8255849547578094
-0.07627764826507669,1.8081320414839905
-0.12259306483392915,1.8033721560456764
-0.18415152989379635,1.7724329006966342
-0.2076023737261267,1.768466329498039
-0.15952814386984945,1.7438735880667489
-0.06865612401956933,1.7367337599092776
-0.02116816525910035,1.7026212476013594
-0.0803815459357345,1.696274733683607
-0.20173966276804411,1.674061934971474
-0.26681575440276084,1.668508735293441
-0.21874152454648363,1.6328095945060843
-0.12317933592973741,1.6264630805883322
-0.07217375059441888,1.6050435961159182
-0.07686391936088495,1.5931438825201327
-0.10735001634291441,1.5399918284589575
-0.14721645085787602,1.5138124585482295
-0.18356525879798807,1.48049326048003
-0.18591034318122113,1.4606604044870544
-0.17242610797763117,1.3995752080286887
-0.1876691564686459,1.3694292669193655
-0.20818864482193497,1.3392833258100423
-0.14604390866625952,1.3210370982965045
-0.03992884032496464,1.2488455024820726
-0.063379684157295,1.1949001341811785
-0.2685745676901856,1.1441280228391604
-0.4532499628697872,1.1187419671681513
-0.4133835283548256,1.0521035710317526
-0.19704949400157803,1.0100579163266437
0.0022826785732300084,0.9759454040187253
0.11484672896841573,0.968012261621535
0.19633841128576374,0.9140668933206408
0.2719673826450291,0.8728145528552511
0.30597110620190815,0.8323555266295805
0.2936594131899347,0.8252156984721092
0.27665755141149523,0.7847566722464385
0.2801751779863448,0.7617505592945866
0.3176965281180733,0.7339845609044204
0.427915494130026,0.7387444463427346
0.6401456308126158,0.7101851337128494
0.8910696598185506,0.6943188489184687
1.030015909525108,0.6657595362885835
0.94852422720776,0.6657595362885835
0.7058079935431407,0.6387868521381365
0.48888768809408495,0.6260938243026319
0.43846837385457466,0.5959478831933087
0.5152698874054567,0.5927746262344326
0.5598264906868843,0.5681818848031426
0.46485057316594636,0.5578687996867951
0.2578968763456309,0.5253429158583148
0.03863148651334206,0.5197897161802816
-0.11790289606746308,0.4967836032284296
-0.19646322290576979,0.48964377507095835
-0.22519050660037446,0.4555312627630399
-0.24219236837881397,0.44601149188641154
-0.25567660358240396,0.4253853216537167
-0.25802168796563696,0.432525149811188
-0.24688253714528005,0.4198321219756835
-0.23046694646264881,0.4309385213317499
-0.23398457303749837,0.4214187504551215
-0.24570999495366352,0.4230053789345596
-0.3060959178219142,0.3912728093457983
-0.4022443775344687,0.37937309575001277
-0.47025182464822674,0.3571602970378799
-0.4286265768458403,0.36112686823647505
-0.3248565928877785,0.34605389768181344
-0.28968032713928293,0.35636698279816087
-0.36237794301950704,0.35160709735984663
-0.4157286127380586,0.3547803543187228
-0.35417014767819144,0.3230477847299615
-0.2890940560434747,0.31194138537389504
-0.48256351766020017,0.2913152151412002
-1.0383485164864297,0.2889352724220431
-1.716077903240777,0.2532361316346866
-2.0742895427796233,0.23974978955946305
-1.7436326447437651,0.2191236193267682
-0.4737694512230763,0.21833030508704918
1.8625208655728358,0.18421779277913075
4.899405141859617,0.16914482222446914
7.415680685068665,0.1485186519917743
7.9491873822541805,0.14772533775205526
6.1721996908593475,0.11519945392357492
3.369237581800061,0.1001264833689133
1.2264167266208748,0.07791368465678039
0.3763236376988992,0.07712037041706135
0.3528727938665689,0.04618111506801908
0.5369619179503622,0.031108144513357458
0.6811846075191939,0.008102031561505511
0.7210510420341555,0.006515403082067446
0.6055556361599285,-0.024423852266974827
0.39156668618991397,-0.038703508581917415
0.23034213484264274,-0.06170962153376936
0.18637180265702333,-0.06329625001320743
0.18285417608217377,-0.0989953908005639
0.13008977745943046,-0.12676138919073004
0.038045215417533806,-0.17118698661499587
-0.03582494265430682,-0.19022652836825266
-0.06924239511537758,-0.22830561187476622
-0.10676374524710616,-0.247345153628023
-0.16949475249858986,-0.2790777232167843
-0.19646322290576979,-0.28463092289481756
-0.15073407743272557,-0.30763703584666946
-0.058103244295020666,-0.3179501209630169
-0.03230731607945727,-0.3480960620723402
-0.08214035922315928,-0.35364926175037337
-0.13842238442075214,-0.3782420031816634
-0.12904204688782,-0.3972815449349202
-0.06396595525310325,-0.4464670277975002
-0.0024074901932360634,-0.4726463977082283
-0.0018212190974278045,-0.5067589100161467
-0.06279341306148674,-0.5226251948105274
-0.1401811977081769,-0.560704278317041
-0.17008102359439814,-0.5718106776731073
-0.1302145890794365,-0.5900569051866451
-0.04520528018723897,-0.6019566187824306
0.04039029980076684,-0.6527287301244487
0.1066389336271001,-0.68446129971321
0.149436723621103,-0.7169871835416903
0.17581892293247467,-0.7304735256169139
0.18754434484863985,-0.7725191803220226
0.19457959799833896,-0.7891787793561224
0.20220112224384632,-0.8050450641505029
0.21920298402228583,-0.8098049495888171
0.24851653881269878,-0.8589904324513972
0.2936594131899347,-0.8946895732387536
0.34231991414202023,-0.929595399786391
0.3827726197527901,-0.9407017991424576
0.40974109015997,-0.9827474538475662
0.4367095605671499,-1.00416693831998
0.4636780309743298,-1.023206480073237
0.47892107946534457,-1.0224131658335178
0.47423091069887846,-1.0549390496619981
0.4695407419324124,-1.072391962935817
0.48830141699827667,-1.0914315046890737
0.5340305624713209,-1.0922248189287929
0.5832773345192146,-1.1326838451544634
0.620212413555135,-1.166003043222663
0.6413181730042323,-1.2064620694483335
0.6583200347826718,-1.2215350400029952
0.6776669809443443,-1.2596141235095086
0.7093256201179903,-1.2826202364613606
0.753882223399418,-1.3095929206118078
0.8054740798305448,-1.3103862348515267
0.8400640744832321,-1.3349789762828168
0.8429954299622734,-1.3500519468374783
0.8224759416089843,-1.3786112594673636
0.814854417363477,-1.3833711449056778
0.8394778033874238,-1.4063772578575298
0.882861864477235,-1.4190702856930342
0.9045538950221406,-1.4492162268023574
0.8893108465311258,-1.4555627407201097
0.8506169542077807,-1.4793621679116806
0.8189583150341347,-1.4991950239046565
0.8078191642137779,-1.5515537637261128
0.8136818751718604,-1.583286333314874
0.8183720439383265,-1.6118456459447592
0.799025097776654,-1.6023258750681308
0.7321901928545124,-1.6031191893078498
0.6178673291719019,-1.584872961794312
0.4918190435731262,-1.5753531909176837
0.4056371924893122,-1.5301342792536987
0.3692883845492001,-1.5007816523840947
0.34759635400429456,-1.4690490827953333
0.3030397507228669,-1.4555627407201097
0.2496890810043153,-1.388924344583711
0.21627162854324453,-1.3127661775706838
0.21040891758516195,-1.2366080105576567
0.20571874881869587,-1.2017021840100193
0.18930315813606463,-1.117610874599802
0.16995621197439206,-1.0128933949568895
0.15354062129176083,-0.9097625437934153
0.11191537348937443,-0.8669235748485875
0.017525727064244743,-0.7788656942397749
-0.10969510072614745,-0.6487621589258535
-0.19529068071415326,-0.5107254812147418
-0.1876691564686459,-0.4512269132358144
-0.10383238976806486,-0.3663422895858779
-0.01061528553455169,-0.23703206851167558
0.04918436623789073,-0.08709567720477841
0.06735877020794676,-0.020457281068379664
0.059737245962439386,0.0564942001843665
0.043321655279808136,0.1754913361422214
0.038045215417533806,0.3309809271271518
0.04625301075884943,0.4134856080579312
0.057392161579206354,0.4864705181120822
0.06325487253728894,0.5729417702414568
0.07087639678279631,0.6903522777198736
0.07791164993249541,0.7474709029796439
0.06677249911213849,0.798243014321662
0.030423691172026437,0.8537750111019943
-0.007097658959702135,0.945006148669683
-0.021754436354908608,0.991811688813106
-0.022926978546525128,1.0346506577579337
-0.041687653612389415,1.0655899131069761
-0.09034815456447491,1.1274684238050605
-0.14721645085787602,1.1576143649143837
-0.1847378009896046,1.1917268772223022
-0.19294559633092023,1.206799847776964
-0.18591034318122113,1.2472588740026345
-0.18239271660637157,1.260745216077858
-0.19646322290576979,1.284544643269429
-0.2275355909836075,1.286924585988586
-0.2662294833069526,1.3154838986184714
-0.2978881224805986,1.3273836122142568
-0.3178213397380794,1.356736239083861
-0.33834082809136845,1.3599094960427371
-0.37410336493567226,1.3765690950768368
-0.4245226791751825,1.3710158953988036
-0.46380284259433585,1.3860888659534651
-0.47083809574403496,1.3749824665973989
-0.45442250506140375,1.3718092096385226
-0.44562843862427987,1.3400766400497612
-0.46380284259433585,1.3337301261320091
-0.5042555482051058,1.3131039558993143
-0.5435357116242591,1.305964127741843
-0.5710904531272473,1.2694716727147675
-0.5898511281931116,1.2623318445572962
-0.6115431587380171,1.2440856170437584
-0.6373390869535805,1.232979217687692
-0.6537546776362118,1.1798271636265167
-0.6402704424326218,1.1520611652363506
-0.5904373992889198,1.1203285956475892
-0.5083594458757635,1.1012890538943325
-0.39814047986381085,1.040997171675686
-0.28029998960635083,1.0068846593677676
-0.20232593386385236,0.9759454040187253
-0.20936118701355147,0.9624590619435018
-0.27854117631892605,0.9021671797248553
-0.3272016772710115,0.8656747246977798
-0.2978881224805986,0.8331488408692995
-0.210533729205168,0.822042441513233
-0.09386578113932446,0.7641305020137437
0.06208233034567242,0.725258104267511
0.26317331620790524,0.6911455919595926
0.43084684960906733,0.6816258210829642
0.457229048920439,0.626887138542351
0.31476517263903203,0.5872214265563993
0.10077622266901752,0.5491423430498857
-0.05282680443274634,0.5388292579335383
-0.07803646155250148,0.4880571465915203
-0.028203418408799457,0.44918474884528764
-0.02644460512137468,0.4063457799004599
-0.16421831263631553,0.39444606630467444
-0.40693454630093473,0.3500204688804086
-0.6344077314745392,0.31273469961361405
-0.7528344928278076,0.26354921675103404
-0.7803892343307957,0.24768293195665336
-0.7909421140553444,0.21277710540901593
-0.8319810907619225,0.19294424941604013
-0.8747788807559254,0.15724510862868366
-0.8917807425343649,0.15248522319036945
-0.8958846402050227,0.1318590529576746
-0.9169903996541201,0.12471922480020331
-0.9568568341690816,0.08981339825256587
-0.9586156474565064,0.07870699889649942
-0.9457176833487247,0.0588741429035236
-0.962133274031356,0.06760059954043296
-1.020760383612182,0.05490757170492844
-1.0571091915522939,0.06284071410211876
-1.0418661430612792,0.05332094322549037
-1.019001570324757,0.0660139710609949
-1.0236917390912232,0.05570088594464747
-1.014311401558291,0.0636340283418378
-0.9662371717020138,0.054114257465209405
-0.9762037803307542,0.06522065682127587
-1.2083671342708246,0.05490757170492844
-1.7014211258455705,0.06442734258155683
-2.2560335824801836,0.05490757170492844
-2.553859299150779,0.06522065682127587
-2.300003914665803,0.05490757170492844
-1.2259552671450724,0.06442734258155683
0.8758266113275359,0.05570088594464747
3.748554980788005,0.06442734258155683
6.32287136248207,0.05332094322549037
7.199346650715417,0.0636340283418378
5.870270076518094,0.05570088594464747
3.291849797153371,0.06442734258155683
1.0476040423993558,0.05173431474605231
0.0016964074774217493,0.06284071410211876
-0.07745019045669321,0.05808082866380457
0.14709163923786997,0.0660139710609949
0.2825202623695778,0.04062791538998585
0.2754850092198787,0.02872820179420036
0.17347383854924162,0.0033421461231913155
-0.006511387863893876,0.0009622034040342173
-0.2175689823548671,-0.018077338349222566
-0.371172009456631,-0.010937510191751272
-0.41162471506740084,-0.014904081390346435
-0.3905189556183035,-0.0037976820342799787
-0.38993268452249524,-0.026803794986131925
-0.4321442034206899,-0.03711688010247935
-0.4667341980733772,-0.0625029357734884
-0.4761145356063093,-0.06567619273236452
-0.48432233094762495,-0.09344219112253067
-0.49897910834283143,-0.10534190471831616
-0.518326054504504,-0.13390121734820135
-0.5224299521751617,-0.13866110278651553
-0.5370867295703683,-0.16325384421780553
-0.5511572358697665,-0.174360243573872
-0.547639609294917,-0.20529949892291427
-0.5236024943667783,-0.21164601284066653
-0.5013241927260644,-0.23385881155279944
-0.5036692771092974,-0.24337858242942784
-0.518326054504504,-0.27511115201818914
-0.5101182591631883,-0.2830442944153795
-0.473183180127268,-0.30446377888779336
-0.4374206432829642,-0.31160360704526463
-0.42628149246260727,-0.344922805113464
-0.4227638658877577,-0.35444257599009243
-0.407520817396743,-0.37427543198306823
-0.39169149780992,-0.3798286316611015
-0.3852425157560292,-0.4139411439690199
-0.37527590712728875,-0.42584085756480533
-0.35123879219915016,-0.4448803993180621
-0.3348232015165189,-0.44964028475637635
-0.3348232015165189,-0.48454611130401376
-0.32427032179197024,-0.4956525106600802
-0.2908528693308995,-0.513898738173618
-0.2767823630315013,-0.5234185090502463
-0.33247811713328584,-0.5733973061525455
-0.43448928780392293,-0.6059231899810258
-0.49722029505540666,-0.6400357022889441
-0.4620440293069111,-0.6527287301244487
-0.3518250632949584,-0.6947743848295574
-0.23750219961234792,-0.7146072408225332
-0.16949475249858986,-0.732060154096352
-0.13959492661236866,-0.732060154096352
-0.10676374524710616,-0.7661726664042704
-0.046964093474663744,-0.78283226543837
0.01928454035166952,-0.8010784929519078
0.055047077195973314,-0.8034584356710649
0.055047077195973314,-0.8462974046158926
0.05211572171693202,-0.88120323116353
0.07263521007022108,-0.9192823146700436
0.11250164458518269,-0.9327686567452672
0.15354062129176083,-0.9716410544914998
0.18344044717798202,-0.9946471674433518
0.20278739333965456,-1.0192399088746418
0.2080638332019289,-1.0192399088746418
0.20571874881869587,-1.0454192787853698
0.21040891758516195,-1.0620788778194696
0.23092840593845101,-1.0890515619699166
0.2520341653875483,-1.0914315046890737
0.2590694185372474,-1.1160242461203638
0.25555179196239786,-1.1303039024353063
0.2596556896330557,-1.1588632150651916
0.2666909427827548,-1.1636231005035058
0.2537929786749731,-1.1866292134553578
0.20513247772288762,-1.1985289270511432
0.13771130170493784,-1.2302614966399044
0.07791164993249541,-1.2374013247973759
0.03511385993849251,-1.2580274950300705
-0.012374098821976466,-1.26675395166698
-0.08507171470220058,-1.3000731497351794
-0.18004763222313852,-1.3127661775706838
-0.26681575440276084,-1.3310124050842216
-0.32368405069616196,-1.3230792626870314
-0.357687774253041,-1.3341856620430976
-0.3875876001392622,-1.3294257766047834
-0.42510895027099077,-1.338945547481412
-0.46321657149852763,-1.3238725769267503
-0.4978065661512149,-1.3310124050842216
-0.531810289708094,-1.3310124050842216
-0.5664002843607812,-1.3444987471594452
-0.5869197727140703,-1.314352806050122
-0.5851609594266455,-1.2857934934202369
-0.5710904531272473,-1.2516809811123184
-0.5622963866901234,-1.242954524475409
-0.5646414710733564,-1.1826626422567625
-0.5734355375104803,-1.1057111610040162
-0.5851609594266455,-1.023999794312956
-0.5916099414805364,-0.9898872820050376
-0.5857472305224537,-0.9176956861906056
-0.5693316398398225,-0.8280511771023549
-0.5552611335404243,-0.7376133537743852
-0.5452945249116838,-0.7090540411445
-0.5294652053248609,-0.6392423880492252
-0.5095319880673801,-0.5242118232899654
-0.507186903684147,-0.38458851709941566
-0.5218436810793535,-0.3147768640041408
-0.5247750365583947,-0.2330654973130804
-0.49370266848055705,-0.12676138919073004
-0.45266369177397897,0.0033421461231913155
-0.4350755588997312,0.06442734258155683
-0.4444558964326633,0.12868579599879848
-0.4532499628697872,0.21198379116929691
-0.4520774206781707,0.32463441320939956
-0.44797352300751286,0.37778646727057474
-0.4491460651991294,0.43014520709203086
-0.44680098081589636,0.4936103462695535
-0.4350755588997312,0.5983278259124658
-0.41924623931290816,0.6617929650899884
-0.4092796306841678,0.7220848473086349
-0.4063482752051265,0.7673037589726197
-0.4034169197260852,0.8355287835884566
-0.39169149780992,0.8640880962183417
-0.3776209915105218,0.8966139800468221
-0.37703472041471353,0.9172401502795169
-0.4010718353428522,0.9711855185804111
-0.4380069143787725,1.0029180881691724
-0.4667341980733772,1.0433771143948432
-0.48373605985181667,1.0568634564700667
-0.5001516505344479,1.0838361406205137
-0.5118770724506131,1.0814561979013566
-0.49897910834283143,1.0909759687779852
-0.46849301136080196,1.0782829409424806
-0.4579401316362533,1.08700939757939
-0.48432233094762495,1.0782829409424806
-0.5142221568338461,1.0909759687779852
-0.5124633435464213,1.0806628836616377
-0.49135758409732405,1.0885960260588279
-0.48549487313924145,1.0766963124630424
-0.4978065661512149,1.0917692830177042
-0.5107045302589965,1.0846294548602329
-0.5194985966961204,1.0830428263807947
-0.5277063920374361,1.0489303140728763
-0.5194985966961204,1.0433771143948432
-0.4673204691691854,1.0243375726415864
-0.36706811178597315,1.01323117328552
-0.2363296574207314,0.9608724334640637
-0.11086764291776398,0.9323131208341785
-0.03347985827107379,0.8982006085262602
-0.03230731607945727,0.8847142664510366
-0.07276002169022713,0.8387020405473327
-0.08389917251058406,0.8228357557529521
-0.02703087621718294,0.8077627851982905
0.07322148116602935,0.8045895282394143
0.19575214018995546,0.7530241026576772
0.3481826251001028,0.7212915330689159
0.5152698874054567,0.6879723350007165
0.6079007205431615,0.6744859929254929
0.5510324242497604,0.6173673676657226
0.3821863486569818,0.580081598398928
0.23561857470491707,0.5451757718512906
0.19751095347738024,0.5340693724952241
0.22858332155521796,0.48091731843404895
0.21040891758516195,0.44125160644809736
0.07556656554926237,0.4015858944621457
-0.14428509537883474,0.3912728093457983
-0.3641367563069318,0.3428806407229373
-0.5271201209416279,0.3040082429767047
-0.6209234962709492,0.2579960170730008
-0.6607899307859109,0.24530298923749627
-0.6672389128398017,0.20881053421042078
-0.6754467081811174,0.18739104973800688
-0.6918622988637486,0.15486516590952656
-0.7059328051631468,0.15327853743008849
-0.7217621247499698,0.13027242447823653
-0.7569383904984653,0.11916602512217009
-0.810289060217017,0.08584682705397072
-0.8143929578876747,0.07950031313621846
-0.794459740630194,0.05808082866380457
-0.8179105844625243,0.05173431474605231
-0.8841592182888576,0.01682848819841487
-0.8970571823966392,0.004135460362910348
-0.8560182056900612,-0.014904081390346435
-0.8700887119894594,0.00175551764375325
-0.9392687012948339,0.006515403082067446
-0.9175766707499283,0.03269477299279552
-0.8196693977499491,0.03983460115026682
-0.9128865019834622,0.0612540856226807
-1.3637289746600134,0.0564942001843665
-1.9611392212886292,0.06522065682127587
-2.350423228905313,0.054114257465209405
-2.347491873426272,0.06442734258155683
-1.8145714473365646,0.05490757170492844
-0.4673204691691854,0.06442734258155683
1.8355523951656558,0.05570088594464747
4.504844694380659,0.06442734258155683
6.2560364575599285,0.054114257465209405
6.054945471697695,0.06442734258155683
4.116146957859783,0.0564942001843665
1.7663724058602812,0.06442734258155683
0.2743124670282622,0.05173431474605231
-0.10676374524710616,0.0636340283418378
0.0738077522618376,0.0588741429035236
0.2655184005911383,0.06442734258155683
0.3089024616809494,0.03745465843110972
0.23151467703425926,0.024761630595605197
0.06677249911213849,0.0001688891643151847
-0.13080086017524478,-0.000624425075403848
-0.2779549052231178,-0.01966396682866063
-0.36061912973208227,-0.011730824431470305
-0.41983251040871644,-0.014904081390346435
-0.4808047043727754,-0.004590996273999011
-0.5224299521751617,-0.029183737705289023
-0.5452945249116838,-0.04108345130107451
-0.5576062179236573,-0.06567619273236452
-0.5652277421691647,-0.06805613545152163
-0.5740218086062886,-0.09582213384168776
-0.5816433328517959,-0.10930847591691133
-0.5875060438098785,-0.13707447430707748
-0.5587787601152738,-0.1402477312659536
-0.5259475787500113,-0.16563378693696265
-0.5300514764206692,-0.1767401862930291
-0.5722629953188638,-0.20767944164207136
-0.5939550258637694,-0.21481926979954266
-0.5540885913488077,-0.23465212579251848
-0.48432233094762495,-0.22909892611448526
-0.4509048784865542,-0.23703206851167558
-0.46321657149852763,-0.22592566915560913
-0.4819772465643919,-0.2402053254705517
-0.47670080670211756,-0.24575852514858493
-0.45266369177397897,-0.27511115201818914
-0.42393640807937427,-0.2814576659359414
-0.39696793767219435,-0.30446377888779336
-0.37293082274405576,-0.3131902355247027
-0.36120540082789054,-0.344922805113464
-0.36120540082789054,-0.3520626332709353
-0.3506525211033419,-0.3734821177433492
-0.31019981549257203,-0.38934840253772984
-0.24981389262432135,-0.44012051387974793
-0.2064298315345102,-0.46867982650963314
-0.20291220495966064,-0.5019990245778325
-0.21581016906744233,-0.5162786808927751
-0.20173966276804411,-0.5567377071184457
-0.14956153524110907,-0.5718106776731073
-0.0932795100435162,-0.589263590946926
-0.06982866621118584,-0.5908502194263642
-0.07510510607346017,-0.6265493602137207
-0.0733462927860354,-0.6408290165286632
-0.04637782237885549,-0.6582819298024819
-0.007097658959702135,-0.6646284437202342
0.02983742007621818,-0.7130206123430952
0.06853131239956327,-0.7479264388907326
0.11484672896841573,-0.78283226543837
0.15588570567499385,-0.7947319790341555
0.17640519402828292,-0.8359843194995452
0.18871688704025635,-0.8574038039719591
0.22154806840551886,-0.878029974204654
0.27841636469892,-0.8764433457252159
0.32766313674681374,-0.9073826010742582
0.3388022875671707,-0.9248355143480769
0.3241455101719642,-0.9478416272999288
0.3241455101719642,-0.9470483130602098
0.35463160715399367,-0.976400939929814
0.3950843127647635,-0.9930605389639137
0.4249841386509847,-1.0176532803952036
0.45195260905816464,-1.0192399088746418
0.4847837904234271,-1.046212593025089
0.5023719232976749,-1.0620788778194696
0.48067989275276934,-1.0890515619699166
0.4296743074174508,-1.0914315046890737
0.3827726197527901,-1.1160242461203638
0.35170025167495234,-1.1303039024353063
0.3165239859264568,-1.1596565293049106
0.2578968763456309,-1.1636231005035058
0.1851992604654068,-1.1882158419347957
0.12188198211811484,-1.2128085833660858
0.07908419212411193,-1.267547265906699
0.04508046856723291,-1.2953132642968652
-0.003580032384852581,-1.3191126914884361
-0.0733462927860354,-1.3080062921323696
-0.14311255318721822,-1.311179549091246
-0.18591034318122113,-1.29134669309827
-0.20584356043870192,-1.2762737225436083
-0.22694931988779923,-1.2302614966399044
-0.26271185673210307,-1.2064620694483335
-0.29964693576802337,-1.174729499859572
-0.32368405069616196,-1.1533100153871583
-0.3424447257620263,-1.0819117338124453
-0.3688269250733979,-1.0105134522377324
-0.3952091243847696,-0.9367352279438624
-0.40693454630093473,-0.8954828874784727
-0.4016581064386604,-0.806631692629941
-0.39110522671411174,-0.7066740984253429
-0.38289743137279614,-0.6075098184604638
-0.37586217822309703,-0.5591176498376028
-0.37293082274405576,-0.46471325531103796
-0.3793798047979466,-0.33778297695599274
-0.39110522671411174,-0.20291955620375718
-0.38817387123507047,-0.13866110278651553
-0.35944658754046577,-0.05456979337629807
-0.3266154061752033,0.0564942001843665
-0.3195801530255042,0.1802512215805356
-0.33247811713328584,0.2318166471622727
-0.32837421946262807,0.30004167177810953
-0.29671558028898204,0.4007925802224267
-0.2744372786482682,0.5308961155363481
-0.28850778494766643,0.5927746262344326
-0.3119586287799968,0.6538598226927981
-0.30257829124706465,0.726844732746949
-0.26974710988180217,0.8252156984721092
-0.2609530434446783,0.8609148392594657
-0.2914391404267077,0.8942340373276649
-0.31723506864227113,0.9402462632313688
-0.2984743935764068,1.0290974580799006
-0.25743541686982874,1.0751096839836045
-0.2521589770075544,1.115568710209275
-0.29495676700155726,1.1369881946816889
-0.3330643882290941,1.184587049064831
-0.3189938819296959,1.1972800769003356
-0.27091965207341867,1.215526304413873
-0.24160609728300572,1.2171129328933112
-0.2462962660494718,1.2504321309615107
-0.25567660358240396,1.2647117872764533
-0.25040016372012963,1.2916844714269002
-0.2474688082410883,1.286131271748867
-0.2615393145404865,1.2885112144680242
-0.28088626070215905,1.259951901838139
-0.2750235497440765,1.2512254452012297
-0.23515711522911487,1.2290126464890967
-0.17653000564828897,1.235359160406849
-0.13724984222913564,1.2250460752905017
-0.13549102894171086,1.237739103126006
-0.15249289072015035,1.2250460752905017
-0.15952814386984945,1.2226661325713446
-0.17125356578601464,1.1909335629825832
-0.19294559633092023,1.183793734825112
-0.15249289072015035,1.162374250352698
0.027492335692985145,1.1568210506746648
0.2655184005911383,1.1211219098873084
0.35639042044141844,1.112395453250399
0.2321009481300675,1.0917692830177042
0.07732537883668715,1.08700939757939
0.09491351171093493,1.0505169425523144
0.2637595873037135,1.041790485915405
0.4273292230342178,1.0227509441621483
0.5445834421958695,1.01323117328552
0.7140157888844564,0.9608724334640637
0.96200846241135,0.9323131208341785
1.1361309778664028,0.8997872370056982
1.0757450549981522,0.8815410094921604
0.8359601768125743,0.822042441513233
0.6419044441000405,0.7879299292053146
0.6336966487587249,0.7554040453768343
0.722223584225772,0.7419177033016107
0.7280862951838546,0.6840057638021213
0.5856224189024477,0.6459266802956077
0.36283940249530927,0.6118141679876894
0.14767791033367822,0.601501082871342
0.003455220764846526,0.5467624003307286
-0.032893587175265526,0.5070966883447771
0.014594371585203447,0.4682242905985444
0.048598095142082465,0.45949783396163507
-0.003580032384852581,0.4182454934962454
-0.10793628743872268,0.39523938054439345
-0.1689084814027816,0.3706466391131034
-0.16011441496565773,0.3738198960719796
-0.14956153524110907,0.3381207552846231
-0.17887509003152202,0.3063881856958618
-0.2316394886542653,0.2579960170730008
-0.22519050660037446,0.24212973227862014
-0.1876691564686459,0.21198379116929691
-0.19587695180996154,0.2096038484501398
-0.27209219426503517,0.1992907633337924
-0.3272016772710115,0.214363733888454
-0.3277879483668198,0.19849744909407335
-0.3266154061752033,0.190564306696883
-0.32837421946262807,0.15962505134784075
-0.26564321221114434,0.15407185166980752
-0.23808847070815617,0.1318590529576746
-0.4954614817679818,0.12313259632076524
-1.0782149510013912,0.08981339825256587
-1.6715212999593494,0.08029362737593748
-1.9394471907437236,0.05966745714324263
-1.7037662102288036,0.0660139710609949
-0.7100367028338046,0.054114257465209405
1.3389807770160604,0.06442734258155683
4.132562548542414,0.05570088594464747
6.443056937122763,0.057287514424085535
6.968355838966963,0.02555494483532423
5.526128943278646,0.012861916999819707
3.1945287952492,-0.009350881712313207
1.312598577704689,-0.004590996273999011
0.48830141699827667,-0.018077338349222566
0.4695407419324124,-0.01014419595203224
0.6823571497108104,-0.018077338349222566
0.7650213742197749,-0.0077642532328751415
0.68587477628566,-0.01966396682866063
0.5451697132916778,-0.009350881712313207
0.39156668618991397,-0.014110767150627403
0.22623823717198493,-0.009350881712313207
0.08436063198638627,-0.03949682282163645
0.021043353639094296,-0.05139653641742194
0.0409765708965751,-0.07360933512955485
0.08846452965704407,-0.07519596360899292
0.12129571102230657,-0.10692853319775422
0.12774469307619743,-0.12200150375241585
0.10722520472290836,-0.14738755942342488
0.05915097486663113,-0.14659424518370587
0.0016964074774217493,-0.16563378693696265
-0.005338845672277358,-0.15849395877949135
0.031009962267834697,-0.16166721573836748
0.07732537883668715,-0.150560816382301
0.083774360890578,-0.17594687205331005
0.08318808979476974,-0.18784658564909557
0.11250164458518269,-0.21164601284066653
0.15178180800433605,-0.21402595555982362
0.15002299471691127,-0.2425852681897088
0.11074283129775792,-0.25686492450465137
0.08025673431572845,-0.2830442944153795
0.09432724061512666,-0.2862175513742556
0.13419367513008829,-0.3123969212849837
0.17288756745343337,-0.3250899491204882
0.20220112224384632,-0.35364926175037337
0.23444603251330057,-0.35840914718868755
0.26258704511209696,-0.3830018886199776
0.2719673826450291,-0.394108287976044
0.26024196072886396,-0.4242542290853673
0.25496552086658963,-0.4313940572428386
0.2743124670282622,-0.45360685595497147
0.3171102570222651,-0.4631266268315999
0.359908047016268,-0.4948591964203612
0.3974293971479966,-0.5027923388175515
0.4296743074174508,-0.5242118232899654
0.45312515124978114,-0.5313516514474367
0.45136633796235637,-0.563877535275917
0.4349507472797251,-0.5741906203922644
0.4349507472797251,-0.5940234763852402
0.48009362165696107,-0.5995766760632735
0.5504461531539522,-0.6328958741314729
0.6020380095850789,-0.6455889019669774
0.6032105517766955,-0.6646284437202342
