ECG,PPG
-0.19569202550847717,-0.49091121444464814
-0.2342557722255815,0.296860953373968
-0.28857090844685523,0.38362338511227567
-0.30975381157315196,0.15865530989701782
-0.3026928438643864,0.06575040511529018
-0.3032359952265991,0.1432991272884678
-0.31898738473076854,0.19627795728796538
-0.3293072606128105,0.1371566542450478
-0.32713465516395956,0.06882164163700019
-0.32659150380174684,0.07496411468042019
-0.3287641092505978,0.11335457120179525
-0.33528192559715064,0.09876619772367273
-0.3374545310460016,0.04885860424588516
-0.35157646646353274,0.027359948593915127
-0.3597237368967238,0.042716131202465146
-0.36461209915663845,0.03503803989819014
-0.3553785259990219,-0.00028118010147491497
-0.3542922232745964,-0.027922308796864956
-0.3570079800856601,-0.027154499666437456
-0.3618963423455748,-0.03252916357942996
-0.3537490719123837,-0.0563312466226825
-0.33691137968378887,-0.08397237531807254
-0.3320230174238742,-0.09241827575277506
-0.36950046141655307,-0.10316760357876006
-0.4531457711973146,-0.11698816792645508
-0.543308897324629,-0.14079025096970763
-0.55145616775782,-0.15537862444783015
-0.3597237368967238,-0.16689576140424267
0.1399755163389944,-0.17687728009980017
0.986205338666439,-0.1968403174909152
2.1110718098090175,-0.20682183618647274
3.3434822506697186,-0.21373211836032024
4.451511029583703,-0.21910678227331273
5.214095542130385,-0.24137324705571028
5.5231486672294325,-0.2574972387946878
5.432442389739905,-0.2690143757511003
5.0582111011753295,-0.2774602761858028
4.427069218284129,-0.3020301683594829
3.4879605130183067,-0.3196897783593154
2.3076926029300284,-0.3304391061853004
1.1589274718500895,-0.3388850066200029
0.3414846717199199,-0.36575832618496545
-0.06479254721520751,-0.3903282183586455
-0.2032961445794555,-0.407987828358478
-0.25652497807630376,-0.41873715618446306
-0.30160654113996094,-0.4456104757494256
-0.33908398513263976,-0.47094817705353315
-0.35646482872344737,-0.4901434053142206
-0.3618963423455748,-0.5016605422706332
-0.3662415532432767,-0.5254626253138857
-0.37275936958982947,-0.5446578535745732
-0.3803634886608078,-0.5584784179222683
-0.38199294274744605,-0.5661565092265433
-0.3874244563695734,-0.5884229740089408
-0.39285596999170075,-0.6122250570521933
-0.40589160268480645,-0.6329559035737359
-0.40534845132259373,-0.6460086587910033
-0.40263269451153005,-0.6690429327038284
-0.3961148781649772,-0.6928450157470809
-0.39774433225161543,-0.7151114805294785
-0.394485424078339,-0.728164235746746
-0.3885107590939989,-0.751198509659571
-0.3830792454718715,-0.7826786840070986
-0.3857950022829352,-0.8256759953110386
-0.39339912135391353,-0.8579239787889937
-0.3961148781649772,-0.8871007257452388
-0.39339912135391353,-0.9124384270493463
-0.38959706181842435,-0.9423829831360189
-0.3874244563695734,-0.9631138296575613
-0.3830792454718715,-0.9784700122661114
-0.3754751264008932,-0.9915227674833789
-0.3667847046054894,-1.0137892322657764
-0.36081003962114927,-1.0306810331351814
-0.35918058553451104,-1.0429659792220214
-0.35918058553451104,-1.0521796887871515
-0.35592167736123465,-1.069839298786984
-0.3461449528414054,-1.0813564357433965
-0.33419562287272514,-1.0874989087868165
-0.3287641092505978,-1.0944091909606641
-0.330393563337236,-1.115907846612634
-0.3287641092505978,-1.1327996474820392
-0.31898738473076854,-1.1435489753080241
-0.31029696293536474,-1.1535304940035815
-0.31029696293536474,-1.1773325770468341
-0.31355587110864114,-1.1949921870466667
-0.307581206124301,-1.2042058966117968
-0.2956318761556208,-1.2149552244377817
-0.28857090844685523,-1.245667589654882
-0.2923729679823444,-1.2771477640024094
-0.2983476329666845,-1.297878610523952
-0.29726133024225904,-1.3124669840020744
-0.28857090844685523,-1.3439471583496019
-0.2820530921003024,-1.3784985692188394
-0.28585515163579156,-1.405371888783802
-0.30052023841553543,-1.4168890257402145
-0.31355587110864114,-1.4414589179138946
-0.3173579306441303,-1.4767781379135596
-0.31355587110864114,-1.5136329761740797
-0.31518532519527936,-1.5266857313913471
-0.3276778065261723,-1.5312925861739122
-0.3461449528414054,-1.5397384866086148
-0.36026688825893655,-1.5581659057388748
-0.3684141586921276,-1.5535590509563098
-0.3749319750386804,-1.5312925861739122
-0.38199294274744605,-1.5074905031306596
-0.3901402131806371,-1.5021158392176672
-0.3988306349760409,-1.4829206109569797
-0.4091505108580829,-1.4368520631313295
-0.42001353810233766,-1.3708204779145645
-0.43087656534659236,-1.3224485026976318
-0.44011013850420894,-1.2740765274806993
-0.4455416521263363,-1.2072771331335068
-0.44391219803969806,-1.1089975644387866
-0.4373943816931452,-1.0153248505266315
-0.43522177624429426,-0.9347048918317438
-0.43902383577978343,-0.8571561696585662
-0.44011013850420894,-0.743520418355296
-0.4281608085355287,-0.6199031483564683
-0.4042621485981683,-0.5147132974879007
-0.37710458048753137,-0.43562895705386806
-0.35211961782574547,-0.3250644422723079
-0.3287641092505978,-0.1868587987953577
-0.30540860067545006,-0.06247371966610251
-0.2863983029980043,0.015842811637502608
-0.2739058216671113,0.11181895294094026
-0.2646722485094948,0.24464993250489794
-0.2527229185408146,0.37057062989500816
-0.2369715290366452,0.44044126076391077
-0.22339274498132677,0.5141509372849509
-0.21524547454813572,0.6239476429360835
-0.20818450683937012,0.7383512033697812
-0.19677832823290264,0.7951690790214163
-0.181570090090946,0.8450766724992038
-0.17016391148447851,0.923393203802809
-0.16907760876005304,1.010923444671544
-0.17179336557111674,1.0485460920624916
-0.1696207601222658,1.0807940755404466
-0.16201664105128746,1.1399153785833642
-0.15875773287801104,1.2151606733652593
-0.16038718696464926,1.2481764659736418
-0.1582145815157983,1.2735141672777495
-0.15278306789367094,1.3165114785816896
-0.15712827879137284,1.3771683998854622
-0.17668172783103137,1.4040417194504247
-0.19406257142183897,1.4263081842328222
-0.19188996597298802,1.4585561677107772
-0.1755954251066059,1.5099993794494198
-0.16473239786235114,1.5368726990143824
-0.1658187005867766,1.5568357364054974
-0.17070706284669127,1.5783343920574675
-0.17016391148447851,1.6151892303179876
-0.1641892465001384,1.634384458578675
-0.15441252198030914,1.649740641187225
-0.14409264609826714,1.662025587274065
-0.13540222430286333,1.6927379524911652
-0.1288844079563105,1.7165400355344176
-0.12128028888533217,1.7365030729255326
-0.11258986708992838,1.7418777368385252
-0.10498574801895005,1.7564661103166477
-0.1011836884834609,1.7664476290122053
-0.09792478031018448,1.7779647659686177
-0.09140696396363163,1.7679832472730603
-0.08271654216822784,1.7533948737949376
-0.07619872582167499,1.7272893633604027
-0.0734829690106113,1.7103975624909977
-0.07076721219954761,1.6827564337956076
-0.06044733631750561,1.6566509233610727
-0.04741170362439991,1.6228673216222624
-0.04035073591563433,1.6059755207528574
-0.046325400899974445,1.5829412468400323
-0.05501582269537824,1.5506932633620774
-0.0588178822308674,1.4969466242321523
-0.05067061179767634,1.4616274042324873
-0.03491922229350696,1.4309150390153873
-0.014822621891635685,1.3909889642331572
-0.0012438378363172546,1.3211183333642547
-0.004502746009593678,1.2689073124951844
-0.02134043823818853,1.2312846651042368
-0.030030860033592326,1.1928942085828618
-0.016452075978273896,1.1191845320618217
0.016137005754490334,1.0608310381493318
0.04981239021168004,1.0239761998888117
0.07968571513338059,0.9894247890195741
0.10412752643295377,0.914179494237679
0.12205152138597408,0.8443088633687763
0.13345769999244156,0.7990081246735538
0.14920908949661094,0.7675279503260263
0.1790824144183115,0.7045676016309711
0.22199137203311772,0.6477497259793361
0.2741339028055405,0.613966124240526
0.3327942499245161,0.595538705110266
0.3881956888702153,0.5463989207629059
0.42512998150068143,0.49572351815469085
0.43816561419378713,0.46117210728545327
0.43490670602051074,0.4450481155464758
0.41806901379191586,0.40819327728595567
0.3773326616259606,0.3713384390254356
0.3159565576959213,0.3436973103300456
0.2654434810101367,0.3329479825040606
0.252407848317031,0.30837809033038055
0.2594688160257966,0.28611162554798303
0.23339755063958523,0.267684206417723
0.14214812178784536,0.2623095425047305
0.00961918940793749,0.24464993250489794
-0.10444259665673732,0.23082936815720292
-0.16201664105128746,0.21777661293993542
-0.17070706284669127,0.2154731855486529
-0.16473239786235114,0.20088481207053038
-0.1658187005867766,0.18706424772283536
-0.17885433327988232,0.16786901946214783
-0.1989509336817536,0.15865530989701782
-0.21850438272141212,0.1417635090276128
-0.22447904770575225,0.12947856294077278
-0.21741807999698665,0.11489018946265026
-0.20220984185503002,0.11028333468008525
-0.20383929594166822,0.09876619772367273
-0.21633177727256117,0.08417782424555022
-0.23751468039885792,0.05730450468058767
-0.2369715290366452,0.03964489468075515
-0.22773795587902868,0.021985284680922618
-0.21307286909928477,0.008164720333227597
-0.21524547454813572,-0.014869553579597437
-0.2195906854458376,-0.02869011792729246
-0.22447904770575225,-0.04251068227498748
-0.22447904770575225,-0.052492200970544994
-0.22122013953247582,-0.07552647488337003
-0.22284959361911402,-0.09165046662234755
-0.26412909714728205,-0.10470322183961507
-0.36461209915663845,-0.11238131314389008
-0.46835400933927124,-0.13234435053500512
-0.44065328986642166,-0.14309367836099013
-0.16038718696464926,-0.15000396053483764
0.4229573760518305,-0.15537862444783015
1.312639307356294,-0.17687728009980017
2.4684654061449987,-0.1937690809692052
3.7416121991716547,-0.20605402705604522
4.850184129447851,-0.21449992749074773
5.513371942709603,-0.23753420140357276
5.63558099920747,-0.2551938114034053
5.330329933643911,-0.2674787574902453
4.75078743016292,-0.27515684879452035
3.9382329922926655,-0.2981911227073454
2.8883214091354446,-0.3166185418376054
1.731952158984527,-0.3281356787940179
0.7521071015527493,-0.33581377009829294
0.16550363036299306,-0.36115147140240045
-0.056645276782016446,-0.3857213635760805
-0.10933095891665195,-0.40568440096719555
-0.14246319201162894,-0.41720153792360803
-0.18537214962643517,-0.44023581183643307
-0.21904753408362487,-0.4594310400971206
-0.2413167399343471,-0.47401941357524313
-0.2581544321629419,-0.4816975048795181
-0.2646722485094948,-0.5024283514010607
-0.26358594578506933,-0.5200879614008932
-0.266301702596133,-0.5346763348790157
-0.27173321621826035,-0.5431222353137183
-0.2777078812026005,-0.5638530818352607
-0.2695606107694094,-0.5861195466176583
-0.26847430804498396,-0.6091538205304833
-0.2733626703048986,-0.6214387666173233
-0.2923729679823444,-0.6444730405301484
-0.29726133024225904,-0.6767210240081034
-0.29020036253349346,-0.718950526181616
-0.27716472984038776,-0.7519663187899985
-0.27607842711596225,-0.7811430657462436
-0.28150994073808966,-0.8026417213982137
-0.2820530921003024,-0.8264438044414661
-0.278794183927026,-0.8410321779195886
-0.2782510325648132,-0.8533171240064287
-0.27716472984038776,-0.8648342609628412
-0.26684485395834573,-0.8871007257452388
-0.24892085900532543,-0.9024569083537888
-0.23805783176107068,-0.9147418544406288
-0.24185989129655983,-0.9254911822666138
-0.25109346445417635,-0.9477576470490113
-0.25055031309196363,-0.9646494479184163
-0.23968728584770888,-0.9769343940052564
-0.2342557722255815,-0.9853802944399589
-0.24348934538319805,-1.0045755227006463
-0.25652497807630376,-1.016092659657059
-0.25380922126524,-1.0230029418309063
-0.2282811072412414,-1.0276097966134714
-0.1973214795951154,-1.0460372157437314
-0.18048378736652054,-1.057554352700144
-0.18374269553979694,-1.0629290166131364
-0.19569202550847717,-1.068303680526129
-0.2032961445794555,-1.0936413818302366
-0.20166669049281727,-1.1182112740039165
-0.19351942005962622,-1.134335265742894
-0.18048378736652054,-1.1458524026993067
-0.16636185194898936,-1.172725722264269
-0.1582145815157983,-1.1995990418292317
-0.16147348968907474,-1.2187942700899193
-0.17505227374439317,-1.2287757887854767
-0.18917420916192432,-1.2541134900895843
-0.19786463095732812,-1.2863614735675393
-0.19949408504396632,-1.3170738387846395
-0.1989509336817536,-1.3308944031323344
-0.19677832823290264,-1.3477862040017394
-0.19134681461077527,-1.3708204779145645
-0.18537214962643517,-1.3984616066099544
-0.1859153009886479,-1.406907507044657
-0.19840778231954087,-1.405371888783802
-0.21850438272141212,-1.405371888783802
-0.23642837767443245,-1.417656834870642
-0.24837770764311268,-1.4130499800880771
-0.2581544321629419,-1.3892478970448245
-0.2690174594071967,-1.3539286770451595
-0.2825962434625151,-1.333197830523617
-0.2950887247934081,-1.3063245109586543
-0.3043222979510246,-1.2602559631330044
-0.31084011429757746,-1.1857784774815368
-0.31790108200634304,-1.1197468922647715
-0.32822095788838507,-1.060625589221854
-0.3417997419437035,-0.9953618131355164
-0.35646482872344737,-0.8917075805278037
-0.36950046141655307,-0.7788396383549611
-0.3792771859363823,-0.682095687921096
-0.38199294274744605,-0.6053147748783458
-0.3743888236764677,-0.49321464183593067
-0.3580942828100856,-0.3550089983589804
-0.33854083377042704,-0.23523077401229026
-0.32224629290404494,-0.15844986096954014
-0.31084011429757746,-0.0547956283618275
-0.3010633897777482,0.08955248815854272
-0.28748460572242973,0.22391908598335541
-0.266301702596133,0.29993218989567805
-0.2386009831232834,0.38592681250355815
-0.2136160204614975,0.5149187464153784
-0.20166669049281727,0.6446784894576261
-0.20709820411494465,0.7114778838048187
-0.22176329089468855,0.7752060416303013
-0.23371262086336878,0.8788602742380139
-0.23642837767443245,0.992496025541284
-0.2326263181389433,1.0470104738016366
-0.22502219906796497,1.0915434033664317
-0.21470232318592297,1.1660208890178994
-0.20220984185503002,1.255854557277917
-0.19514887414626444,1.297316250321002
-0.20275299321724274,1.3287964246685295
-0.21904753408362487,1.381775254668027
-0.22610850179239045,1.4508780764065023
-0.21633177727256117,1.4823582507540298
-0.20166669049281727,1.505392524666855
-0.20112353913060455,1.542247362927375
-0.21687492863477392,1.5967618111877275
-0.23371262086336878,1.6213317033614074
-0.2369715290366452,1.6397591224916674
-0.22882425860345415,1.66663244205663
-0.21741807999698665,1.7150044172735626
-0.20655505275273192,1.7449489733602352
-0.19080366324856254,1.7679832472730603
-0.1696207601222658,1.7864106664033204
-0.14898100835818176,1.8217298864029854
-0.13431592157843786,1.8439963511853827
-0.12508234842082133,1.8631915794460703
-0.11910768343648123,1.8701018616199179
-0.11910768343648123,1.890064899011033
-0.12399604569639586,1.9031176542283004
-0.1245391970586086,1.9184738368368504
-0.10987411027886469,1.914634791184713
-0.08000078535716415,1.9107957455325755
-0.0501274604354636,1.896207372054453
-0.0354623736557197,1.890064899011033
-0.04035073591563433,1.8685662433590629
-0.0544726713331655,1.8462997785766653
-0.061533639041931085,1.8140517950987103
-0.0501274604354636,1.7979278033597328
-0.027858254584741376,1.7748935294469077
-0.01590892461606116,1.7449489733602352
-0.027858254584741376,1.695809189012875
-0.05610212541980371,1.66663244205663
-0.0821733908060151,1.63899131336124
-0.09086381260141889,1.6021364751007199
-0.08434599625486605,1.5338014624926724
-0.0734829690106113,1.4823582507540298
-0.06370624449078204,1.4447356033630823
-0.053929519970952765,1.4055773377112797
-0.0501274604354636,1.3318676611902396
-0.059361033593080134,1.274281976408177
-0.08054393671937689,1.237427138147657
-0.09629532622354627,1.202107918147992
-0.09520902349912079,1.1253270051052418
-0.08108708808158963,1.0569919924971942
-0.07076721219954761,1.0132268720628266
-0.07185351492397309,0.9809788885848716
-0.08054393671937689,0.9134116851072515
-0.08597545034150426,0.8519869546730514
-0.08108708808158963,0.8151321164125314
-0.0588178822308674,0.7913300333692788
-0.02188358960040127,0.7322087303263611
0.018852762565554022,0.6707839998921611
0.04492402795176541,0.6270188794577936
0.055787055196020154,0.6039846055449685
0.06827953652691311,0.5579160577193184
0.10141176962189008,0.5133831281545234
0.1557269058431638,0.4803673355461408
0.21438725296213942,0.4673145803288733
0.26761608645898766,0.43583440598134576
0.3241038281291123,0.4058898498946732
0.3822210238858752,0.38055214859056563
0.4202416192407668,0.37287405728629064
0.41318065153200123,0.3513754016343206
0.3632107262084294,0.3329479825040606
0.29531680593183723,0.31375275424337307
0.23719961017507438,0.306074662939098
0.20189477163124644,0.2884150529392655
0.19103174438699172,0.272291061200288
0.1921180471114172,0.2530958329396005
0.17799611169388602,0.24311431424404295
0.11933576457491041,0.22699032250506543
0.012334946219001176,0.2154731855486529
-0.11367616981435386,0.20011700294010287
-0.21144341501264655,0.19474233902711038
-0.2543523726274528,0.18322520207069787
-0.25217976717860185,0.17324368337514034
-0.23968728584770888,0.15251283685359782
-0.24348934538319805,0.1402278907667578
-0.2586975835251547,0.12563951728863526
-0.26358594578506933,0.11412238033222276
-0.2527229185408146,0.09108810641939773
-0.23805783176107068,0.0780353512021302
-0.2413167399343471,0.06421478685443519
-0.25217976717860185,0.053465459028450166
-0.27173321621826035,0.03043118511562513
-0.28096678937587694,0.015842811637502608
-0.2940024220689826,0.0027900564202350897
-0.2923729679823444,-0.0071914622753224255
-0.28150994073808966,-0.03022573618814746
-0.255981826714091,-0.04634972792712498
-0.24457564810762353,-0.059402483144392504
-0.2532660699030273,-0.06784838357909502
-0.2690174594071967,-0.09165046662234755
-0.2739058216671113,-0.10854226749175258
-0.29020036253349346,-0.12159502270902009
-0.3586374341722983,-0.1285053048828676
-0.4765012797724623,-0.15000396053483764
-0.5552582272933092,-0.16228890662167766
-0.458577284819442,-0.16843137966509766
-0.07511242309724951,-0.17227042531723516
0.6391316182124999,-0.19300127183877772
1.6646013900701477,-0.20989307270818272
2.914392674521656,-0.22141020966459524
4.192427829808227,-0.22908830096887026
5.205948271697194,-0.2559616205338328
5.713794795366104,-0.27976370357708535
5.696957103137509,-0.2981911227073454
5.318923755037444,-0.30970825966375787
4.701903807563774,-0.33581377009829294
3.823628054865778,-0.36115147140240045
2.6813807401323917,-0.380346699663088
1.4793867755556043,-0.392631645749928
0.5386486162031435,-0.41720153792360803
0.03188839525865971,-0.4417714300972881
-0.13105701340516143,-0.4625022766188306
-0.160930338326862,-0.47555503183609815
-0.19406257142183897,-0.49935711487935064
-0.24511879946983625,-0.5223913887921757
-0.2777078812026005,-0.5446578535745732
-0.28585515163579156,-0.5569427996614132
-0.29020036253349346,-0.5815126918350932
-0.3026928438643864,-0.6168319118347584
-0.3157284765574921,-0.6644360779212634
-0.320073687455194,-0.7012909161817835
-0.3276778065261723,-0.734306708790166
-0.33582507695936337,-0.7619478374855561
-0.3466881042036181,-0.7941958209635112
-0.33962713649485254,-0.8141588583546261
-0.3331093201482997,-0.8295150409631762
-0.3260483524395341,-0.8425677961804436
-0.3320230174238742,-0.8656020700932687
-0.33691137968378887,-0.8809582527018187
-0.340713439219278,-0.8932431987886588
-0.33962713649485254,-0.9055281448754988
-0.33962713649485254,-0.9339370827013164
-0.33962713649485254,-0.9577391657445689
-0.3374545310460016,-0.9730953483531188
-0.33256616878608697,-0.9846124853095314
-0.32822095788838507,-1.0091823774832114
-0.3260483524395341,-1.026841987483044
-0.3244188983528959,-1.0368235061786015
-0.32387574699068317,-1.0475728340045865
-0.32224629290404494,-1.075981771830404
-0.3173579306441303,-1.100551664004084
-0.30540860067545006,-1.115907846612634
-0.29020036253349346,-1.1274249835690466
-0.28150994073808966,-1.152762684873154
-0.2836825461869406,-1.1719579131338416
-0.29182981662013163,-1.1811716226989717
-0.2950887247934081,-1.1896175231336743
-0.28857090844685523,-1.2172586518290642
-0.28042363801366416,-1.2425963531331718
-0.2793373352892387,-1.2579525357417218
-0.2831393948247279,-1.2694696726981343
-0.2831393948247279,-1.299414228784807
-0.27716472984038776,-1.331662212262762
-0.26847430804498396,-1.3539286770451595
-0.26249964306064383,-1.3692848596537095
-0.2603270376117929,-1.3984616066099544
-0.25978388624958015,-1.4322452083487645
-0.2586975835251547,-1.459118527913727
-0.25489552398966553,-1.474474710522277
-0.24892085900532543,-1.4982767935655297
-0.245661950832049,-1.5305247770434847
-0.24783455628089995,-1.5643083787822947
-0.255981826714091,-1.5827357979125547
-0.2646722485094948,-1.598091980521105
-0.27119006485604763,-1.6142159722600824
-0.27607842711596225,-1.6364824370424798
-0.28150994073808966,-1.6456961466076099
-0.28857090844685523,-1.6449283374771824
-0.2983476329666845,-1.6364824370424798
-0.3113832656597902,-1.6372502461729073
-0.3249620497151086,-1.6341790096511974
-0.33528192559715064,-1.6188228270426472
-0.33854083377042704,-1.5788967522604174
-0.3412565905814907,-1.5412741048694698
-0.3537490719123837,-1.5105617396523696
-0.3792771859363823,-1.4790815653048421
-0.40643475404701923,-1.4076753161750846
-0.4238155976378268,-1.319377266175922
-0.4335923221576561,-1.2479710170461642
-0.4428258953152726,-1.1980634235683767
-0.45640467937059104,-1.1059263279170766
-0.4721560688747604,-0.9746309666139739
-0.4879074583789298,-0.8579239787889937
-0.5003999397098228,-0.7895889661809461
-0.5036588478830991,-0.6928450157470809
-0.49496842608769537,-0.5461934718354282
-0.47867388522131327,-0.40952344661933304
-0.4618361929927184,-0.3373493883591479
-0.446084803488549,-0.2505869566208403
-0.43033341398437963,-0.10547103097004257
-0.4118662676691466,0.04348394033289265
-0.39394227271612625,0.12333608989735277
-0.3787340345741696,0.19781357554882037
-0.36461209915663845,0.32066303641722055
-0.34831755829025635,0.45579744337246075
-0.3320230174238742,0.5256680742413634
-0.32115999017961944,0.580182522501716
-0.31518532519527936,0.6715518090225886
-0.30975381157315196,0.7828841329345763
-0.30160654113996094,0.8427732451079214
-0.2940024220689826,0.8842349381510064
-0.2912866652579189,0.946427477715634
-0.29345927070676986,1.026279627280094
-0.29291611934455714,1.0677413203231791
-0.2880277570846425,1.0930790216272868
-0.2820530921003024,1.1307016690182343
-0.27988048665145143,1.189822972061152
-0.2820530921003024,1.225142192060817
-0.28585515163579156,1.2504798933649244
-0.286941454360217,1.274281976408177
-0.2853120002735788,1.3119046237991245
-0.28422569754915333,1.332635470320667
-0.28585515163579156,1.349527271190072
-0.2853120002735788,1.361812217276912
-0.27662157847817503,1.3879177277114472
-0.2614133403362184,1.4040417194504247
-0.24892085900532543,1.4186300929285471
-0.24348934538319805,1.4255403751023947
-0.23968728584770888,1.4485746490152198
-0.23208316677673058,1.4716089229280447
-0.22122013953247582,1.4992500516234348
-0.21415917182371025,1.50692814292771
-0.21090026365043382,1.5099993794494198
-0.2032961445794555,1.5000178607538623
-0.18700160371307337,1.5000178607538623
-0.16744815467341484,1.4869651055365949
-0.15223991653145819,1.4677698772759074
-0.14192004064941618,1.4347540846675246
-0.13322961885401238,1.4170944746676921
-0.12562549978303408,1.397131437276577
-0.12508234842082133,1.3687224994507596
-0.12997071068073596,1.3188149059729721
-0.12834125659409776,1.286566922495017
-0.1158487752632048,1.2612292211909095
-0.10281314257009912,1.2297490468433818
-0.10335629393231184,1.1667886981483269
-0.11476247253877933,1.1184167229313942
-0.12508234842082133,1.0861687394534392
-0.12725495386967228,1.0516173285842016
-0.12834125659409776,0.9809788885848716
-0.13377277021622513,0.9195541581506714
-0.14029058656277799,0.8803958924988688
-0.14246319201162894,0.8496835272817689
-0.14246319201162894,0.7844197511954313
-0.14626525154711809,0.7252984481525137
-0.1565851274291601,0.6876758007615661
-0.16744815467341484,0.6631059085878861
-0.17287966829554222,0.606288032936251
-0.17016391148447851,0.5510057755454709
-0.1582145815157983,0.5126153190240959
-0.13322961885401238,0.4934200907634083
-0.09575217486133353,0.45042277945946824
-0.05338636860874003,0.4074254681555282
-0.01971098415155032,0.37440967554714566
-0.002873291922955466,0.35982130206902313
0.00364452442359738,0.32987674598235056
0.01342124894342665,0.29993218989567805
0.03623360615636161,0.273826679461143
0.07316789878682774,0.26538077902644047
0.12205152138597408,0.24618555076575296
0.1774529603316733,0.22775813163549294
0.23068179382852153,0.2054916668530954
0.27087499463226405,0.19781357554882037
0.28771268686085893,0.18399301120112535
0.2768496596166042,0.17631491989685036
0.242087972434989,0.16479778294043784
0.19320434983584267,0.16326216467958282
0.14595018132333454,0.15788750076659033
0.11933576457491041,0.16019092815787284
0.12422412683482503,0.1563518825057353
0.1426912731500581,0.15942311902744533
0.1253104295592505,0.1563518825057353
0.028629487085383293,0.1563518825057353
-0.12834125659409776,0.1471381729406053
-0.2701037621316222,0.1440669364188953
-0.3363682283215761,0.1379244633754753
-0.33582507695936337,0.1394600816363303
-0.32278944426625766,0.13562103598419278
-0.33147986606166147,0.1386922725059028
-0.35103331510132,0.1363888451146203
-0.3629826450700002,0.1371566542450478
-0.3656984018810639,0.12717513554949028
-0.3667847046054894,0.12487170815820778
-0.37710458048753137,0.11872923511478777
-0.3868813050073607,0.11796142598436027
-0.39774433225161543,0.10721209815837525
-0.3950285754405517,0.10414086163666524
-0.3966580295271899,0.09876619772367273
-0.39720118088940265,0.09646277033239023
-0.4037189972359555,0.08187439685426771
-0.3950285754405517,0.07266068728913769
-0.3857950022829352,0.06344697772400767
-0.38144979138523327,0.058840122941442675
-0.3874244563695734,0.04578736772417515
-0.3874244563695734,0.04041270381118264
-0.38633815364514795,0.03657365815904514
-0.4167546299290612,0.03580584902861764
-0.5036588478830991,0.021217475550495118
-0.6101165148767956,0.012003765985365103
-0.6220658448454759,0.003557865550662591
-0.4075210567714447,-0.001048989231902416
0.1253104295592505,-0.018708599231734943
0.9948957604618428,-0.02945792705771996
2.1404019833685055,-0.03713601836199497
3.3994268409776303,-0.041742873144559975
4.51668919304923,-0.06017029227482001
5.24668462386315,-0.07552647488337003
5.500336310016498,-0.08934703923106505
5.363462166738888,-0.09856074879619506
4.956098645079335,-0.1200594044481651
4.292910831817583,-0.13695120531757013
3.3320760720632507,-0.15153957879569263
2.1534376160616113,-0.15921767009996765
1.0225964799346923,-0.1814841348823652
0.2257934315686069,-0.20375059966476272
-0.15604197606694736,-0.22524925531673276
-0.27553527575374953,-0.23676639227314528
-0.32278944426625766,-0.2621040935772528
-0.3684141586921276,-0.30126235922905537
-0.39394227271612625,-0.35347338009812546
-0.39828748361382815,-0.395702882271638
-0.4086073594958701,-0.4333255296625856
-0.42707450581110323,-0.4632700857492581
-0.4325060194332306,-0.49705368748806816
-0.42707450581110323,-0.5154811066183281
-0.4373943816931452,-0.5308372892268782
-0.4558615280083783,-0.5469612809658557
-0.46998346342590946,-0.5769058370525283
-0.4623793443549311,-0.5976366835740708
-0.458577284819442,-0.6137606753130483
-0.4547752252839528,-0.6275812396607433
-0.45803413345722926,-0.6575257957474159
-0.4542320739217401,-0.680560069660241
-0.45260261983510186,-0.695916252268791
-0.44662795485076173,-0.7089690074860585
-0.44065328986642166,-0.738913563572731
-0.43956698714199616,-0.7634834557464111
-0.4444553494019108,-0.7780718292245336
-0.44934371166182546,-0.7903567753113736
-0.44771425757518724,-0.8203013313980462
-0.4428258953152726,-0.8456390327021537
-0.4384806844175707,-0.8602274061802762
-0.4341354735198688,-0.8717445431366887
-0.4292471112599542,-0.9009212900929338
-0.425445051724465,-0.9270268005274688
-0.4249019003622523,-0.9431507922664464
-0.42598820308667773,-0.9539001200924313
-0.4221861435511886,-0.9815412487878213
-0.412952570393572,-1.0084145683527839
-0.4037189972359555,-1.0253063692221889
-0.4010032404248918,-1.0368235061786015
-0.4031758458737428,-1.060625589221854
-0.4037189972359555,-1.080588626612969
-0.39774433225161543,-1.0921057635693816
-0.3885107590939989,-1.0997838548736565
-0.3803634886608078,-1.1243537470473366
-0.37656142912531865,-1.1496914483514442
-0.37221621822761675,-1.1673510583512767
-0.3656984018810639,-1.1796360044381167
-0.3586374341722983,-1.2057415148726518
-0.35755113144787287,-1.2356860709593243
-0.36081003962114927,-1.2610237722634319
-0.36461209915663845,-1.2779155731328369
-0.3629826450700002,-1.3055567018282268
-0.36026688825893655,-1.3385724944366095
-0.36352579643221294,-1.3738917144362746
-0.3760182777631059,-1.3984616066099544
-0.3885107590939989,-1.425334926174917
-0.3912265159050626,-1.454511673131162
-0.38525185092072245,-1.4890630840003996
-0.384165548196297,-1.5128651670436521
-0.3961148781649772,-1.5320603953043397
-0.415125175842423,-1.5443453413911796
-0.4281608085355287,-1.5635405696518672
-0.4341354735198688,-1.5781289431299899
-0.43956698714199616,-1.5865748435646922
-0.4498868630240382,-1.5788967522604174
-0.45966358754386744,-1.5765933248691348
-0.46563825252820756,-1.5819679887821272
-0.4661814038904203,-1.5850392253038372
-0.4672677066148458,-1.5497200053041722
-0.4748718256858241,-1.4982767935655297
-0.49008006382778074,-1.459118527913727
-0.5052883019697374,-1.4383876813921845
-0.5112629669540775,-1.3761951418275569
-0.508004058780801,-1.279451191393692
-0.5052883019697374,-1.1988312326988042
-0.5107198155918647,-1.1596729670470016
-0.5177807833006304,-1.083659863134679
-0.5150650264895666,-0.9539001200924313
-0.49768418289875904,-0.8341218957457411
-0.47269922023697314,-0.7750005927028236
-0.44934371166182546,-0.691309397486226
-0.43033341398437963,-0.5385153805311532
-0.4118662676691466,-0.3811145087935155
-0.39339912135391353,-0.29511988618563534
-0.37764773184974415,-0.20989307270818272
-0.3640689477944257,-0.06708057444866751
-0.3494038610146818,0.09032029728897022
-0.3331093201482997,0.17785053815770535
-0.32224629290404494,0.25079240554831794
-0.31953053609298127,0.36903501163415314
-0.31844423336855576,0.5103118916328133
-0.3124695683842157,0.597074323371121
-0.3037791465888119,0.660034672066176
-0.29889078432889726,0.7475649129349112
-0.2967181788800463,0.8573616185860439
-0.29345927070676986,0.9272322494549464
-0.2907435138957062,0.9763720338023065
-0.28857090844685523,1.0347255277147966
-0.2853120002735788,1.1138098681488293
-0.28096678937587694,1.1683243164091819
-0.2793373352892387,1.208250391191412
-0.2825962434625151,1.2443374203215045
-0.28585515163579156,1.2950128229297195
-0.2836825461869406,1.329564233798957
-0.2777078812026005,1.3572053624943472
-0.2733626703048986,1.3764005907550347
-0.27119006485604763,1.4078807651025622
-0.27119006485604763,1.4293794207545323
-0.27553527575374953,1.4501102672760748
-0.2836825461869406,1.4639308316237698
-0.2880277570846425,1.4961788151017248
-0.28422569754915333,1.5338014624926724
-0.27607842711596225,1.5783343920574675
-0.26847430804498396,1.6021364751007199
-0.2603270376117929,1.6213317033614074
-0.25055031309196363,1.62977760379611
-0.2413167399343471,1.6459015955350875
-0.23751468039885792,1.646669404665515
-0.23588522631221973,1.64513378640466
-0.22882425860345415,1.634384458578675
-0.2136160204614975,1.63899131336124
-0.19677832823290264,1.6359200768395301
-0.18645845235086064,1.6274741764048275
-0.18102693872873327,1.6021364751007199
-0.1739659710199677,1.5952261929268725
-0.1658187005867766,1.588315910753025
-0.16473239786235114,1.569888491622765
-0.17287966829554222,1.520748707275405
-0.17885433327988232,1.4869651055365949
-0.17450912238218041,1.4646986407541973
-0.1658187005867766,1.4370575120588072
-0.16310294377571294,1.3740971633637522
-0.1652755492245639,1.323421760755537
-0.1669050033112021,1.291173777277582
-0.1669050033112021,1.260461412060482
-0.17070706284669127,1.1905907811915795
-0.1755954251066059,1.1283982416269518
-0.17505227374439317,1.0877043577142942
-0.16147348968907474,1.0577598016276217
-0.1348590729406506,0.9909604072804291
-0.09575217486133353,0.9256966311940915
-0.05067061179767634,0.8796280833684414
-0.010477410993933787,0.8504513364121964
0.01505070303006486,0.7897944151084237
0.026456881636532342,0.7252984481525137
0.03731990888078709,0.6723196181530161
0.06121856881814752,0.640071634675061
0.09923916417303913,0.589396232066846
0.1426912731500581,0.5364174020673483
0.1877728362137153,0.4888132359808433
0.23665645881286163,0.4619399164158808
0.2817380218765188,0.42508507815536073
0.3034640763650283,0.38746243076441317
0.29368735184519906,0.34753635598218313
0.26327087556128576,0.32526989119978555
0.2230776747575432,0.298396571634823
0.17690980896946054,0.273826679461143
0.1399755163389944,0.24388212337447046
0.1356303054412925,0.22699032250506543
0.1589858140164402,0.20933071250523289
0.15735635992980201,0.19627795728796538
0.07859941240895511,0.17401149250556786
-0.06424939585299477,0.16019092815787284
-0.20166669049281727,0.1456025546797503
-0.27553527575374953,0.1371566542450478
-0.29020036253349346,0.11949704424521526
-0.29182981662013163,0.11028333468008525
-0.30595175203766284,0.10106962511495524
-0.32224629290404494,0.09569496120196273
-0.3233325956284704,0.0788031603325577
-0.31790108200634304,0.06958945076742769
-0.32713465516395956,0.06114355033272518
-0.3466881042036181,0.055001077289305166
-0.36352579643221294,0.033502421637335134
-0.3624394937077875,0.01814623902878511
-0.3629826450700002,0.004325674681090092
-0.3618963423455748,-0.004120225753612421
-0.371673066865404,-0.027154499666437456
-0.3743888236764677,-0.04481410966626998
-0.3754751264008932,-0.057866864883537504
-0.361353190983362,-0.06554495618781252
-0.35211961782574547,-0.08781142097021005
-0.3553785259990219,-0.10623884010047008
-0.3662415532432767,-0.1200594044481651
-0.3673278559677021,-0.1269696866220126
-0.3749319750386804,-0.14616491488270014
-0.4287039598977414,-0.15921767009996765
-0.5286438105448851,-0.16843137966509766
-0.5889336117504989,-0.17150261618680768
-0.4716129175125477,-0.1876266079257852
-0.06261994176635656,-0.19991155401262523
0.6825837271895189,-0.20912526357775524
1.7308658562601016,-0.21219650009946522
2.9573016321364625,-0.22832049183844275
4.1419147531224425,-0.24060543792528277
5.028880927615842,-0.24981914749041279
5.462315714661607,-0.25289038401212277
5.467747228283733,-0.27054999401195534
5.169557130428941,-0.2859061766205053
4.620974254594076,-0.30049455009862786
3.7758307349910574,-0.30894045053333036
2.6504211124862658,-0.3296712970548729
1.4598333265159458,-0.34733090705470543
0.5136636535413576,-0.36191928053282796
-0.01808153006491211,-0.36882956270667544
-0.20981396092600835,-0.391096027489073
-0.25652497807630376,-0.42641524748873805
-0.2912866652579189,-0.4732516044448156
-0.33147986606166147,-0.5093386335749082
-0.35211961782574547,-0.5423544261832908
-0.3570079800856601,-0.5707633640091083
-0.36787100732991485,-0.6030113474870633
-0.3857950022829352,-0.6214387666173233
-0.3955717268027645,-0.6375627583563008
-0.39339912135391353,-0.6536867500952784
-0.3999169377004664,-0.6828634970515234
-0.4124094190313593,-0.7043621527034934
-0.4243587490000395,-0.7197183353120435
-0.4134957217557848,-0.734306708790166
-0.3999169377004664,-0.7634834557464111
-0.3879676077317861,-0.7872855387896636
-0.3955717268027645,-0.8034095305286412
-0.4075210567714447,-0.8141588583546261
-0.41892723537791215,-0.8387287505283062
-0.41729778129127393,-0.8563883605281387
-0.40969366222029563,-0.8671376883541237
-0.40534845132259373,-0.8771192070496813
-0.4037189972359555,-0.9055281448754988
-0.39720118088940265,-0.9300980370491788
-0.3857950022829352,-0.9462220287881563
-0.3836223968340842,-0.9577391657445689
-0.3912265159050626,-0.9853802944399589
-0.39339912135391353,-1.011485804874494
-0.38090664002302055,-1.0291454148743264
-0.3673278559677021,-1.0398947427003116
-0.3700436127787658,-1.0629290166131364
-0.3836223968340842,-1.0828920540042515
-0.3890539104562116,-1.0959448092215192
-0.3787340345741696,-1.103622900525794
-0.3656984018810639,-1.1228181287864816
-0.3624394937077875,-1.137406502264604
-0.36352579643221294,-1.1450845935688791
-0.3597237368967238,-1.1481558300905892
-0.3494038610146818,-1.1658154400904217
-0.340713439219278,-1.1834750500902542
-0.3374545310460016,-1.1957599961770942
-0.33582507695936337,-1.2049737057422243
-0.32985041197502324,-1.2272401705246216
-0.32224629290404494,-1.2510422535678742
-0.31898738473076854,-1.2710052909589893
-0.32224629290404494,-1.2840580461762567
-0.3260483524395341,-1.3078601292195093
-0.32659150380174684,-1.336269067045327
-0.3244188983528959,-1.363910195740717
-0.3206168388174067,-1.3831054240014045
-0.31953053609298127,-1.406907507044657
-0.3244188983528959,-1.4353164448704745
-0.33528192559715064,-1.4667966192180022
-0.3466881042036181,-1.4890630840003996
-0.35211961782574547,-1.5105617396523696
-0.35483537463680914,-1.5335960135651947
-0.3580942828100856,-1.5673796153040047
-0.36461209915663845,-1.5965563622602499
-0.3711299155031913,-1.616519399651365
-0.37710458048753137,-1.6234296818252123
-0.38199294274744605,-1.6357146279120525
-0.3874244563695734,-1.650303001390175
-0.394485424078339,-1.6595167109553048
-0.40208954314931733,-1.6387858644337623
-0.41023681358250835,-1.6111447357383724
-0.4167546299290612,-1.5950207439993949
-0.42272929491340133,-1.5888782709559748
-0.4325060194332306,-1.5428097231303248
-0.4455416521263363,-1.4721712831309945
-0.45531837664616553,-1.4184246440010695
-0.45694783073280376,-1.396158179218672
-0.45205946847288914,-1.3308944031323344
-0.44336904667748533,-1.2157230335682092
-0.43196286807101786,-1.1113009918300691
-0.41892723537791215,-1.060625589221854
-0.40697790540923195,-0.9823090579182489
-0.3950285754405517,-0.8417999870500161
-0.37656142912531865,-0.7012909161817835
-0.34886070965246907,-0.6275812396607433
-0.320073687455194,-0.5446578535745732
-0.2967181788800463,-0.3995419279237755
-0.2777078812026005,-0.24214105618613777
-0.25978388624958015,-0.15384300618697513
-0.24674825355647448,-0.07475866575294253
-0.24240304265877258,0.05653669555016017
-0.2429461940209853,0.20933071250523289
-0.2413167399343471,0.301467808156533
-0.23751468039885792,0.37287405728629064
-0.23316946950115605,0.47345705337229327
-0.22719480451681592,0.5963065142406935
-0.21850438272141212,0.6730874272834436
-0.21252971773707202,0.7291374938046512
-0.21252971773707202,0.8020793611952638
-0.21415917182371025,0.898823311629129
-0.21252971773707202,0.966390515106749
-0.20872765820158287,1.0178337268453916
-0.20981396092600835,1.0708125568448892
-0.21578862591034845,1.1406831877137917
-0.21741807999698665,1.189822972061152
-0.21035711228822107,1.2274456194520995
-0.2032961445794555,1.2643004577126196
-0.2076413554771574,1.3303320429293846
-0.22284959361911402,1.3994348646678596
-0.23208316677673058,1.4639308316237698
-0.22610850179239045,1.5046247155364274
-0.21524547454813572,1.5445507903186575
-0.2136160204614975,1.5737275372749024
-0.22013383680805035,1.6021364751007199
-0.22284959361911402,1.6121179937962775
-0.2179612313591994,1.6290097946656825
-0.21144341501264655,1.6459015955350875
-0.20601190139051917,1.6720071059696227
-0.20112353913060455,1.680453006404325
-0.19514887414626444,1.6881310977086001
-0.1886310577997116,1.6912023342303102
-0.18102693872873327,1.7065585168388602
-0.17016391148447851,1.7103975624909977
-0.15712827879137284,1.7119331807518527
-0.1446357974604799,1.7050228985780052
-0.13431592157843786,1.71577222640399
-0.12508234842082133,1.7196112720561276
-0.1185645320742685,1.7134687990127075
-0.1158487752632048,1.6842920520564626
-0.1158487752632048,1.6697036785783401
-0.11530562390099207,1.6574187324915
-0.10987411027886469,1.640526931622095
-0.10389944529452458,1.59906523857901
-0.10064053712124817,1.5752631555357575
-0.10389944529452458,1.56221040031849
-0.10552889938116279,1.5445507903186575
-0.10064053712124817,1.4900363420583047
-0.08977750987699341,1.4455034124935098
-0.08271654216822784,1.4170944746676921
-0.07837133127052594,1.3917567733635847
-0.07022406083733487,1.3272608064076745
-0.04360964408891076,1.2666038851039019
-0.00015753511189178023,1.223606573799962
0.047639784762829096,1.1921263994524343
0.08077201785780606,1.1260948142356693
0.09326449918869902,1.0577598016276217
0.09706655872418818,1.0032453533672692
0.11444740231499577,0.967926133367604
0.15246799766988736,0.9072692120638315
0.20515367980452287,0.8435410542383488
0.25838251330137113,0.7867231785867138
0.3067229845383047,0.7521717677174762
0.34637303397983454,0.7022641742396887
0.3697285425549823,0.649285344240191
0.36701278574391855,0.5940030868494109
0.33605315809779257,0.5579160577193184
0.28336747596315703,0.5172221738066609
0.22796603701745785,0.4765282898940033
0.1937475011980554,0.4281563146770707
0.19917901482018277,0.39590833119911567
0.23068179382852153,0.3674993933732981
0.24154482107277628,0.3452329285909006
0.1790824144183115,0.31221713598251805
0.03623360615636161,0.292254098591403
-0.12562549978303408,0.275362297721998
-0.22882425860345415,0.26538077902644047
-0.2516366158163891,0.24157869598318796
-0.2386009831232834,0.22545470424421044
-0.24023043720992163,0.2108663307660879
