ECG,PPG
-0.6821229408615704,1.2453238678917202
-0.7273944355431602,1.3576045926198075
-0.7273944355431602,1.4516776322568432
-0.8677360690560884,1.5336122151665121
-0.8677360690560884,1.597339112985161
-0.8224645743744986,1.6367890973490744
-0.8677360690560884,1.6549967824401248
-0.8677360690560884,1.6701698533493035
-0.8677360690560884,1.6823083100766714
-1.0080777025690166,1.6853429242585127
-0.8677360690560884,1.6762390817129875
-0.8224645743744986,1.6549967824401248
-0.8224645743744986,1.6216160264398651
-0.8677360690560884,1.576096813712268
-0.8677360690560884,1.5154045300754921
-0.8224645743744986,1.4456084038931605
-0.8224645743744986,1.3697430493471754
-0.8224645743744986,1.2908430806193174
-0.9130075637376781,1.2149777260733323
-0.777193079692909,1.1360777573455059
-0.7273944355431602,1.0511085602539638
-0.6368514461799807,0.9661393631624535
-0.5417813073486423,0.8842047802527858
-0.31089668447253455,0.8053048115249277
-0.22035369510935507,0.7355086853426265
-0.03474056691483713,0.6748164017058202
-0.03474056691483713,0.6171587322508553
-0.08001206159642688,0.5625356769777329
0.010530927766752613,0.5109472358864835
-0.03474056691483713,0.4654280231588864
-0.08001206159642688,0.4259780387949415
-0.08001206159642688,0.3895626686128696
-0.03474056691483713,0.35011268424895636
-0.1252835562780166,0.3106626998850432
0.010530927766752613,0.27121271552112997
0.010530927766752613,0.23176273115718507
0.010530927766752613,0.19231274679327257
-0.08001206159642688,0.1528627624293587
0.010530927766752613,0.11341277806544549
-0.08001206159642688,0.0739627937015323
-0.1252835562780166,0.034512809337619105
-0.1252835562780166,-0.0019025608444838337
-0.08001206159642688,-0.041352545208397026
-0.1252835562780166,-0.08080252957231022
-0.17055505095960635,-0.12025251393622342
-0.22035369510935507,-0.16577172666382056
-0.08001206159642688,-0.2203947819369436
0.010530927766752613,-0.27805245139190793
0.06032957191650133,-0.329640892483189
0.010530927766752613,-0.37516010521078613
0.06032957191650133,-0.4176447037565413
0.010530927766752613,-0.45709468812045445
-0.03474056691483713,-0.4965446724843677
-0.1252835562780166,-0.5359946568482815
-0.1252835562780166,-0.5754446412122257
-0.1252835562780166,-0.608825397212455
-0.08001206159642688,-0.6361369248490011
-0.03474056691483713,-0.6573792241218941
0.010530927766752613,-0.6604138383037361
-0.03474056691483713,-0.639171539030843
-0.08001206159642688,-0.587583097939562
-0.17055505095960635,-0.5086831292117355
-0.1252835562780166,-0.40550624702917343
-0.22035369510935507,-0.2689486088463827
-0.17055505095960635,-0.10507944302704529
-0.1252835562780166,0.07699740788337427
-0.1252835562780166,0.2681781013392887
-0.08001206159642688,0.4593587947952025
-0.1252835562780166,0.6232279606145392
-0.03474056691483713,0.7658548271610145
-0.08001206159642688,0.9145509220711724
-0.08001206159642688,1.0541431744358065
0.010530927766752613,1.1724931275275778
-0.03474056691483713,1.2726353955282972
-0.1252835562780166,1.3576045926198075
-0.08001206159642688,1.418296876256614
-0.1252835562780166,1.463816088984211
-0.03474056691483713,1.4911276166207563
-0.17055505095960635,1.5002314591662829
-0.22035369510935507,1.488093002438915
0.8027820846945731,1.457746860620527
2.8399993453661114,1.4152622620747726
4.78667361667447,1.3667084351653327
5.529126129452543,1.3181546082558944
2.0975468325880398,1.263531552982772
-0.2656251897909448,1.199804655164123
-0.03474056691483713,1.123939300618138
0.010530927766752613,1.0329008751629436
-0.4965098126670525,0.9297239929803829
-0.6368514461799807,0.8235124966159795
-0.5915799514983909,0.7173010002515747
-0.6368514461799807,0.6201933464326979
-0.8224645743744986,0.5352241493411876
-0.8677360690560884,0.4654280231588864
-0.8677360690560884,0.40170112534023744
-0.8677360690560884,0.34100884170343115
-0.9130075637376781,0.2833511722484662
-0.7273944355431602,0.2287281169753438
-0.777193079692909,0.1741050617022518
-0.8677360690560884,0.1225166206109714
-0.8677360690560884,0.07699740788337427
-0.8224645743744986,0.03754742351943005
-0.777193079692909,0.004166667519200104
-0.777193079692909,-0.026179474299187874
-0.777193079692909,-0.05349100193576421
-0.8677360690560884,-0.07776791539046826
-0.777193079692909,-0.09901021466336135
-0.8224645743744986,-0.12935635648174934
-0.8677360690560884,-0.1688063408456625
-0.8677360690560884,-0.2082563252095757
-0.8677360690560884,-0.25074092375533086
-0.8224645743744986,-0.296260136482959
-0.6821229408615704,-0.3387447350287149
-0.5915799514983909,-0.3781947193926281
-0.405966823303873,-0.4176447037565413
-0.17055505095960635,-0.4631639164841384
-0.1252835562780166,-0.5177869717572607
0.010530927766752613,-0.5724100270303838
0.06032957191650133,-0.6209638539398229
0.10560106659809107,-0.663448452485578
0.15087256127968082,-0.7089676652131752
0.291214194792609,-0.7544868779407723
0.33648568947419877,-0.7909022481228436
0.3817571841557885,-0.8212483899412626
0.33648568947419877,-0.8485599175778086
0.291214194792609,-0.8758714452143539
0.19614405596127055,-0.903182972850931
0.24594270011101926,-0.930494500487477
0.15087256127968082,-0.9638752564877372
0.15087256127968082,-1.000290626669809
0.010530927766752613,-1.0245675401245131
0.010530927766752613,-1.0488444535792476
-0.03474056691483713,-1.0791905953976355
-0.1252835562780166,-1.1125713513978654
-0.08001206159642688,-1.1429174932162838
-0.03474056691483713,-1.1732636350346717
-0.03474056691483713,-1.2005751626712489
-0.08001206159642688,-1.227886690307794
-0.03474056691483713,-1.258232832126182
0.010530927766752613,-1.288578973944601
0.15087256127968082,-1.3189251157629884
0.19614405596127055,-1.3492712575813763
0.10560106659809107,-1.3705135568542695
0.19614405596127055,-1.3796173993997953
0.15087256127968082,-1.3826520135816367
0.19614405596127055,-1.3765827852179533
0.10560106659809107,-1.3462366433995654
-0.03474056691483713,-1.288578973944601
-0.03474056691483713,-1.2005751626712489
-0.08001206159642688,-1.0731213670339517
-0.1252835562780166,-0.9092522012146148
-0.17055505095960635,-0.7150368935768592
-0.1252835562780166,-0.49351005830252637
-0.08001206159642688,-0.2568101521190148
-0.17055505095960635,-0.01707563175366197
-0.08001206159642688,0.18017429006593572
-0.1252835562780166,0.3561819126126403
-0.03474056691483713,0.5443279918867128
0.3817571841557885,0.7294394569789426
1.726320576199004,0.9024124653438059
3.8586079757018807,1.0511085602539638
5.850553741691829,1.1724931275275778
4.646331983161542,1.2696007813464545
0.9385965687393424,1.3485007500742823
-0.22035369510935507,1.406158419529246
-0.08001206159642688,1.4486430180750018
-0.22035369510935507,1.4789891598933897
-0.405966823303873,1.494162230802599
-0.5417813073486423,1.494162230802599
-0.6821229408615704,1.4850583882570738
-0.8224645743744986,1.4668507031660536
-0.8677360690560884,1.4334699471657928
-0.8677360690560884,1.384916120256353
-0.8677360690560884,1.3242238366195782
-0.8224645743744986,1.251393096255404
-0.9628062078874269,1.1694585133457351
-0.9130075637376781,1.0814547020723835
-0.8677360690560884,0.9904162766171892
-0.9628062078874269,0.8993778511619632
-0.9628062078874269,0.808339425706769
-1.0080777025690166,0.7294394569789426
-1.0533491972506064,0.6596433307966111
-0.9628062078874269,0.583777976250626
-1.0080777025690166,0.5079126217046409
-0.9130075637376781,0.43811649552230936
-0.8677360690560884,0.36832036934000817
-1.0080777025690166,0.30459347152135924
-1.0533491972506064,0.24390118788455295
-0.9130075637376781,0.18624351842958864
-0.8224645743744986,0.16803583333856853
-0.4965098126670525,0.1741050617022518
-0.2656251897909448,0.16500121915672655
0.010530927766752613,0.14679353406567544
0.10560106659809107,0.12555123479281335
0.24594270011101926,0.1012743213380783
0.24594270011101926,0.07699740788337427
0.24594270011101926,0.05272049442863921
0.10560106659809107,0.025408966792093195
0.06032957191650133,-0.007971789208167082
-0.03474056691483713,-0.047421773572080966
-0.1252835562780166,-0.0929409862996781
-0.08001206159642688,-0.13846019902727524
-0.17055505095960635,-0.18397941175487167
-0.17055505095960635,-0.22342939611878557
-0.22035369510935507,-0.26287938048269877
-0.1252835562780166,-0.296260136482959
-0.22035369510935507,-0.329640892483189
-0.22035369510935507,-0.3690908768471022
-0.08001206159642688,-0.4146100895746993
-0.03474056691483713,-0.46012930230229643
0.010530927766752613,-0.5026139008480516
0.06032957191650133,-0.5420638852119648
0.19614405596127055,-0.5815138695759097
0.24594270011101926,-0.6239984681216649
0.15087256127968082,-0.669517680849262
0.19614405596127055,-0.7180715077587004
0.15087256127968082,-0.7666253346681395
0.19614405596127055,-0.8060753190320528
0.10560106659809107,-0.8424906892141246
0.010530927766752613,-0.8789060593961958
-0.03474056691483713,-0.9092522012146148
0.010530927766752613,-0.9365637288511609
-0.03474056691483713,-0.9638752564877372
-0.08001206159642688,-0.9881521699424413
-0.22035369510935507,-1.003325240851651
-0.22035369510935507,-1.0063598550334925
-0.08001206159642688,-0.9942213983061252
0.010530927766752613,-0.9517367997603701
-0.03474056691483713,-0.8789060593961958
0.010530927766752613,-0.7757291772136344
0.010530927766752613,-0.663448452485578
0.010530927766752613,-0.5299254284846286
0.06032957191650133,-0.3630216484834182
0.010530927766752613,-0.1809447975730304
-0.03474056691483713,0.010235895882884042
0.010530927766752613,0.19838197515695583
-0.08001206159642688,0.38349344024918564
-0.1252835562780166,0.553431834432238
-0.08001206159642688,0.7112317718878922
-0.17055505095960635,0.8508240242525248
-0.1252835562780166,0.9631047489806122
-0.22035369510935507,1.0511085602539638
-0.17055505095960635,1.108766229708929
-0.08001206159642688,1.1421469857091582
-0.22035369510935507,1.1694585133457351
-0.1252835562780166,1.1907008126185978
-0.08001206159642688,1.199804655164123
-0.1252835562780166,1.199804655164123
-0.03474056691483713,1.1876661984367551
-0.08001206159642688,1.1664238991638938
0.010530927766752613,1.1330431431636645
0.010530927766752613,1.0875239304360673
0.010530927766752613,1.0359354893447863
0.010530927766752613,0.9752432057079801
0.010530927766752613,0.9024124653438059
-0.03474056691483713,0.8295817249796621
-0.08001206159642688,0.7506817562518356
0.010530927766752613,0.6626779449784523
0.010530927766752613,0.5746741337051008
0.06032957191650133,0.48970493661359044
0.010530927766752613,0.4138395820676053
-0.03474056691483713,0.34404345588527246
-0.08001206159642688,0.2772819438847822
-0.22035369510935507,0.21962427442984891
-0.2656251897909448,0.1741050617022518
-0.17055505095960635,0.14072430570199151
-0.22035369510935507,0.10734354970176156
0.010530927766752613,0.07699740788337427
0.10560106659809107,0.05272049442863921
0.15087256127968082,0.028443580973935165
0.10560106659809107,0.004166667519200104
0.06032957191650133,-0.020110245935503937
0.010530927766752613,-0.047421773572080966
0.010530927766752613,-0.071698687026785
0.010530927766752613,-0.10507944302704529
0.010530927766752613,-0.14452942739095848
0.06032957191650133,-0.18701402593671365
0.010530927766752613,-0.22646401030062754
0.010530927766752613,-0.26287938048269877
0.19614405596127055,-0.29322552230111776
0.15087256127968082,-0.3175024357558211
0.15087256127968082,-0.3417793492105562
0.06032957191650133,-0.37212549102894416
0.010530927766752613,-0.40854086121101535
0.010530927766752613,-0.44495623139308726
0.010530927766752613,-0.48137160157518954
0.06032957191650133,-0.5208215859391028
0.10560106659809107,-0.5663407986666998
0.15087256127968082,-0.608825397212455
0.10560106659809107,-0.645240767394527
0.06032957191650133,-0.6816561375765982
0.15087256127968082,-0.7150368935768592
0.010530927766752613,-0.7393138070315625
0.010530927766752613,-0.7575214921226143
0.06032957191650133,-0.7787637913954764
0.06032957191650133,-0.8030407048502114
0.15087256127968082,-0.8273176183049148
0.15087256127968082,-0.8546291459414919
0.06032957191650133,-0.8880099019417218
-0.08001206159642688,-0.9274598863056349
-0.03474056691483713,-0.9669098706695481
-0.03474056691483713,-1.000290626669809
0.010530927766752613,-1.0336713826700383
0.010530927766752613,-1.0609829103066155
0.06032957191650133,-1.0822252095794775
0.10560106659809107,-1.1004328946705286
0.10560106659809107,-1.1125713513978654
0.15087256127968082,-1.1247098081252327
0.19614405596127055,-1.1368482648526006
0.19614405596127055,-1.1489867215799676
0.19614405596127055,-1.1611251783073038
0.10560106659809107,-1.1732636350346717
0.15087256127968082,-1.185402091762039
0.7077119458632346,-1.1975405484894068
2.423501594295486,-1.2187828477622689
4.646331983161542,-1.243059761217004
6.131237008717686,-1.267336674671708
4.184562737409327,-1.2855443597627592
0.662440451181645,-1.3067866590356212
-0.03474056691483713,-1.3310635724903563
0.06032957191650133,-1.3583751001269022
-0.3561681791541243,-1.3765827852179533
-0.5417813073486423,-1.3856866277634785
-0.6368514461799807,-1.3917558561271626
-0.6368514461799807,-1.3947904703090046
-0.5915799514983909,-1.3947904703090046
-0.5915799514983909,-1.3947904703090046
-0.5915799514983909,-1.3947904703090046
-0.6368514461799807,-1.3947904703090046
-0.6368514461799807,-1.3947904703090046
-0.6368514461799807,-1.3917558561271626
-0.6368514461799807,-1.3947904703090046
-0.6821229408615704,-1.4038943128544987
-0.777193079692909,-1.4190673837637084
-0.7273944355431602,-1.4403096830366016
-0.7273944355431602,-1.4615519823094636
-0.8224645743744986,-1.479759667400515
-0.8677360690560884,-1.4888635099460408
-0.6821229408615704,-1.491898124127851
-0.777193079692909,-1.4949327383096929
-0.7273944355431602,-1.4949327383096929
-0.8224645743744986,-1.4949327383096929
-0.8224645743744986,-1.4888635099460408
-0.8677360690560884,-1.479759667400515
-0.8677360690560884,-1.479759667400515
-0.8677360690560884,-1.4888635099460408
-0.8224645743744986,-1.501001966673377
-0.7273944355431602,-1.519209651764428
-0.5417813073486423,-1.534382722673638
-0.3561681791541243,-1.546521179400974
-0.1252835562780166,-1.5586596361283411
0.06032957191650133,-1.5677634786738672
0.291214194792609,-1.579901935401235
0.33648568947419877,-1.5890057779467293
0.43155582830553724,-1.592040392128571
0.24594270011101926,-1.5890057779467293
0.291214194792609,-1.579901935401235
0.33648568947419877,-1.576867321219393
0.3817571841557885,-1.573832707037551
0.3817571841557885,-1.573832707037551
0.43155582830553724,-1.573832707037551
0.43155582830553724,-1.573832707037551
0.43155582830553724,-1.573832707037551
0.476827322987127,-1.573832707037551
0.43155582830553724,-1.576867321219393
0.43155582830553724,-1.5859711637649183
0.476827322987127,-1.6041788488559383
0.476827322987127,-1.6163173055833062
0.33648568947419877,-1.62238653394699
0.476827322987127,-1.6314903764925153
0.43155582830553724,-1.6405942190380103
0.476827322987127,-1.6466634474016941
0.476827322987127,-1.6557672899472193
0.43155582830553724,-1.6679057466745872
0.24594270011101926,-1.6800442034019545
0.24594270011101926,-1.6891480459474493
0.24594270011101926,-1.6921826601292906
0.24594270011101926,-1.6800442034019545
0.19614405596127055,-1.6496980615835355
0.15087256127968082,-1.5890057779467293
0.19614405596127055,-1.5070711950370608
0.10560106659809107,-1.4008596986726574
0.15087256127968082,-1.2491289895806872
0.19614405596127055,-1.0579482961247735
0.15087256127968082,-0.8333868466685987
0.24594270011101926,-0.58454848375772
0.291214194792609,-0.3175024357558211
0.33648568947419877,-0.047421773572080966
0.3817571841557885,0.21658966024800763
0.33648568947419877,0.4684626373406973
0.24594270011101926,0.7021279293423973
0.33648568947419877,0.9145509220711724
0.3817571841557885,1.0814547020723835
0.19614405596127055,1.211943111891491
0.010530927766752613,1.3393969075287557
-0.03474056691483713,1.4607814748023698
-0.03474056691483713,1.570027585348584
0.010530927766752613,1.6610660108038087
-0.03474056691483713,1.73086213698611
-0.03474056691483713,1.7854851922592323
0.010530927766752613,1.8249351766231454
0.010530927766752613,1.8492120900778812
0.10560106659809107,1.858315932623376
0.06032957191650133,1.8552813184415333
0.291214194792609,1.8461774758960385
1.6357775868358244,1.821900562441304
3.7182663421889526,1.7885198064410748
5.619669118815722,1.7490698220771617
5.990895375204758,1.7035506093495645
1.4954359533228962,1.6519621682582835
0.010530927766752613,1.5912698846214772
0.24594270011101926,1.524508372620987
-0.03474056691483713,1.4516776322568432
-0.22035369510935507,1.3818815060745115
-0.45123831798546277,1.3151199940740517
-0.5417813073486423,1.2453238678917202
-0.5915799514983909,1.1724931275275778
-0.6368514461799807,1.1057316155270875
-0.6821229408615704,1.0450393318902813
-0.6821229408615704,0.9843470482535053
-0.7273944355431602,0.9297239929803829
-0.6821229408615704,0.8811701660709431
-0.7273944355431602,0.835650953343346
-0.5915799514983909,0.7992355831612755
-0.6368514461799807,0.7658548271610145
-0.6368514461799807,0.7264048427971013
-0.5915799514983909,0.6808856300695042
-0.6821229408615704,0.6323318031600644
-0.6368514461799807,0.5868125904324673
-0.5915799514983909,0.547362606068554
-0.6368514461799807,0.5139818500683248
-0.7273944355431602,0.4866703224317478
-0.8677360690560884,0.4593587947952025
-0.8224645743744986,0.42901265297678276
-0.8677360690560884,0.3956318969765535
-0.7273944355431602,0.35921652679448296
-0.6368514461799807,0.32280115661241104
-0.5417813073486423,0.2833511722484662
-0.22035369510935507,0.23783195952086902
0.06032957191650133,0.18927813261143062
0.19614405596127055,0.14072430570199151
0.3817571841557885,0.0921704787925524
0.43155582830553724,0.04665126606495527
0.43155582830553724,0.007201281701042073
0.43155582830553724,-0.03831793102655506
0.3817571841557885,-0.047421773572080966
0.43155582830553724,-0.029214088481029153
0.3817571841557885,-0.03224870266287112
0.24594270011101926,-0.044387159390238996
0.10560106659809107,-0.059560230299417136
0.15087256127968082,-0.08383714375415219
0.10560106659809107,-0.11418328557254018
0.06032957191650133,-0.14452942739095848
-0.03474056691483713,-0.17791018339118844
0.010530927766752613,-0.20522171102773443
0.010530927766752613,-0.2294986244824688
0.06032957191650133,-0.2568101521190148
0.10560106659809107,-0.2871562939374338
0.19614405596127055,-0.3205370499376631
0.24594270011101926,-0.353917805937893
0.291214194792609,-0.38426394775631134
0.3817571841557885,-0.40854086121101535
0.33648568947419877,-0.43281777466575044
0.291214194792609,-0.45406007393861253
0.43155582830553724,-0.47833698739334757
0.5220988176687167,-0.49957928666620965
0.43155582830553724,-0.5208215859391028
0.3817571841557885,-0.5359946568482815
2.0522753379064502,-0.5420638852119648
4.324904370922255,-0.5511677277574907
6.176508503399275,-0.5572369561211746
6.271578642230614,-0.5602715703030167
1.4048929639597167,-0.5542023419393327
0.24594270011101926,-0.5329600426664706
0.15087256127968082,-0.49047544412068445
-0.2656251897909448,-0.42371393212022523
-0.5417813073486423,-0.329640892483189
-0.6821229408615704,-0.21432555357325966
-0.7273944355431602,-0.07776791539046826
-0.7273944355431602,0.05575510861048118
-0.777193079692909,0.18927813261143062
-0.5915799514983909,0.3470780700671151
-0.6368514461799807,0.5139818500683248
-0.45123831798546277,0.6748164017058202
-0.45123831798546277,0.8265471107978208
-0.4965098126670525,0.9631047489806122
-0.5915799514983909,1.0844893162542248
-0.6368514461799807,1.184631584254914
-0.5915799514983909,1.263531552982772
-0.777193079692909,1.3181546082558944
-0.8224645743744986,1.3576045926198075
-0.8224645743744986,1.3818815060745115
-0.7273944355431602,1.3879507344381956
-0.8224645743744986,1.384916120256353
-0.8677360690560884,1.3727776635290168
-0.8677360690560884,1.3576045926198075
-0.8224645743744986,1.3393969075287557
-0.6368514461799807,1.3151199940740517
-0.45123831798546277,1.287808466437476
-0.31089668447253455,1.2574623246190881
-0.1252835562780166,1.2240815686188589
0.10560106659809107,1.181596970073103
0.291214194792609,1.1330431431636645
0.291214194792609,1.0753854737086996
0.24594270011101926,1.0177278042537345
0.33648568947419877,0.9600701347987696
0.3817571841557885,0.896343236980122
0.19614405596127055,0.8295817249796621
0.15087256127968082,0.7628202129791719
0.06032957191650133,0.6990933151605546
0.06032957191650133,0.6384010315237483
-0.03474056691483713,0.5807433620687847
