ECG,PPG
-0.5023403916267442,-0.10645525952989386
-0.46844321813353634,-0.12965351147268317
-0.37109748912740115,-0.1352530895278392
-0.34936853175996024,-0.15685146202629824
-0.3267704160978217,-0.1760500153582618
-0.31373304167735716,-0.19364868924589507
-0.318947991445543,-0.21444712202218894
-0.3458918985811697,-0.2352455547984828
-0.38413486354786563,-0.2560439875747767
-0.4267236199880498,-0.2720427820180797
-0.47626564278581507,-0.2840418778505569
-0.5318917736464638,-0.2928412147943735
-0.5883870628018101,-0.30164055173819015
-0.6335832941260872,-0.30963994895984165
-0.6640038344405045,-0.32083910507015373
-0.677041208860969,-0.33363814062479613
-0.6683496259139926,-0.34883699534593393
-0.6379290855995754,-0.36563572951140205
-0.590994537685903,-0.3840343431212005
-0.5336300902358591,-0.4024329567309989
-0.47365816790172216,-0.4232313895072928
-0.42324698680925926,-0.4440298222835866
-0.3971722379683302,-0.46722807422637597
-0.39891055455772545,-0.49042632616916526
-0.4267236199880498,-0.5144245178341197
-0.4649665849547458,-0.5360228903325788
-0.49538712526916306,-0.5584212025532029
-0.5084244996896277,-0.5784196956073316
-0.5049478665108371,-0.5984181886614603
-0.497994600153256,-0.6152169228269285
-0.5023403916267442,-0.634415476158892
-0.5258076655835804,-0.6512142103243602
-0.5614431556661834,-0.6728125828228192
-0.5979478040434841,-0.6936110155991131
-0.619676761410925,-0.7232087853192236
-0.6309758192419943,-0.7512066755950038
-0.6214150780003203,-0.7864040233702703
-0.622284236295018,-0.8160017930903808
-0.6083777035798558,-0.8479993819769868
-0.6135926533480416,-0.8703976941976109
-0.6049010704010652,-0.8951958255847305
-0.6049010704010652,-0.9127944994723638
-0.5970786457487864,-0.9367926911373183
-0.590994537685903,-0.9551913047471167
-0.581433796444229,-0.9807893758564015
-0.5736113717919503,-1.0015878086326953
-0.564919788844974,-1.0279858194641451
-0.5588356807820904,-1.0487842522404391
-0.5553590476032999,-1.0743823233497238
-0.5501440978351141,-1.0959806958481828
-0.526676823878278,-1.1215787669574677
-0.4458451024713978,-1.1431771394559267
-0.24593869469094154,-1.1679752708430462
0.14431337962829704,-1.1903735830636704
0.7709765101052927,-1.214371774728625
1.6123217393726044,-1.236770086949249
2.5475360644672604,-1.2615682183363688
3.3775822359035033,-1.283966530556993
3.886908996596318,-1.3079647222219473
3.9347127028046875,-1.3303630344425714
3.5244699877074037,-1.3551611658296912
2.802199444813668,-1.3775594780503153
1.9895364392713784,-1.4023576094374348
1.2872565371556883,-1.4255558613802242
0.7944437840621288,-1.4527538119338392
0.4980608055702349,-1.4791518227652891
0.3242291466307077,-1.5087495924853997
0.19298624413136467,-1.5367474827611798
0.0634816582214169,-1.5663452524812904
-0.06602292768853088,-1.5927432633127403
-0.17901350599922355,-1.6199412138663554
-0.261583543995499,-1.6431394658091447
-0.31547135826675243,-1.6687375369184294
-0.3458918985811697,-1.6903359094168884
-0.3554526398228437,-1.715134040804008
-0.3458918985811697,-1.735932473580302
-0.32503209950842643,-1.7591307255230912
-0.309387250203869,-1.7775293391328897
-0.3033031421409855,-1.7967278924648533
-0.3241629412137288,-1.807127108853
-0.3441535819917744,-1.8159264457968167
-0.3702283308327035,-1.8127266869081562
-0.3650133810645177,-1.807127108853
-0.3458918985811697,-1.790328374687532
-0.3076489336144737,-1.7727297007998988
-0.271144285237173,-1.7431319310797881
-0.2398545866280581,-1.7111343421931824
-0.21986394585001245,-1.6687375369184294
-0.2068265714295479,-1.6223410330328507
-0.20769572972424555,-1.5663452524812904
-0.21899478755531482,-1.5071497130410694
-0.24854616957503445,-1.4359550777683712
-0.29200408430991626,-1.360760743884847
-0.34241526540237915,-1.273567314168846
-0.39195728820014436,-1.1807743063976888
-0.43454604464032853,-1.0791819616827147
-0.469312376428234,-0.9767896772455757
-0.49712544185855834,-0.8687978147532807
-0.5188543992259993,-0.763205771427481
-0.536237565119952,-0.6552139089351859
-0.536237565119952,-0.5496218656093863
-0.517116082636604,-0.4432298825614215
-0.4745273261964198,-0.3400376584021173
-0.4171628787463758,-0.23924525340930855
-0.3511068483493555,-0.14245254702732557
-0.28939660942582335,-0.04725972008967286
-0.22855552879698882,0.0439334082371541
-0.1729293979363401,0.12872701878665987
-0.11121915901280795,0.20312141294801872
-0.046901445205182885,0.26471677155473516
0.025238693254720907,0.31191321516247894
0.09216388194643887,0.3463106232155803
0.16691149529043559,0.37750827238002116
0.24426658351852518,0.4111057407109574
0.3494347371769391,0.45270260626354514
0.4789393230868869,0.4998990498712889
0.6475560322582283,0.5510951920898585
0.8335559073235224,0.5998915151419325
1.0291165236304904,0.6462880190275111
1.2029481825700177,0.6862850051357685
1.3585275173208946,0.7238821720775306
1.4915087364096329,0.7574796404084668
1.6279665886771617,0.7918770484615681
1.7774618153651551,0.823074697626009
1.949555157715287,0.8550722865126149
2.1277326081283023,0.8846700562327254
2.2963493172996436,0.9150677656750011
2.4328071695671727,0.9422657162286162
2.5405827981096794,0.9694636667822312
2.6240219944006524,0.9926619187250205
2.7031153992181376,1.016660110389975
2.785685437214413,1.0366586034441037
2.868255475210688,1.0566570964982325
2.9325731890183135,1.0718559512193702
2.9612554127433355,1.0862548662183429
2.938657297081197,1.0958541428843247
2.862171367147805,1.102253660661646
2.73527425612195,1.1046534798281413
2.5683958635400037,1.1054534195503065
2.3728352472330356,1.102253660661646
2.1564148318533243,1.097454022328655
1.9226112505796604,1.0886546853848384
1.6827235612431128,1.0774555292745263
1.4454433467906582,1.0638565539977187
1.2272846148215515,1.049457638998746
1.0386772648721645,1.0334588445554431
0.8865745633000782,1.0182599898343052
0.7674998769265021,1.000661315946672
0.6727616228044597,0.9830626420590387
0.5841074767453008,0.96306414900491
0.495453330686142,0.9422657162286162
0.4041917097428902,0.9206673437301571
0.3155375636837313,0.9014687903981936
0.23470584227685118,0.8814702973440649
0.17038812846922613,0.8646715631785967
0.1217152639661585,0.8486727687352937
0.09650967341992706,0.8366736729028166
0.0878180904729507,0.823074697626009
0.10085546489341524,0.8142753606821924
0.12345358055555378,0.8030762045718803
0.15387412086997104,0.796676686794559
0.17734139482680722,0.7862774704064122
0.19298624413136467,0.7814778320734213
0.1912479275419694,0.7726784951296046
0.1816871863002954,0.769478736240944
0.15908907063815686,0.7630792184636228
0.12779937202904196,0.7630792184636228
0.0782573492312767,0.7582795801306319
0.011332160539558728,0.7574796404084668
-0.07906030210899542,0.7510801226311457
-0.17901350599922355,0.7486803034646502
-0.27983586818414935,0.7406809062429986
-0.3597984312963319,0.7374811473543381
-0.41368624556758526,0.731881569299182
-0.4388918361138167,0.731081629577017
-0.44671426076609544,0.7286818104105215
-0.4475834190607931,0.7294817501326866
-0.45453668541837416,0.7286818104105215
-0.46844321813353634,0.7294817501326866
-0.48582638402748907,0.7270819309661911
-0.5014712333320466,0.7254820515218608
-0.517116082636604,0.7206824131888699
-0.5301534570570685,0.715882774855879
-0.5431908314775331,0.710283196800723
-0.5492749395404165,0.7054835584677321
-0.5440599897722307,0.7014838598569064
-0.5205927158153946,0.699084040690411
-0.4797422759646056,0.6958842818017503
-0.43280772805093326,0.6934844626352549
-0.39195728820014436,0.6894847640244292
-0.36588253935921533,0.6846851256914382
-0.3580601147069366,0.6774856681919519
-0.3606675895910295,0.6702862106924656
-0.36675169765391297,0.6622868134708141
-0.3693591725380059,0.6550873559713277
-0.3650133810645177,0.6462880190275111
-0.3606675895910295,0.6390885615280247
-0.36153674788572715,0.6310891643063733
-0.37631243889558696,0.6238897068068869
-0.4076021375047018,0.6150903698630703
-0.45453668541837416,0.6086908520857491
-0.5127702911631158,0.5998915151419325
-0.5779571632654384,0.5926920576424461
-0.6414057187783659,0.5830927809764643
-0.7013776411125028,0.5742934440326477
-0.7517888222049657,0.5614944084780054
-0.7865551539928711,0.5494953126455281
-0.7969850535292428,0.5334965182022251
-0.7778635710458948,0.5206974826475828
-0.7309290231322224,0.5062985676486101
-0.6709571007980856,0.49749923070479346
-0.6118543367586463,0.48789995403881165
-0.5753496883813456,0.48150043626149047
-0.5657889471396715,0.4719011595955087
-0.5796954798548337,0.4623018829295269
-0.5962094874540889,0.44790296793055423
-0.600555278927577,0.43350405293158156
-0.5857795879177172,0.41670531876611344
-0.5544898893086023,0.4015064640449756
-0.5179852409313016,0.38470772987950747
-0.48495722573279143,0.36950887515836967
-0.45453668541837416,0.3535100807150667
-0.4171628787463758,0.3383112259939288
-0.36414422276982006,0.3223124315506259
-0.30156482555159025,0.30711357682948803
-0.2476770112803368,0.29111478238618504
-0.22681721220759354,0.27591592766504724
-0.252022802753825,0.25991713322174426
-0.3241629412137288,0.2439183387784413
-0.4171628787463758,0.22711960461297317
-0.5023403916267442,0.21032087044750505
-0.552751572719207,0.1919222568377066
-0.5631814722555787,0.1719237637835779
-0.5431908314775331,0.14952545156295374
-0.50755534139493,0.12392738045366898
-0.47105069301762925,0.09672942990005393
-0.44236846929260726,0.06713166017994342
-0.421508670219864,0.037533890459832915
-0.41107877068349236,0.009536000184052706
-0.41368624556758526,-0.016062070925232055
-0.43715351952442144,-0.03846038314585622
-0.4840880674380938,-0.05765893647781979
-0.5553590476032999,-0.07525761036545306
-0.638798243894273,-0.09125640480875603
-0.7231065984799437,-0.10805513897422417
-0.7909009454663594,-0.12325399369536198
-0.8326205436118459,-0.13925278813866496
-0.8421812848535198,-0.15445164285980278
-0.8265364355489624,-0.17045043730310577
-0.7874243122875688,-0.1856492920242436
-0.7396206060791988,-0.20244802618971172
-0.6848636335132477,-0.21844682063301468
-0.6361907690101801,-0.23684543424281312
-0.5936020125699959,-0.2560439875747767
-0.5657889471396715,-0.2776423600732357
-0.5579665224873929,-0.29844079284952957
-0.5657889471396715,-0.31923922562582346
-0.5996861206328794,-0.338437778957787
-0.6379290855995754,-0.3568363925675854
-0.6892094249867359,-0.3744350664552187
-0.7291907065428271,-0.3928336800650171
-0.7543962970890586,-0.4120322333969807
-0.7578729302678492,-0.4336306058954397
-0.741358922668594,-0.4560289181160639
-0.7187608070064555,-0.4792271700588532
-0.7048542742912933,-0.5024254220016425
-0.715284173827665,-0.526423613666597
-0.7483121890261751,-0.5488219258872211
-0.7943775786451499,-0.5728201175521755
-0.8230598023701718,-0.5960183694949649
-0.8004616867080333,-0.6200165611599193
-0.6761720505662714,-0.6416149336583784
-0.3997797128524231,-0.6632133061568374
0.07912650752597433,-0.6816119197666358
0.7735839849893855,-0.7008104730985995
1.6340506967400452,-0.7184091469862327
2.5223304739210293,-0.7376077003181962
3.2402552253412766,-0.7560063139279947
3.590526018104424,-0.7784046261486188
3.468843856846755,-0.7984031192027475
2.907367598472082,-0.8200014917012066
2.0790597436252347,-0.838400105311005
1.2125089238116917,-0.8583985983651337
0.505014071927816,-0.8743973928084366
0.03306111790699963,-0.8951958255847305
-0.22855552879698882,-0.9119945597501987
-0.3806582303690751,-0.9359927514151531
-0.5066861831002324,-0.9551913047471167
-0.6518356183147376,-0.9815893155785667
-0.801330845002731,-1.0015878086326953
-0.9282279560285858,-1.0287857591863103
-0.9994989361937919,-1.0487842522404391
-1.025573685034721,-1.075182263071889
-1.016012943793047,-1.0959806958481828
-1.0003680944884896,-1.1223787066796327
-0.9821157702998392,-1.1423771997337615
-0.9699475541740723,-1.1687752105652114
-0.9612559712270959,-1.1895736433415054
-0.9386578555649574,-1.2159716541729553
-0.9143214233134236,-1.236770086949249
-0.8656485588103561,-1.2623681580585338
-0.8282747521383577,-1.283966530556993
-0.7839476791087783,-1.3087646619441125
-0.7622187217413373,-1.3295630947204062
-0.7526579804996634,-1.3519614069410304
-0.7613495634466397,-1.3695600808286639
-0.7769944127511972,-1.3895585738827925
-0.7935084203504522,-1.4047574286039304
-0.8065457947709168,-1.4207562230472333
-0.820452327486079,-1.4319553791575454
-0.8326205436118459,-1.4431545352678574
-0.8421812848535198,-1.450353992767344
-0.8421812848535198,-1.4583533899889953
-0.8247981189595671,-1.467152726932812
-0.7813402042246853,-1.4807517022096195
-0.7178916487117579,-1.4959505569307572
-0.648358985135947,-1.5167489897070512
-0.5979478040434841,-1.5383473622055102
-0.5779571632654384,-1.5623455538704647
-0.5953403291593912,-1.5847438660910889
-0.6327141358313896,-1.6095419974782084
-0.6761720505662714,-1.6327402494209977
-0.7005084828178052,-1.6599381999746128
-0.7074617491753863,-1.6855362710838975
-0.6926860581655264,-1.715134040804008
-0.6744337339768761,-1.741532051635458
-0.6474898268412493,-1.7711298213555684
-0.619676761410925,-1.7943280732983578
-0.5736113717919503,-1.817526325241147
-0.517116082636604,-1.832725179962285
-0.43020025316684035,-1.849523914127753
-0.3267704160978217,-1.8583232510715697
-0.19378919700908337,-1.8671225880153863
-0.04950892008927579,-1.8639228291267258
0.11389283931387978,-1.8535236127385788
0.27468712383294247,-1.8231259032963032
0.4398271998254933,-1.7807290980215502
0.5971448511657654,-1.7215335585813292
0.7614157688636186,-1.6567384410859523
0.9265558448561695,-1.5831439866467585
1.0969108706169062,-1.51034947192973
1.259443471725364,-1.4287556202688847
1.4115461732974504,-1.3447619494415441
1.5480040255649792,-1.252768881392552
1.6783777697696247,-1.1575760544548994
1.8174430969212463,-1.0543838302955952
1.9704149567880302,-0.9503916664141259
2.1329475578964883,-0.8415998641996656
2.284181101173877,-0.731208182540875
2.40064831266336,-0.6160168625490936
2.46322770988159,-0.5008255425573122
2.4710501345338685,-0.38563422256553076
2.4380221193353586,-0.2728427217402448
2.386741779948198,-0.16405091952578457
2.3259006993193636,-0.06005875564431524
2.254629719154157,0.03993370962632836
2.15815314844272,0.13432659684181592
2.026041087648679,0.22471978544647772
1.8487327955303612,0.3095133959959835
1.6349198550347428,0.3895073682124984
1.3967704822875906,0.46470170209602235
1.147322051709369,0.5342964579243903
0.8935278296576593,0.6006914548640977
0.6397336076059496,0.6606869340264838
0.39810760168000675,0.7182825940223745
0.17647223653210958,0.7686787965187789
-0.005181847059696355,0.8158752401265227
-0.14598549080071338,0.8582720454012756
-0.24333121980684863,0.8998689109538632
-0.3146021999720548,0.9374660778956253
-0.3597984312963319,0.9774630640038827
-0.3980413962630278,1.0134603515013143
-0.4197703536304687,1.0502575787209112
-0.44236846929260726,1.0798553484410218
-0.45627500200776944,1.1094531181611322
-0.4797422759646056,1.1326513701039216
-0.4988637584479536,1.1582494412132063
-0.5223310324047898,1.1790478739895003
-0.5223310324047898,1.2030460656544546
-0.5049478665108371,1.2238444984307486
-0.45366752712367653,1.2462428106513728
-0.3902189716107491,1.2646414242611712
-0.31634051656145007,1.2838399775931346
-0.25376111934322026,1.2982388925921073
-0.19813498848257155,1.3142376870354104
-0.15728454863178265,1.3246369034235572
-0.12077990025448194,1.3358360595338694
-0.09122851823476232,1.3422355773111905
-0.06863040257262379,1.3486350950885118
-0.05733134474155452,1.3518348539771723
-0.05646218644685688,1.3542346731436679
-0.06602292768853088,1.3526347936993375
-0.08166777699308833,1.349435034810677
-0.1051350509499245,1.3414356375890255
-0.1390322244431323,1.3302364814787133
-0.18596677235680464,1.3158375664797406
-0.2450695363962439,1.3014386514807679
-0.309387250203869,1.2838399775931346
-0.3676208559486106,1.268641122871997
-0.41194792897819,1.2510424489843637
-0.4380226778191191,1.2334437750967304
-0.4458451024713978,1.2126453423204364
-0.440630152703212,1.1926468492663078
-0.4241161451039569,1.1710484767678486
-0.402387187736516,1.1518499234358852
-0.3771815971902846,1.1310514906595912
-0.35458348152814606,1.1142527564941231
-0.338069473928891,1.0958541428843247
-0.3241629412137288,1.0830551073296824
-0.30417230043568316,1.0686561923307096
-0.2720134435318706,1.0606567951090582
-0.22420973732350064,1.0502575787209112
-0.16945276475754956,1.0454579403879203
-0.1173032670756914,1.0342587842776083
-0.0834060935824836,1.0262593870559569
-0.06776124427792615,1.0094606528904886
-0.06949956086732142,0.9982614967801766
-0.07645282722490251,0.9798628831703782
-0.08253693528778597,0.9678637873379009
-0.08427525187718124,0.9526649326167631
-0.0886210433506694,0.9446655353951117
-0.10078925947643631,0.9310665601183041
-0.12773316661206305,0.9230671628966526
-0.16684528987345665,0.909468187619845
-0.21812562926061718,0.8998689109538632
-0.27462091841596353,0.8846700562327254
-0.3311162075713099,0.8734709001224134
-0.3815273886637727,0.8590719851234407
-0.42585446169335217,0.8494727084574589
-0.46409742666004816,0.8382735523471468
-0.5006020750373489,0.8310740948476605
-0.5388450400040449,0.823074697626009
-0.581433796444229,0.8158752401265227
-0.6240225528844132,0.8054760237383757
-0.657919726377621,0.7934769279058985
-0.6744337339768761,0.7766781937404303
-0.6692187842086903,0.7566797006863016
-0.6457515102518541,0.7342813884656775
-0.610116020169251,0.7126830159672185
-0.5727422134972526,0.6926845229130898
-0.5397141982987426,0.6782856079141171
-0.5110319745737205,0.6654865723594747
-0.4840880674380938,0.6550873559713277
-0.45453668541837416,0.645488079305346
-0.4171628787463758,0.6358888026393642
-0.37370496401149406,0.6230897670847219
-0.32590125780312407,0.6094907918079143
-0.28244334306824226,0.5942919370867764
-0.24941532786973208,0.5766932631991432
-0.23203216197577936,0.5566947701450145
-0.23377047856517463,0.5366962770908857
-0.24593869469094154,0.5142979648702616
-0.25810691081670845,0.495099411538298
-0.252022802753825,0.47430097876200417
-0.22420973732350064,0.45670230487437086
-0.17466771452573537,0.43830369126457247
-0.12338737513857485,0.42070501737693916
-0.08775188505597178,0.3999065846006453
-0.08688272676127415,0.37990809154651656
-0.11991074195978431,0.3583097190480576
-0.17814434770452592,0.3383112259939288
-0.23724711174396518,0.3183127329398001
-0.28244334306824226,0.30071405905216686
-0.30417230043568316,0.2823154454423684
-0.30677977531977607,0.26391683183257003
-0.3006956672568926,0.2439183387784413
-0.3033031421409855,0.22311990600214743
-0.32503209950842643,0.20072159378152327
-0.3745741223061917,0.1783232815608991
-0.44497594417670017,0.15432508989594462
-0.5258076655835804,0.13112683795315533
-0.5988169623381817,0.10712864628820086
-0.6492281434306446,0.08393039434541154
-0.6692187842086903,0.059932202680457076
-0.6622655178511092,0.03673395073766776
-0.6405365604836682,0.01353569879487845
-0.6170692865268321,-0.009662553147910865
-0.600555278927577,-0.03366074481286533
-0.590994537685903,-0.056858996755654645
-0.581433796444229,-0.08005724869844395
-0.564919788844974,-0.10405544036339842
-0.5379758817093473,-0.12725369230618774
-0.49973291674265125,-0.1512518839711422
-0.4571441603024671,-0.17365019619176636
-0.41368624556758526,-0.19764838785672081
-0.3693591725380059,-0.22084663979951014
-0.32068630803493825,-0.2448448314644646
-0.2624527022901966,-0.2680430834072539
-0.19292003871438573,-0.2920412750722084
-0.1173032670756914,-0.31443958729283256
-0.04516312861578761,-0.33923771867995217
0.014808793718349273,-0.36163603090057633
0.05131344209564999,-0.38643416228769595
0.06782744969490508,-0.4088324745083201
0.06000502504262634,-0.43283066617327454
0.03566859279109254,-0.45522897839389875
-0.0060510053543939915,-0.4800271097810183
-0.05472386985746161,-0.5024254220016425
-0.10600420924462213,-0.5272235533887621
-0.14685464909541102,-0.5488219258872211
-0.17901350599922355,-0.5736200572743407
-0.20334993825075737,-0.5960183694949649
-0.2355087951545699,-0.6208165008820845
-0.27722839330005644,-0.6424148733805435
-0.3311162075713099,-0.6672130047676631
-0.38239654695847036,-0.6904112567104524
-0.4223778285145616,-0.7160093278197373
-0.44410678588200253,-0.7384076400403614
-0.4606207934812576,-0.7608059522609856
-0.4866955423221867,-0.7784046261486188
-0.5353684068252543,-0.7944034205919218
-0.6040319121063675,-0.8040026972579036
-0.6761720505662714,-0.8152018533682157
-0.734405656311013,-0.8280008889228581
-0.7639570383307326,-0.8455995628104913
-0.7648261966254303,-0.8647981161424549
-0.7430972392579893,-0.8879963680852442
-0.7109383823541768,-0.9119945597501987
-0.6753028922715737,-0.9367926911373183
-0.6431440353677612,-0.9591910033579425
-0.6179384448215297,-0.9831891950228969
-0.5988169623381817,-1.0063874469656862
-0.5866487462124148,-1.0303856386306407
-0.5770880049707409,-1.0527839508512649
-0.5640506305502763,-1.0775820822383844
-0.5423216731828354,-1.0999803944590085
-0.5092936579843252,-1.1247785258461283
-0.4632282683653505,-1.1463768983445872
-0.4076021375047018,-1.171974969453872
-0.34502274028647206,-1.1935733419523311
-0.28418165965763753,-1.2191714130616158
-0.2302938453863841,-1.2391699061157446
-0.1894434055355952,-1.2647679772250293
-0.16163034010527083,-1.2871662894456535
-0.1485929656848063,-1.3191638783322595
-0.14685464909541102,-1.349561587774535
-0.15728454863178265,-1.3903585136049577
-0.185097614062107,-1.4271557408245545
-0.2163873126712219,-1.4703524858214725
-0.26506017717428954,-1.5039499541524088
-0.29374240089931153,-1.5415471210941707
-0.328508732687217,-1.569545011369951
-0.33980779051828625,-1.6039424194230523
-0.36414422276982006,-1.6311403699766673
-0.3910881299054467,-1.6631379588632733
-0.4336768863456309,-1.687936090250393
-0.4797422759646056,-1.715134040804008
-0.5188543992259993,-1.7335326544138066
-0.5484057812457188,-1.7519312680236048
-0.5701347386131598,-1.7615305446895866
-0.5979478040434841,-1.7703298816334032
-0.6301066609472966,-1.768730002189073
-0.6492281434306446,-1.763130424133917
-0.6118543367586463,-1.746331689968449
-0.4510600522395836,-1.7231334380256595
-0.09731262629764577,-1.6895359696947232
0.49197669750735146,-1.650338923308631
1.300293911576153,-1.6023425399787221
2.2276858120185308,-1.5471466991493268
3.098582423305562,-1.48395146109828
3.7087315461833024,-1.4111569463812514
3.9042921624902704,-1.3287631549982413
3.6409371991968866,-1.2383699663935794
3.008189960657008,-1.1407773202894311
2.1859662138730442,-1.0383850358522921
1.3733032083307544,-0.9335929322486577
0.712742904360551,-0.8256010697563626
0.2616497494124779,-0.7160093278197373
-0.0025743721756034473,-0.6040177667166164
-0.13555559126434175,-0.49042632616916526
-0.19378919700908337,-0.3744350664552187
-0.21291067949243137,-0.26084362590776755
-0.21464899608182664,-0.14725218536031645
-0.213779837787129,-0.03926032286802137
-0.2207331041447101,0.06633172045777827
-0.2398545866280581,0.16472430628409157
-0.27549007671066117,0.25991713322174426
-0.3224246246243335,0.34951038210424096
-0.3745741223061917,0.43510393237591183
-0.43280772805093326,0.5142979648702616
-0.4866955423221867,0.5902922384759507
-0.5510132561298118,0.6598869943043186
-0.5962094874540889,0.7270819309661911
-0.6448823519571565,0.7886772895729076
-0.6605272012617139,0.8478728290131287
-0.667480467619295,0.9022687301203587
-0.6500973017253423,0.9534648723389283
-0.6318449775366919,1.000661315946672
-0.6144618116427392,1.0462578801100855
-0.6092468618745533,1.0886546853848384
-0.6109851784639486,1.130251550937426
-0.6135926533480416,1.1694485973235185
-0.6057702286957628,1.2054458848209502
-0.5857795879177172,1.236643533985391
-0.5553590476032999,1.2646414242611712
-0.5249385072888827,1.291039435092621
-0.5032095499214418,1.317437445924071
-0.49712544185855834,1.3438354567555209
-0.497994600153256,1.371033407309136
-0.49712544185855834,1.3990312975849162
-0.4797422759646056,1.425429308416366
-0.4414993109979096,1.4478276206369902
-0.37805075548498224,1.468626053413284
-0.2980881923727997,1.483824908134422
-0.20595741313485028,1.4966239436890643
-0.11904158366508667,1.5038234011885505
-0.04168649543699707,1.5078230997993765
0.016547110307744545,1.5078230997993765
0.0634816582214169,1.5070231600772113
0.0999863065987176,1.5038234011885505
0.1408367464495065,1.5022235217442204
0.18255634459499304,1.4982238231333946
0.23383668398215354,1.4966239436890643
0.2755562821276401,1.4910243656339082
0.3172758802731266,1.4870246670230824
0.34074315422996276,1.479025269801431
0.36681790307089185,1.473425691746275
0.3850702272595422,1.4614265959137978
0.4207057173421453,1.4526272589699811
0.46329447378232946,1.435828524804513
0.5380420871263262,1.4214296098055403
0.6319111829536709,1.3990312975849162
0.7596774522742233,1.382232563419448
0.8970044628364499,1.3590343114766588
1.0464996895244432,1.3438354567555209
1.1864341749707625,1.3222370842570619
1.3333219267746632,1.3102379884245845
1.4854246283467494,1.290239495370456
1.6627329204650672,1.2790403392601437
1.8582935367720352,1.2598417859281803
2.0686298440888633,1.2494425695400333
2.27201288504811,1.2342437148188954
2.462358551586892,1.226244317597244
2.6318444190529315,1.2126453423204364
2.7874237538038082,1.204645945098785
2.924750764366035,1.1918469095441426
3.0394796592661226,1.1822476328781608
3.112488956020724,1.1686486576013533
3.134217913388165,1.1598493206575367
3.0968441067161665,1.1478502248250595
3.004713327478217,1.1398508276034078
2.8673863169159906,1.130251550937426
2.695292974565859,1.123852033160105
2.4953865667854025,1.1166525756606187
2.2711437267534125,1.1118529373276278
2.0243027710592836,1.107053298994637
1.7592094911765048,1.1054534195503065
1.486293786641447,1.102253660661646
1.221200506758668,1.1006537812173156
0.9813128174221205,1.0958541428843247
0.7787989347575713,1.0910545045513338
0.6127897004703229,1.0838550470518475
0.47546268990809637,1.0774555292745263
0.34769642058754385,1.0686561923307096
0.22253762615108427,1.0614567348312234
0.09390219853583415,1.0526573978874068
-0.026910804427137256,1.0462578801100855
-0.1346864329696441,1.0374585431662688
-0.2163873126712219,1.0310590253889478
-0.2833125013629399,1.0198598692786356
-0.328508732687217,1.0118604720569842
-0.3676208559486106,0.9974615570580114
-0.3910881299054467,0.9870623406698645
-0.41107877068349236,0.9718634859487266
-0.41542456215698054,0.9614642695605797
-0.42063951192516635,0.947065354561607
-0.4145554038622829,0.9390659573399556
-0.41107877068349236,0.9262669217853132
-0.392826446494842,0.9182675245636617
-0.3702283308327035,0.9038686095646891
-0.33024704927661225,0.8934693931765421
-0.28678913454173044,0.8774705987332391
-0.23898542833336045,0.8670713823450922
-0.1990041467772692,0.8534724070682846
-0.1703219230522472,0.844673070124468
-0.15989202351587556,0.8326739742919907
-0.16249949839996847,0.8238746373481741
-0.17640603111513065,0.8102756620713666
-0.19118172212499046,0.7982765662388894
-0.19987330507196682,0.7830777115177515
-0.19378919700908337,0.7686787965187789
-0.17119108134694483,0.7518800623533107
-0.13642474955903938,0.7366812076321729
-0.10165841777113395,0.7206824131888699
-0.07732198551960015,0.7054835584677321
-0.06602292768853088,0.6894847640244292
-0.07036871916201906,0.6742859093032914
-0.08427525187718124,0.6582871148599884
-0.10165841777113395,0.6430882601388506
-0.11817242537038904,0.6270894656955476
-0.13816306614843465,0.6110906712522446
-0.16249949839996847,0.5942919370867764
-0.19639667189317628,0.5766932631991432
-0.23724711174396518,0.5566947701450145
-0.28418165965763753,0.5358963373687206
-0.33459284075010043,0.5142979648702616
-0.3876114967266562,0.4942994718161329
-0.43715351952442144,0.47430097876200417
-0.47539648449111743,0.45670230487437086
-0.4893030172062796,0.43990357070890274
-0.4745273261964198,0.42470471598776494
-0.43541520293502617,0.4079059818222968
-0.3884806550213538,0.39270712710115896
-0.3528451649387508,0.37670833265785597
-0.3484993734652626,0.3623094176588833
-0.37805075548498224,0.3455106834934152
-0.431069411461538,0.3303118287722774
-0.4893030172062796,0.31351309460680926
-0.5344992485305567,0.30071405905216686
-0.5579665224873929,0.2871150837753593
-0.5536207310139046,0.27751580710937757
-0.5284151404676732,0.2687164701655609
-0.4910413337956749,0.2623169523882397
-0.4571441603024671,0.25271767572225795
-0.4380226778191191,0.24311839905627614
-0.4380226778191191,0.22871948405730347
-0.4554058437130718,0.2143205690583308
-0.4797422759646056,0.19752183489286268
-0.5023403916267442,0.18232298017172485
-0.5153777660472088,0.1655242460062567
-0.5232001906994874,0.15032539128511888
-0.526676823878278,0.13432659684181592
-0.5310226153517662,0.11912774212067809
-0.5336300902358591,0.10312894767737511
-0.5327609319411615,0.08793009295623729
-0.5240693489941851,0.07193129851293431
-0.5092936579843252,0.05673244379179648
-0.4936488086797678,0.04073364934849351
-0.48321890914339616,0.024734854905190534
-0.48582638402748907,0.008736060461887558
-0.5092936579843252,-0.008862613425745715
-0.5544898893086023,-0.02646128731337899
-0.6170692865268321,-0.04725972008967286
-0.6822561586291548,-0.06885809258813187
-0.7378822894898035,-0.09365622397525149
-0.7709103046883137,-0.11925429508453625
-0.7813402042246853,-0.1464522456381513
-0.7717794629830114,-0.17205031674743607
-0.753527138794361,-0.19604850841239052
-0.7352748146057106,-0.2152470617443541
-0.7257140733640366,-0.2336456753541525
-0.7283215482481296,-0.24884453007529034
-0.7474430307314776,-0.2648433245185933
-0.782209362519383,-0.279242239517566
-0.8239289606648695,-0.2960409736830341
-0.8552186592739844,-0.3104398886820068
-0.8656485588103561,-0.3280385625696401
-0.8482653929164033,-0.3432374172907779
-0.8100224279497074,-0.36243597062274147
-0.7656953549201279,-0.3808345842325399
-0.7335364980163154,-0.40323289645316407
-0.722237440185246,-0.4232313895072928
-0.7352748146057106,-0.4448297620057518
-0.760480405151942,-0.4632283756155502
-0.7926392620557546,-0.48242692894751377
-0.8187140108966837,-0.4976257836686516
-0.8334897019065435,-0.5144245178341197
-0.8230598023701718,-0.5296233725552576
-0.7909009454663594,-0.5464221067207257
-0.7361439729004082,-0.5624209011640287
-0.6709571007980856,-0.5808195147738271
-0.6049010704010652,-0.6000180681057906
-0.552751572719207,-0.6216164406042497
-0.5188543992259993,-0.6416149336583784
-0.4988637584479536,-0.6632133061568374
-0.48582638402748907,-0.6816119197666358
-0.4745273261964198,-0.7008104730985995
-0.4649665849547458,-0.7184091469862327
-0.4623591100706529,-0.7368077605960311
-0.4675740598388387,-0.7560063139279947
-0.48495722573279143,-0.7776046864264536
-0.5101628162790229,-0.7984031192027475
-0.5414525148881378,-0.8192015519790414
-0.5727422134972526,-0.838400105311005
-0.6049010704010652,-0.8567987189208034
-0.6370599273048777,-0.8727975133641064
-0.6683496259139926,-0.8903961872517396
-0.6979010079337122,-0.9047951022507124
-0.7231065984799437,-0.9215938364161804
-0.7422280809632917,-0.9359927514151531
-0.7578729302678492,-0.9527914855806212
-0.7700411463936161,-0.9671904005795939
-0.7778635710458948,-0.9847890744672272
-0.7848168374034759,-0.999987929188365
-0.77960188763529,-1.0199864222424937
-0.7778635710458948,-1.037585096130127
-0.7543962970890586,-1.0607833480729163
-0.7483121890261751,-1.0791819616827147
-0.7326673397216177,-1.102380213625504
-0.7526579804996634,-1.1191789477909722
-0.7778635710458948,-1.1407773202894311
-0.8195831691913813,-1.1551762352884039
-0.8473962346217057,-1.177574547509028
-0.8508728678004962,-1.1935733419523311
-0.8213214857807766,-1.2175715336172854
-0.7700411463936161,-1.236770086949249
-0.7161533321223627,-1.263168097780699
-0.677041208860969,-1.2831665908348278
-0.6561814097882257,-1.3095646016662776
-0.6318449775366919,-1.3303630344425714
-0.5683964220237645,-1.3559611055518563
-0.40325634603121363,-1.3775594780503153
-0.0712378774567167,-1.4031575491596
0.48936922262325855,-1.4231560422137288
1.2829107456822002,-1.445554354434353
2.241592344733693,-1.4639529680441514
3.19853562719579,-1.4831515213761148
3.939058494278176,-1.4983503760972527
4.265862013084487,-1.5143491705405556
4.091161195850262,-1.5255483266508678
3.475797123204336,-1.5367474827611798
2.6066388285067,-1.5439469402606663
1.7087983100840418,-1.5519463374823177
0.9647988098228655,-1.5599457347039691
0.45112625765656256,-1.5719448305364465
0.15213580428057577,-1.5839439263689237
-0.006920163649091628,-1.5999427208122265
-0.09644346800294813,-1.6159415152555296
-0.15989202351587556,-1.6359400083096582
-0.2111723629030361,-1.6535386821972915
-0.25549943593261554,-1.6751370546957507
-0.29461155919400916,-1.6951355477498793
-0.33459284075010043,-1.719933679136999
-0.37544328060088933,-1.741532051635458
-0.4162937204516782,-1.7671301227447427
-0.45192921053428126,-1.7895284349653668
-0.4797422759646056,-1.817526325241147
-0.5023403916267442,-1.8415245169061016
-0.5145086077525111,-1.871122286626212
-0.5344992485305567,-1.8959204180133316
-0.5397141982987426,-1.9239183082891118
-0.5510132561298118,-1.9439168013432406
-0.5431908314775331,-1.9639152943973692
-0.5275459821729757,-1.9719146916190209
-0.4919104920903725,-1.973514571063351
-0.44410678588200253,-1.9575157766200482
-0.39195728820014436,-1.9311177657885983
-0.34936853175996024,-1.887121081069515
-0.32590125780312407,-1.8351249991287804
-0.3224246246243335,-1.7679300624669079
-0.32763957439251934,-1.6951355477498793
-0.328508732687217,-1.6103419372003736
-0.3172096748561477,-1.5199487485957117
-0.30156482555159025,-1.4191563436029029
-0.29374240089931153,-1.3135643002771034
-0.30591061702507844,-1.199172920007487
-0.3389386322235886,-1.0815817808492103
-0.3815273886637727,-0.956791184191447
-0.41368624556758526,-0.8312006478115187
-0.42498530339865453,-0.7016104128207645
-0.40847129579939945,-0.5712202381078453
-0.37370496401149406,-0.4400301236727609
-0.33285452416070516,-0.30963994895984165
-0.3024339838462879,-0.1808496536912527
-0.290265767720521,-0.055259117311324345
-0.3050414587303808,0.06713166017994342
-0.33285452416070516,0.18552273906038544
-0.3606675895910295,0.29911417960783654
-0.36414422276982006,0.4071060421001316
-0.3389386322235886,0.5078984470929404
-0.2720134435318706,0.602291334308428
-0.18162098088331646,0.6870849448579337
-0.06515376939383324,0.7670789170744486
0.06261249992671926,0.8390734920693119
0.21645351808820082,0.9078683081755148
0.38420106896484457,0.9694636667822312
0.5745467355036269,1.0286592062224522
0.7596774522742233,1.081455227885352
0.9465464856342151,1.1334513098260868
1.1203781445737422,1.178247934267335
1.2994247532814553,1.2230445587085834
1.4776022036944707,1.2622416050946756
1.667947870233253,1.3014386514807679
1.8539477452985471,1.334236180089539
2.033863512300958,1.3694335278648055
2.1911811636412297,1.398231357862751
2.3371997571504326,1.4294290070271918
2.4719192928285665,1.4542271384143113
2.6049005119173048,1.4822250286900915
2.7317976229431595,1.5046233409107157
2.848264834432643,1.5286215325756702
2.945610563438778,1.5462202064633035
3.0177507018986818,1.5654187597952671
3.0586011417494707,1.5782177953499095
3.062077774928261,1.591816770626717
3.0203581767827745,1.597416348681873
2.9273582392501276,1.603015926737029
2.780470487446227,1.602215987014864
2.587517346023352,1.6014160472926988
2.362405347696664,1.5958164692375427
2.125994291538907,1.5910168309045518
1.8904523936758477,1.5822174939607352
1.6653403953491601,1.5734181570169186
1.4523966131482393,1.5614190611844414
1.2490135721889923,1.5486200256297988
1.0534529558820243,1.5318212914643308
0.8683222391114278,1.5150225572988627
0.6944905801719007,1.494224124522569
0.5397804037157214,1.47422563146844
0.40332255144819257,1.4526272589699811
0.29033197313749987,1.4326287659158523
0.19646287731015522,1.4126302728617237
0.12345358055555378,1.3950315989740905
0.07043492457899798,1.3758330456421268
0.0443601757380689,1.3590343114766588
0.045229334032766536,1.3374359389781996
0.07999566582067197,1.3190373253684011
0.13649095497601832,1.2974389528699422
0.20341614366773628,1.2814401584266393
0.2564347996442921,1.2654413639833362
0.2868553399587093,1.25824190648385
0.28337870677991883,1.2494425695400333
0.2607805911177803,1.247842690095703
0.2277525759192701,1.2398432928740515
0.20602361855182919,1.236643533985391
0.19472456072075994,1.2230445587085834
0.19993951048894576,1.2142452217647668
0.20689277684652682,1.1966465478771335
0.21210772661471264,1.1846474520446562
0.20167782707834103,1.1654488987126927
0.17560307823741195,1.1534498028802154
0.12953768861843723,1.134251249548252
0.06869660798960271,1.1214522139936094
-0.009527638533184536,1.1030536003838112
-0.09731262629764577,1.0902545648291686
-0.19118172212499046,1.0726558909415354
-0.280705026478847,1.0614567348312234
-0.35719095641223897,1.0470578198322507
-0.41281708727288763,1.0374585431662688
-0.44410678588200253,1.0254594473337917
-0.4554058437130718,1.016660110389975
-0.45627500200776944,1.0038610748353327
-0.4510600522395836,0.9926619187250205
-0.4432376275873049,0.9766631242817175
-0.4293310948721427,0.9622642092827449
-0.41107877068349236,0.9446655353951117
-0.3902189716107491,0.9286667409518087
-0.37631243889558696,0.9102681273420102
-0.3745741223061917,0.8942693328987072
-0.38500402184256327,0.8790704781775694
-0.3971722379683302,0.8654715029007619
-0.40151802944181836,0.8534724070682846
-0.3910881299054467,0.8438731304023028
-0.3693591725380059,0.8326739742919907
-0.3502376900546579,0.823074697626009
-0.3511068483493555,0.8102756620713666
-0.37631243889558696,0.7982765662388894
-0.4241161451039569,0.7830777115177515
-0.4823497508486985,0.7686787965187789
-0.536237565119952,0.7518800623533107
-0.5770880049707409,0.7374811473543381
-0.5988169623381817,0.7206824131888699
-0.6040319121063675,0.7062834981898973
-0.5918636959806006,0.6894847640244292
-0.5692655803184621,0.6750858490254564
-0.5388450400040449,0.6566872354156581
-0.5101628162790229,0.6398885012501899
-0.4866955423221867,0.619090068473896
-0.4719198513123269,0.5998915151419325
-0.45975163518656,0.5766932631991432
-0.44236846929260726,0.5582946495893447
-0.4162937204516782,0.5366962770908857
-0.38674233843195854,0.5198975429254176
-0.3597984312963319,0.500698989593454
-0.3458918985811697,0.4831003157058208
-0.34763021517056497,0.4623018829295269
-0.36414422276982006,0.4431033295975633
-0.3910881299054467,0.42070501737693916
-0.42498530339865453,0.4015064640449756
-0.4632282683653505,0.38070803126868175
-0.5066861831002324,0.36310935738104844
-0.552751572719207,0.34471074377125005
-0.5936020125699959,0.3263121301614516
-0.6179384448215297,0.3063136371073229
-0.6214150780003203,0.285515204331029
-0.6022935955169723,0.26311689211040484
-0.5683964220237645,0.23991864016761555
-0.5310226153517662,0.21672038822482623
-0.5084244996896277,0.19352213628203693
-0.5084244996896277,0.17112382406141274
-0.5292842987623709,0.15032539128511888
-0.5614431556661834,0.13112683795315533
-0.5936020125699959,0.1127282243433569
-0.622284236295018,0.09432961073355847
-0.6474898268412493,0.07593099712376006
-0.6744337339768761,0.05673244379179648
-0.7039851159965957,0.03513407129333747
-0.7300598648375248,0.012735759072713302
-0.741358922668594,-0.010462492870076013
-0.7283215482481296,-0.03366074481286533
-0.6952935330496194,-0.056858996755654645
-0.6596580429670162,-0.0792573089762788
-0.6379290855995754,-0.10005574175257267
-0.6379290855995754,-0.11925429508453625
-0.6553122514935281,-0.13845284841649982
-0.6709571007980856,-0.15525158258196795
-0.6700879425033879,-0.17445013591393152
-0.6422748770730635,-0.19364868924589507
-0.5944711708646936,-0.2152470617443541
-0.5327609319411615,-0.2352455547984828
-0.47105069301762925,-0.25684392729694183
-0.41281708727288763,-0.2760424806289054
-0.36588253935921533,-0.29444109423870385
-0.328508732687217,-0.30963994895984165
-0.3128638833826595,-0.32563874340314464
-0.3146021999720548,-0.34083759812428244
-0.3363311573394957,-0.35843627201191575
-0.36414422276982006,-0.37523500617738387
-0.38934981331605145,-0.392033740342852
-0.3980413962630278,-0.40643265534182466
-0.39456476308423727,-0.4200316306186322
-0.37978907207437745,-0.42963090728461395
-0.36675169765391297,-0.4400301236727609
-0.3597984312963319,-0.4528291592274033
-0.3676208559486106,-0.4696278933928714
-0.3910881299054467,-0.48962638644700013
-0.43020025316684035,-0.5128246383897894
-0.48061143425930325,-0.5360228903325788
-0.5449291480669284,-0.5584212025532029
-0.6153309699374369,-0.5784196956073316
-0.6874711083973406,-0.5976182489392952
-0.7500505056155704,-0.6152169228269285
-0.7969850535292428,-0.634415476158892
-0.8221906440754743,-0.6528140897686905
