ECG,PPG
-0.5432973532128025,0.7313239580066107
-0.06403100096210923,1.790682602488863
-0.47072273415769755,0.6738609344213966
-0.6802305967130006,0.028792153529316463
-0.47072273415769755,0.5005450407047026
-0.40088677997259653,0.7758114601370989
-0.6158719722679075,0.38469217057322275
-0.7555438806381095,0.08069423934821947
-0.6877619251055115,0.21044945389547695
-0.6418892885329451,0.28181482189646856
-0.6877619251055115,0.09459658376399704
-0.6959779197155234,-0.07130472626428218
-0.6158719722679075,-0.0787193099526969
-0.5186493693827668,-0.10930446766740759
-0.39883278132009353,-0.1945721800841768
-0.26943086621240636,-0.24554744294202796
-0.25368354320988357,-0.2520352036693908
-0.4556600773726758,-0.3011568206051383
-0.7603365441606165,-0.36788807380087074
-0.9814837324134364,-0.41237557593135904
-1.0499503541635355,-0.4253510973860848
-1.0513196865985375,-0.4577899010228991
-1.0499503541635355,-0.4837409439323506
-1.0650130109485572,-0.5245211542186315
-1.0499503541635355,-0.5412039675175647
-0.9972310554159591,-0.5727159481933272
-0.9048011160533255,-0.5995938140638305
-0.8192178388657017,-0.643154493233267
-0.7603365441606165,-0.6570568376490445
-0.7514358833331036,-0.666325067259563
-0.7603365441606165,-0.6570568376490445
-0.7733452022931353,-0.666325067259563
-0.7603365441606165,-0.6570568376490445
-0.7343192278955789,-0.6579836606100964
-0.6877619251055115,-0.6570568376490445
-0.651474615577959,-0.6913492872079626
-0.6158719722679075,-0.7154466841953104
-0.5912239884378718,-0.7312026745331918
-0.5432973532128025,-0.7154466841953104
-0.5008480477277412,-0.7163735071563623
-0.47072273415769755,-0.7154466841953104
-0.49674005042273517,-0.7265685597279326
-0.5432973532128025,-0.7154466841953104
-0.5967013181778797,-0.7154466841953104
-0.6158719722679075,-0.7154466841953104
-0.6213493020079154,-0.7460318419100211
-0.6158719722679075,-0.7729097077805245
-0.6186106371379114,-0.8109094491836499
-0.6158719722679075,-0.8312995543267904
-0.6199799695729135,-0.8637383579636048
-0.6158719722679075,-0.8887625779120044
-0.5857466586978639,-0.9267623193151298
-0.47072273415769755,-0.9462256014972185
-0.24752154725237466,-0.977737582172981
0.10782021963063937,-1.0046154480434843
0.6007798962313525,-1.047249304251869
1.2649061272073132,-1.0620784716286984
2.054326275985955,-1.0704198782781649
2.856755082897116,-1.0620784716286984
3.50239532600055,-1.0880295145381498
3.869376418581081,-1.1204683181749642
3.8365124401410333,-1.1649558203054524
3.363408083847849,-1.1779313417601782
2.5240073011916344,-1.1871995713706966
1.554519937210232,-1.1779313417601782
0.6445985341514159,-1.1825654565654375
-0.10921897131717459,-1.1779313417601782
-0.6925545886280184,-1.2020287387475261
-1.0499503541635355,-1.2363211883064442
-1.2101622490587671,-1.2863696282032435
-1.2669895451113493,-1.2937842118916583
-1.3210781762939277,-1.2919305659695546
-1.3388794979489533,-1.2937842118916583
-1.3080695181614088,-1.3364180681000428
-1.2669895451113493,-1.352174058437924
-1.2772595383738643,-1.3531008813989758
-1.2669895451113493,-1.352174058437924
-1.1841449327937295,-1.3957347376073606
-1.0499503541635355,-1.409637082023138
-0.9623130783234086,-1.3911006228021012
-0.9048011160533255,-1.352174058437924
-0.8486584862182442,-1.3595886421263388
-0.7603365441606165,-1.352174058437924
-0.6905005899755154,-1.3132474940737469
-0.6158719722679075,-1.2363211883064442
-0.5439820194303036,-1.1871995713706966
-0.47072273415769755,-1.1204683181749642
-0.43238142597764206,-1.0407615435245061
-0.39883278132009353,-0.9462256014972185
-0.36459947044504404,-0.897103984561471
-0.32625816226498855,-0.8312995543267904
-0.29818684734744794,-0.7367636122995027
-0.25368354320988357,-0.5995938140638305
-0.22629689450984397,-0.487448235776558
-0.25368354320988357,-0.36788807380087074
-0.3426901514850123,-0.2418401510978206
-0.39883278132009353,-0.0787193099526969
-0.39883278132009353,0.06679189493244188
-0.39883278132009353,0.21044945389547695
-0.4679840692876936,0.3272291469880087
-0.5432973532128025,0.4421551941584368
-0.5672606708253372,0.5237156147309986
-0.5432973532128025,0.6154710878751307
-0.5398740221252976,0.7137143217466256
-0.5432973532128025,0.8471768281380905
-0.5426126869953015,0.9509809997758966
-0.5432973532128025,1.0214195448158363
-0.581638661392858,1.0390291810758212
-0.6158719722679075,1.0788825684010503
-0.6247726330954204,1.1307846542199533
-0.6158719722679075,1.1947354385325302
-0.6254572993129214,1.2040036681430486
-0.6158719722679075,1.1947354385325302
-0.577530664087852,1.1752721563504416
-0.5432973532128025,1.1947354385325302
-0.5878006573503669,1.2002963762988412
-0.6877619251055115,1.1947354385325302
-0.7911465239481611,1.1539552282462493
-0.8329111632157215,1.1363455919862644
-0.8192178388657017,1.127077362375746
-0.7603365441606165,1.1363455919862644
-0.7083019116305412,1.1122481949989165
-0.6877619251055115,1.0788825684010503
-0.719941237328058,1.0158586070495252
-0.7603365441606165,0.9630296982695704
-0.8000471847756739,0.8944447991517344
-0.8329111632157215,0.8471768281380905
-0.8787837997882878,0.786933335669721
-0.9048011160533255,0.7313239580066107
-0.9109631120108344,0.6414221307845822
-0.9048011160533255,0.5580080642899167
-0.9342417634058681,0.46254529930157723
-0.9773757351084305,0.38469217057322275
-1.00476238380847,0.2864489367017278
-0.9773757351084305,0.21044945389547695
-0.934926429623369,0.1381572629334335
-0.9048011160533255,0.09459658376399704
-0.9095937795758324,0.03342626833457566
-0.9048011160533255,-0.020329463406431016
-0.8801531322232898,-0.0907680084463708
-0.8329111632157215,-0.13618233353791093
-0.7979931861231709,-0.18159665862945104
-0.7603365441606165,-0.1945721800841768
-0.7076172454130403,-0.22145004595468012
-0.6158719722679075,-0.2520352036693908
-0.5275500302102798,-0.3196932798261751
-0.47072273415769755,-0.36788807380087074
-0.4672994030701926,-0.41052193000925535
-0.47072273415769755,-0.4253510973860848
-0.45702940980767776,-0.4596435469450028
-0.39883278132009353,-0.4837409439323506
-0.32625816226498855,-0.5198870394133723
-0.25368354320988357,-0.5412039675175647
-0.22903555937984793,-0.5819841778038456
-0.25368354320988357,-0.5995938140638305
-0.33173549200499647,-0.6116425125575045
-0.39883278132009353,-0.5995938140638305
-0.4515520800676698,-0.6190570962459192
-0.47072273415769755,-0.6570568376490445
-0.46866873550519456,-0.7265685597279326
-0.39883278132009353,-0.7729097077805245
-0.30571817573995885,-0.8136899180668055
-0.25368354320988357,-0.8312995543267904
-0.30708750817496083,-0.8637383579636048
-0.39883278132009353,-0.8887625779120044
-0.46319140576518664,-0.925835496354078
-0.47072273415769755,-0.9462256014972185
-0.4556600773726758,-0.9805180510561365
-0.39883278132009353,-1.0046154480434843
-0.2906555189549371,-1.0416883664855578
-0.10921897131717459,-1.0620784716286984
0.1482155264631978,-1.0945172752655128
0.5418986015262673,-1.1204683181749642
1.0889469093095587,-1.1593948825391414
1.771559128158046,-1.1779313417601782
2.503467314666605,-1.2057360305917335
3.2182588457376387,-1.2363211883064442
3.776946479218447,-1.299345149657969
4.014525656691291,-1.352174058437924
3.771469149478439,-1.3957347376073606
3.0737942738449298,-1.409637082023138
2.0789742598159906,-1.4374417708546932
1.0485516024770003,-1.4671001056083521
0.17971017246824336,-1.525489952154618
-0.39883278132009353,-1.582952975739832
-0.7103559102830442,-1.6543183437408235
-0.8329111632157215,-1.698805845871312
-0.8828917970932938,-1.7358787643133855
-0.9048011160533255,-1.7571956924175778
-0.938349760710874,-1.808170955275429
-0.9773757351084305,-1.8730485625490576
-1.0307797000735077,-1.9648040356931897
-1.0499503541635355,-2.0463644562657515
-1.0157170432884859,-2.1232907620330543
-0.9048011160533255,-2.1622173263972315
-0.7493818846806006,-2.193729307072994
-0.5432973532128025,-2.2196803499824456
-0.3255734960474876,-2.280850665411867
-0.10921897131717459,-2.3355332201139256
0.039353597880540325,-2.3828011911275695
0.10782021963063937,-2.3929962436991397
0.04483092762054825,-2.4180204636475393
-0.10921897131717459,-2.451386090245405
-0.2790161932574202,-2.5014345301422045
-0.32625816226498855,-2.5088491138306193
-0.24341354994736872,-2.4921663005316863
-0.10921897131717459,-2.451386090245405
-0.023635694129550792,-2.430995985102265
0.035245600575534386,-2.3929962436991397
0.0845415682356057,-2.3475819186075992
0.10782021963063937,-2.2780701965287116
0.05099292357805717,-2.2261681107098084
-0.03664435226206961,-2.1622173263972315
-0.09894897805465974,-2.0927056043183434
-0.10921897131717459,-1.9879746097194857
-0.13181295649470728,-1.882316792159576
-0.18179359037227957,-1.7571956924175778
-0.24135955129486575,-1.641342822286098
-0.25368354320988357,-1.525489952154618
-0.22835089316234694,-1.4402222397378488
-0.18179359037227957,-1.352174058437924
-0.16878493223976077,-1.271540460826414
-0.18179359037227957,-1.1779313417601782
-0.20370290933231128,-1.0972977441486682
-0.18179359037227957,-1.0046154480434843
-0.13865961866971718,-0.9360305489256482
-0.10921897131717459,-0.8887625779120044
-0.1366056200172142,-0.8739334105351749
-0.18179359037227957,-0.8312995543267904
-0.22629689450984397,-0.7719828848194726
-0.25368354320988357,-0.7154466841953104
-0.29270951760744,-0.7126662153121549
-0.32625816226498855,-0.7154466841953104
-0.365284136662545,-0.7024711627405847
-0.39883278132009353,-0.6570568376490445
-0.42553476380263217,-0.6440813161943189
-0.39883278132009353,-0.6570568376490445
-0.33173549200499647,-0.6959834020132218
-0.25368354320988357,-0.7154466841953104
-0.1948022485047984,-0.7432513730268656
-0.10921897131717459,-0.7729097077805245
-0.011311702214532964,-0.8322263772878422
0.035245600575534386,-0.8887625779120044
-0.04212168200207753,-0.9545670081466849
-0.18179359037227957,-1.0046154480434843
-0.29681751491244596,-1.0667125864339575
-0.32625816226498855,-1.1204683181749642
-0.30366417708745586,-1.1862727484096447
-0.25368354320988357,-1.2363211883064442
-0.2454675485998717,-1.2984183266969174
-0.32625816226498855,-1.352174058437924
-0.5254960315577768,-1.4198321345947083
-0.7603365441606165,-1.4671001056083521
-0.9527277512783948,-1.5115876077388404
-1.0499503541635355,-1.525489952154618
-1.08076033395108,-1.5523678180251212
-1.0499503541635355,-1.582952975739832
-0.9842223972834404,-1.6302209467534758
-0.9048011160533255,-1.641342822286098
-0.8787837997882878,-1.641342822286098
-0.9048011160533255,-1.641342822286098
-0.9445117566683829,-1.6784157407281715
-0.9048011160533255,-1.698805845871312
-0.7822458631206481,-1.7080740754818302
-0.6158719722679075,-1.698805845871312
-0.4885240558127233,-1.7117813673260376
-0.39883278132009353,-1.698805845871312
-0.3324201582224975,-1.6737816259229124
-0.25368354320988357,-1.641342822286098
-0.18179359037227957,-1.646903760052409
-0.10921897131717459,-1.641342822286098
-0.06266166852710725,-1.6209527171429574
-0.03664435226206961,-1.582952975739832
-0.061977002309606254,-1.583879798700884
-0.10921897131717459,-1.582952975739832
-0.18453225524228353,-1.5699774542851062
-0.25368354320988357,-1.525489952154618
-0.3365281555275034,-1.5143680766219958
-0.39883278132009353,-1.525489952154618
-0.4330660921951431,-1.5477337032198621
-0.39883278132009353,-1.525489952154618
-0.31119550547996677,-1.4949047944399072
-0.18179359037227957,-1.4671001056083521
-0.059923003657103284,-1.4754415122578186
0.035245600575534386,-1.4671001056083521
0.08180290336560174,-1.4485636463873153
0.10782021963063937,-1.409637082023138
0.13931486563568493,-1.4050029672178788
0.2522847915233484,-1.409637082023138
0.5104039555212218,-1.4235394264389156
0.9759769834218952,-1.409637082023138
1.6106625670453134,-1.4077834361010344
2.350102081946383,-1.409637082023138
3.1025502549799713,-1.4263198953220713
3.797486465743477,-1.409637082023138
4.261005494991648,-1.3836860391136865
4.303454800476708,-1.352174058437924
3.8180264522685063,-1.3549545273210795
2.929329701952221,-1.352174058437924
1.837287085038141,-1.3401253599442502
0.7589377924740812,-1.2937842118916583
-0.13865961866971718,-1.2631990541769476
-0.6877619251055115,-1.2363211883064442
-0.8938464565733096,-1.2224188438906665
-0.9048011160533255,-1.1779313417601782
-0.9061704484883274,-1.1436388922012601
-0.9048011160533255,-1.1204683181749642
-0.8787837997882878,-1.132517016668638
-0.8329111632157215,-1.1204683181749642
-0.8294878321282165,-1.0972977441486682
-0.8329111632157215,-1.0620784716286984
-0.8137405091256937,-1.0657857634729058
-0.7603365441606165,-1.0620784716286984
-0.7083019116305412,-1.0509565960960763
-0.6158719722679075,-1.0046154480434843
-0.49947871529273913,-0.977737582172981
-0.39883278132009353,-0.9462256014972185
-0.3885627880575787,-0.9304696111593371
-0.39883278132009353,-0.8887625779120044
-0.366653469097547,-0.8489091905867753
-0.25368354320988357,-0.7729097077805245
-0.13592095379971322,-0.69505657905217
-0.03664435226206961,-0.5995938140638305
0.034560934358033396,-0.5254479771796834
0.10782021963063937,-0.4253510973860848
0.15780085350821166,-0.3224737487093306
0.18039483868574435,-0.1945721800841768
0.17217884407573247,-0.08613389364111161
0.18039483868574435,0.03713356017878302
0.20915081982078595,0.14835231550500372
0.2522847915233484,0.2688393004417428
0.26529344965586715,0.36615571135218594
0.2522847915233484,0.5005450407047026
0.21531281577829486,0.6562512981614116
0.18039483868574435,0.8471768281380905
0.13657620076568097,1.0028830855947994
0.10782021963063937,1.1363455919862644
0.09070356419311461,1.2253205962472409
0.10782021963063937,1.3105883086640102
0.13931486563568493,1.364344040405017
0.18039483868574435,1.42644117879549
0.17491750894573643,1.473709149809134
0.10782021963063937,1.5422940489269699
-0.014050367084536927,1.5932693117848211
-0.10921897131717459,1.657220096097398
-0.1598842714122479,1.7072685359941973
-0.18179359037227957,1.773072966228878
-0.22355822963983998,1.8082922387488478
-0.25368354320988357,1.8314628127751438
-0.2646382026898994,1.818487291320418
-0.25368354320988357,1.8314628127751438
-0.26053020538489347,1.8499992719961806
-0.25368354320988357,1.8889258363603578
-0.22903555937984793,1.8898526593214098
-0.18179359037227957,1.8889258363603578
-0.14687561327972906,1.8731698460224766
-0.10921897131717459,1.8889258363603578
-0.09073298344464785,1.887999013399306
-0.10921897131717459,1.8889258363603578
-0.18521692145978452,1.8546333868014397
-0.25368354320988357,1.8314628127751438
-0.29818684734744794,1.7925362484109666
-0.32625816226498855,1.773072966228878
-0.3741847974900579,1.7350732248257525
-0.39883278132009353,1.715609942643664
-0.39814811510259257,1.6785370242015902
-0.39883278132009353,1.657220096097398
-0.44059742058765394,1.616439885811117
-0.47072273415769755,1.599757072512184
-0.4741460652452025,1.5663914459143178
-0.47072273415769755,1.5422940489269699
-0.5111180409902559,1.4950260779133262
-0.5432973532128025,1.483904202380704
-0.5480900167353094,1.4774164416533413
-0.5432973532128025,1.483904202380704
-0.58300799382786,1.4486849298607343
-0.6158719722679075,1.42644117879549
-0.6035479803528897,1.4079047195744532
-0.5432973532128025,1.42644117879549
-0.5022173801627431,1.421807063990231
-0.47072273415769755,1.42644117879549
-0.44265141924015694,1.4134656573407642
-0.39883278132009353,1.42644117879549
-0.365968802880046,1.4190265951070753
-0.32625816226498855,1.42644117879549
-0.29134018517243804,1.415319303262868
-0.25368354320988357,1.42644117879549
-0.21123423772482217,1.4190265951070753
-0.10921897131717459,1.42644117879549
0.018813611355510615,1.4143924803018162
0.10782021963063937,1.42644117879549
0.08864956554061164,1.420880241029179
0.035245600575534386,1.42644117879549
0.0071742856579937765,1.4106851884576088
0.035245600575534386,1.42644117879549
0.04414626140304726,1.4292216476786457
0.035245600575534386,1.42644117879549
0.018128945138009625,1.3819536766650018
0.035245600575534386,1.3680513322492243
0.04688492627305122,1.363417217443965
0.035245600575534386,1.3680513322492243
-0.0065190386920260315,1.3291247678850469
-0.03664435226206961,1.3105883086640102
-0.06745433204961418,1.3022469020145435
-0.10921897131717459,1.3105883086640102
-0.1591996051947469,1.2735153902219365
-0.10921897131717459,1.2521984621177442
0.133837535895677,1.2410765865851223
0.6144732205813723,1.2521984621177442
1.2566901325973012,1.218832835519878
1.98859831910586,1.1947354385325302
2.7307764988769336,1.178979448194649
3.435298036685453,1.1947354385325302
3.980977012033742,1.1697112185841305
4.231564847639104,1.1363455919862644
4.030272979693813,1.0900044439336725
3.363408083847849,1.0788825684010503
2.349417415728882,1.0501510566084433
1.2649061272073132,1.0214195448158363
0.35019206062598995,0.9556151145811557
-0.25368354320988357,0.9055666746843564
-0.5953319857428778,0.8545914118265052
-0.7603365441606165,0.8471768281380905
-0.8377038267382284,0.8416158903717795
-0.8329111632157215,0.8471768281380905
-0.793885188818165,0.8165916704233799
-0.7603365441606165,0.7897138045528765
-0.7712912036406323,0.7470799483444919
-0.7603365441606165,0.7313239580066107
-0.6884465913230124,0.6979583314087444
-0.5432973532128025,0.6738609344213966
-0.3954094502325886,0.6293734322909083
-0.25368354320988357,0.6154710878751307
-0.14071361732222015,0.6034223893814568
-0.03664435226206961,0.6154710878751307
0.014705614050504672,0.608056504186716
0.035245600575534386,0.6154710878751307
0.024290941095518537,0.608056504186716
0.035245600575534386,0.6154710878751307
0.059208918188069046,0.6034223893814568
0.10782021963063937,0.6154710878751307
0.14547686159319384,0.6284466093298564
0.18039483868574435,0.6738609344213966
0.20504282251578002,0.6979583314087444
0.2522847915233484,0.7313239580066107
0.3125354186634355,0.7619091157213214
0.39743402963355834,0.8471768281380905
0.491233301431194,0.9352250094380152
0.6144732205813723,1.0214195448158363
0.7363438072965486,1.0640534010242209
0.8315124115291862,1.1363455919862644
0.8376744074866952,1.218832835519878
0.7589377924740812,1.3105883086640102
0.6124192219288693,1.3569294567166021
0.4693239824711623,1.42644117879549
0.3625160525410078,1.507074776407
0.32485941057845336,1.599757072512184
0.31801274840344346,1.6303422302268946
0.32485941057845336,1.657220096097398
0.3166434159684414,1.6952198375005234
0.32485941057845336,1.773072966228878
0.3303367403184613,1.8119995305930552
0.32485941057845336,1.8314628127751438
0.28309477131089295,1.8203409372425217
0.2522847915233484,1.8314628127751438
0.2426994644783345,1.824975052047781
0.2522847915233484,1.8314628127751438
0.2269521414758117,1.8203409372425217
0.18039483868574435,1.8314628127751438
0.12493687506816413,1.8268286979698847
0.10782021963063937,1.8314628127751438
0.12082887776315819,1.800877655060433
0.18039483868574435,1.773072966228878
0.25296945774084934,1.7285854640983898
0.32485941057845336,1.715609942643664
0.34676872953848503,1.6887320767731606
0.32485941057845336,1.657220096097398
0.25502345639335233,1.58770837401851
0.18039483868574435,1.5422940489269699
0.11672088045815225,1.502440661601741
0.10782021963063937,1.483904202380704
0.134522202113178,1.42644117879549
0.18039483868574435,1.3680513322492243
0.19203416438326118,1.294832318326129
0.18039483868574435,1.2521984621177442
0.1413688642881879,1.2067841370262042
0.10782021963063937,1.1947354385325302
0.06605558036307896,1.1678575726620268
0.035245600575534386,1.1363455919862644
-0.00309570760452108,1.0649802239852728
-0.03664435226206961,1.0214195448158363
-0.08183232261713498,0.9843466263737627
-0.10921897131717459,0.9630296982695704
-0.12496629431969737,0.8981520909959417
-0.10921897131717459,0.8471768281380905
-0.08183232261713498,0.8026893260076022
-0.03664435226206961,0.7897138045528765
-0.021581695477047823,0.7517140631497511
-0.03664435226206961,0.7313239580066107
-0.06676966583211319,0.7155679676687293
-0.03664435226206961,0.7313239580066107
0.037984265445538345,0.7266898432013514
0.10782021963063937,0.7313239580066107
0.1126128831531463,0.7220557283960922
0.10782021963063937,0.7313239580066107
0.1269908737206671,0.7220557283960922
0.18039483868574435,0.7313239580066107
0.21531281577829486,0.7276166661624033
0.2522847915233484,0.7313239580066107
0.28857210105090086,0.6979583314087444
0.32485941057845336,0.6738609344213966
0.30158075918341964,0.6525440063172043
0.2522847915233484,0.6738609344213966
0.21462814956079387,0.6784950492266558
0.2522847915233484,0.6738609344213966
0.3043194240534236,0.6330807241351156
0.32485941057845336,0.6154710878751307
0.2844641037458949,0.6034223893814568
0.2522847915233484,0.6154710878751307
0.24406879691333647,0.6071296812256641
0.2522847915233484,0.6154710878751307
0.24064546582583152,0.613617441953027
0.2522847915233484,0.6154710878751307
0.30226542540092066,0.5802518153551608
0.39743402963355834,0.5580080642899167
0.5234126136537406,0.5403984280299318
0.7589377924740812,0.5580080642899167
1.1539901999721527,0.5570812413288648
1.6989845091029412,0.5580080642899167
2.283689458848787,0.527422906575206
2.856755082897116,0.5005450407047026
3.3935333974178925,0.45513071561316254
3.869376418581081,0.4421551941584368
4.111063593358931,0.4338137875089702
3.9419510376361857,0.4421551941584368
3.290833464792744,0.4143505053268816
2.350102081946383,0.38469217057322275
1.3840380490524855,0.34205831436483813
0.6144732205813723,0.32630232402695686
0.07495624119059183,0.2947903433511943
-0.25368354320988357,0.2688393004417428
-0.4501827476326678,0.22435179831125454
-0.5432973532128025,0.21044945389547695
-0.575476665435349,0.20025440132390673
-0.5432973532128025,0.21044945389547695
-0.5001633815102401,0.18635205690812914
-0.47072273415769755,0.15298643031026293
-0.4645607382001886,0.10201116745241176
-0.39883278132009353,0.09459658376399704
-0.2680615337774044,0.09274293784189337
-0.10921897131717459,0.09459658376399704
0.0023816221354868434,0.05659684236087164
0.10782021963063937,0.03713356017878302
0.21394348334329288,0.02415803872405727
0.32485941057845336,0.03713356017878302
0.37484004445602565,0.026938507607212784
0.39743402963355834,0.03713356017878302
0.39538003098105534,0.051962727555612445
0.39743402963355834,0.09459658376399704
0.3810020404135345,0.11498668890713751
0.39743402963355834,0.15298643031026293
0.4542613256861405,0.19283981763549202
0.5418986015262673,0.2688393004417428
0.5925639016213405,0.32444867810485317
0.6144732205813723,0.38469217057322275
0.6309052098013961,0.42732602678160736
0.6863631734189762,0.5005450407047026
0.7397671383840535,0.5737640546277979
0.7589377924740812,0.6738609344213966
0.7212811505115267,0.7554213549939585
0.6863631734189762,0.8471768281380905
0.6726698490689564,0.9213226650222377
0.6863631734189762,1.0214195448158363
0.6870478396364773,1.1066872572326054
0.6863631734189762,1.1947354385325302
0.6610305233714396,1.2466375243514332
0.6144732205813723,1.3105883086640102
0.5521685947887821,1.3624903944829132
0.5418986015262673,1.42644117879549
0.5569612583112891,1.4542458676270453
0.5418986015262673,1.483904202380704
0.4576846567736455,1.5005870156796373
0.39743402963355834,1.5422940489269699
0.3926413661110514,1.5673182688753697
0.39743402963355834,1.599757072512184
0.3275980754484573,1.6006838954732359
0.2522847915233484,1.599757072512184
0.24680746178334043,1.5663914459143178
0.32485941057845336,1.5422940489269699
0.3844253715010395,1.502440661601741
0.39743402963355834,1.483904202380704
0.36457005119351077,1.4486849298607343
0.32485941057845336,1.42644117879549
0.25365412395835035,1.386587791470261
0.18039483868574435,1.3680513322492243
0.13794553320068295,1.334685705651358
0.18039483868574435,1.3105883086640102
0.24338413069583548,1.2521984621177442
0.2522847915233484,1.1947354385325302
0.15711618729071067,1.121516424609435
0.035245600575534386,1.0788825684010503
-0.059923003657103284,1.0223463677768883
-0.10921897131717459,0.9630296982695704
-0.15509160788974097,0.8657132873591273
-0.18179359037227957,0.7897138045528765
-0.2091802390723192,0.7183484365518849
-0.25368354320988357,0.6738609344213966
-0.33995148661500835,0.6062028582646123
-0.39883278132009353,0.5580080642899167
-0.41184143945261237,0.5125937391983766
-0.39883278132009353,0.5005450407047026
-0.41115677323511135,0.46717941410683644
-0.39883278132009353,0.4421551941584368
-0.3392668203975074,0.3995213379500522
-0.25368354320988357,0.38469217057322275
-0.22972022559734892,0.36800935727428963
-0.25368354320988357,0.38469217057322275
-0.2803855256924222,0.38469217057322275
-0.25368354320988357,0.38469217057322275
-0.21465756881232712,0.34669242917009735
-0.18179359037227957,0.32630232402695686
-0.16262293628225186,0.3105463336890756
-0.10921897131717459,0.32630232402695686
-0.03595968604456862,0.32352185514380133
0.035245600575534386,0.32630232402695686
0.06810957901558193,0.31425362553328295
0.10782021963063937,0.32630232402695686
0.1701248454232295,0.32352185514380133
0.2522847915233484,0.32630232402695686
0.2824101050933919,0.31239997961117927
0.2522847915233484,0.32630232402695686
0.1701248454232295,0.3290827929101124
0.10782021963063937,0.32630232402695686
0.07769490606059579,0.28552211374067593
0.10782021963063937,0.2688393004417428
0.1475308602456968,0.2604978937922763
0.18039483868574435,0.2688393004417428
0.15711618729071067,0.23640049680492844
0.10782021963063937,0.21044945389547695
0.05236225601305915,0.19191299467444017
0.035245600575534386,0.21044945389547695
0.03250693570553042,0.2113762768565288
0.035245600575534386,0.21044945389547695
0.04209226275054429,0.17986429618076627
0.10782021963063937,0.15298643031026293
0.22832147391081367,0.1075721052187228
0.39743402963355834,0.09459658376399704
0.6165272192338752,0.08810882303663417
0.9759769834218952,0.09459658376399704
1.497007974940149,0.06493824901033819
2.133062890998569,0.03713356017878302
2.7732258043619953,-0.0008661812243423927
3.363408083847849,-0.020329463406431016
3.7961171333084747,-0.058329204809556424
3.9419510376361857,-0.0787193099526969
3.6790392101158056,-0.11115811358951126
3.0737942738449298,-0.13618233353791093
2.279581461543781,-0.18252348159050288
1.4819453181551272,-0.1945721800841768
0.778108446564109,-0.19827947192838416
0.2522847915233484,-0.1945721800841768
-0.08525565370463993,-0.23071827556519853
-0.25368354320988357,-0.2520352036693908
-0.34542881635501627,-0.2631570792020129
-0.39883278132009353,-0.2520352036693908
-0.44744408276266384,-0.28076671546199783
-0.47072273415769755,-0.3104250502156567
-0.4851007247252183,-0.33359562424195266
-0.47072273415769755,-0.3104250502156567
-0.4310120935426401,-0.30208364356619016
-0.32625816226498855,-0.3104250502156567
-0.18521692145978452,-0.3530589064240413
-0.03664435226206961,-0.36788807380087074
0.036614933010536366,-0.3762294804503373
0.035245600575534386,-0.36788807380087074
-0.039383017132073574,-0.3827172411777002
-0.10921897131717459,-0.36788807380087074
-0.14892961193223203,-0.3456443227356266
-0.10921897131717459,-0.3104250502156567
-0.01815836438954287,-0.31413234205986407
0.10782021963063937,-0.3104250502156567
0.2002501589932731,-0.29930317468303463
0.2522847915233484,-0.2520352036693908
0.27556344291838203,-0.2251573377988875
0.32485941057845336,-0.1945721800841768
0.3762093768910276,-0.17696254382419185
0.39743402963355834,-0.13618233353791093
0.35909272145350285,-0.11393858247266678
0.32485941057845336,-0.0787193099526969
0.31732808218594244,-0.044426860393778835
0.32485941057845336,0.03713356017878302
0.2940494307909088,0.1214744496345004
0.2522847915233484,0.21044945389547695
0.2132588171257919,0.2614247167533281
0.18039483868574435,0.32630232402695686
0.11055888450064333,0.39859451498900034
0.035245600575534386,0.5005450407047026
-0.022951027912049803,0.5672762939004351
-0.03664435226206961,0.6154710878751307
-0.04075234956707555,0.6321539011740638
-0.03664435226206961,0.6738609344213966
-0.059238337439602294,0.7211289054350404
-0.10921897131717459,0.7897138045528765
-0.19343291606979643,0.8249330770728464
-0.25368354320988357,0.8471768281380905
-0.27422352973491326,0.838835421488624
-0.25368354320988357,0.8471768281380905
-0.24683688103487367,0.8453231822159869
-0.25368354320988357,0.8471768281380905
-0.2872321878674321,0.8147380245012762
-0.32625816226498855,0.7897138045528765
-0.3776081285775628,0.7526408861108029
-0.39883278132009353,0.7313239580066107
-0.3830854583175708,0.6933242166034852
-0.32625816226498855,0.6738609344213966
-0.27970085947492124,0.6432757767066859
-0.25368354320988357,0.6154710878751307
-0.25710687429738854,0.5533739494846575
-0.25368354320988357,0.5005450407047026
-0.2516295445573806,0.4356674334310739
-0.25368354320988357,0.38469217057322275
-0.30503350952245784,0.3133268025722311
-0.39883278132009353,0.2688393004417428
-0.5207033680352698,0.23083955903861741
-0.6158719722679075,0.21044945389547695
-0.6939239210630204,0.15391325327131478
-0.7603365441606165,0.09459658376399704
-0.8246951686057096,0.02415803872405727
-0.8329111632157215,-0.020329463406431016
-0.7801918644681453,-0.08428024771900793
-0.6877619251055115,-0.13618233353791093
-0.6117639749629016,-0.18901124231786576
-0.5432973532128025,-0.1945721800841768
-0.4946860517702322,-0.19642582600628047
-0.47072273415769755,-0.1945721800841768
-0.5022173801627431,-0.23071827556519853
-0.5432973532128025,-0.2520352036693908
-0.5652066721728343,-0.2677911940072721
-0.5432973532128025,-0.2520352036693908
-0.5152260382952619,-0.2557424955135982
-0.47072273415769755,-0.2520352036693908
-0.41252610567011333,-0.2622302562409611
-0.32625816226498855,-0.2520352036693908
-0.2666922013424024,-0.2585229643967537
-0.25368354320988357,-0.2520352036693908
-0.29339418382494103,-0.2603766103188574
-0.32625816226498855,-0.2520352036693908
-0.3392668203975074,-0.2585229643967537
-0.32625816226498855,-0.2520352036693908
-0.31051083926246575,-0.25944978735780555
-0.25368354320988357,-0.2520352036693908
-0.15851493897724592,-0.25944978735780555
-0.03664435226206961,-0.2520352036693908
0.026344939748021507,-0.25944978735780555
0.035245600575534386,-0.2520352036693908
0.01196694918050071,-0.2603766103188574
0.035245600575534386,-0.2520352036693908
0.07837957227809678,-0.2585229643967537
0.10782021963063937,-0.2520352036693908
0.0763255736255938,-0.26130343327990924
0.035245600575534386,-0.2520352036693908
0.016759612703007642,-0.2557424955135982
0.035245600575534386,-0.2520352036693908
0.041407596533043295,-0.2650107251241166
0.035245600575534386,-0.2520352036693908
0.03319160192303141,-0.2501815577472872
0.10782021963063937,-0.2520352036693908
0.3056887564884256,-0.29188859099461995
0.6863631734189762,-0.3104250502156567
1.2354654798547706,-0.3187664568651233
1.9160237000507552,-0.3104250502156567
2.6458778879068108,-0.34008338496931556
3.363408083847849,-0.36788807380087074
3.938527706548681,-0.3882781789440112
4.231564847639104,-0.36788807380087074
4.106955596053925,-0.36418078195666337
3.5804472747956626,-0.36788807380087074
2.7581631475769735,-0.40403416928189245
1.8441337472131512,-0.4253510973860848
1.0108949605144457,-0.44388755660712154
0.39743402963355834,-0.4253510973860848
-0.004465040039523061,-0.42071698258082557
-0.25368354320988357,-0.4253510973860848
-0.43580475706514704,-0.46705813063341756
-0.5432973532128025,-0.4837409439323506
-0.5939626533078758,-0.4920823505818172
-0.6158719722679075,-0.4837409439323506
-0.6795459304954996,-0.4994969342702319
-0.7603365441606165,-0.4837409439323506
-0.8068938469506839,-0.45871672398395097
-0.7603365441606165,-0.4253510973860848
-0.6788612642779986,-0.43461932699660316
-0.6158719722679075,-0.4253510973860848
-0.6158719722679075,-0.40588781520399614
-0.6158719722679075,-0.36788807380087074
-0.5960166519603788,-0.37252218860612996
-0.5432973532128025,-0.36788807380087074
-0.5282346964277808,-0.354912552346145
-0.5432973532128025,-0.3104250502156567
-0.5706840019128422,-0.2881812991504126
-0.5432973532128025,-0.2520352036693908
-0.4796233949852104,-0.21032817042205806
-0.39883278132009353,-0.13618233353791093
-0.33173549200499647,-0.08428024771900793
-0.25368354320988357,-0.020329463406431016
-0.17700092684977264,0.04547496682824957
-0.10921897131717459,0.15298643031026293
-0.07498566044212507,0.24566872641544685
-0.03664435226206961,0.32630232402695686
0.006489619440492786,0.371716649118497
0.035245600575534386,0.4421551941584368
-0.009942369779530984,0.5190814999257394
-0.10921897131717459,0.6154710878751307
-0.21260357015982415,0.6914705706813815
-0.25368354320988357,0.7897138045528765
-0.25710687429738854,0.8777619858528012
-0.25368354320988357,0.9630296982695704
-0.28517818921492916,1.0084440233611105
-0.32625816226498855,1.0788825684010503
-0.37007680018505196,1.161369811934664
-0.39883278132009353,1.2521984621177442
-0.436489423282648,1.2855640887156106
-0.47072273415769755,1.3105883086640102
-0.510433374772755,1.3291247678850469
-0.5432973532128025,1.3680513322492243
-0.5864313249153649,1.3708318011323797
-0.6158719722679075,1.3680513322492243
-0.6316192952704303,1.3550758107944985
-0.6158719722679075,1.3680513322492243
-0.5878006573503669,1.3652708633660686
-0.5432973532128025,1.3680513322492243
-0.508379376120252,1.341173466378721
-0.47072273415769755,1.3105883086640102
-0.42211143271512724,1.2447838784293295
-0.32625816226498855,1.1947354385325302
-0.22903555937984793,1.1483942904799382
-0.18179359037227957,1.1363455919862644
-0.2153422350298281,1.108540903154709
-0.25368354320988357,1.0788825684010503
-0.26189953781989544,1.0167854300105772
-0.25368354320988357,0.9630296982695704
-0.30503350952245784,0.8944447991517344
-0.39883278132009353,0.8471768281380905
-0.4940013855527312,0.786933335669721
-0.5432973532128025,0.7313239580066107
-0.578215330305353,0.6293734322909083
-0.6158719722679075,0.5005450407047026
-0.6829692615830045,0.32074138626064586
-0.7603365441606165,0.15298643031026293
-0.8459198213482403,0.0037679335809168036
-0.9048011160533255,-0.0787193099526969
-0.9321877647533651,-0.1445237401873775
-0.9048011160533255,-0.1945721800841768
-0.8459198213482403,-0.26686437104622024
-0.7603365441606165,-0.3104250502156567
-0.6829692615830045,-0.34749796865773025
-0.6158719722679075,-0.36788807380087074
-0.5768459978703511,-0.4114487529703072
-0.5432973532128025,-0.4253510973860848
-0.5159107045127629,-0.4327656810744995
-0.47072273415769755,-0.4253510973860848
-0.4303274273251391,-0.45871672398395097
-0.39883278132009353,-0.4837409439323506
-0.3967787826675906,-0.5013505801923356
-0.39883278132009353,-0.4837409439323506
-0.40431011106010145,-0.4855945898544543
-0.39883278132009353,-0.4837409439323506
-0.40294077862509947,-0.4939359965039209
-0.39883278132009353,-0.4837409439323506
-0.40088677997259653,-0.4893018816986617
-0.39883278132009353,-0.4837409439323506
-0.42690409623763415,-0.49115552762076536
-0.47072273415769755,-0.4837409439323506
-0.5467206843003075,-0.49115552762076536
-0.6158719722679075,-0.4837409439323506
-0.6788612642779986,-0.4893018816986617
-0.6877619251055115,-0.4837409439323506
-0.6432586209679472,-0.4939359965039209
-0.5432973532128025,-0.4837409439323506
-0.4522367462851708,-0.4837409439323506
-0.39883278132009353,-0.4837409439323506
-0.39746344888509155,-0.5161797475691651
-0.39883278132009353,-0.5412039675175647
-0.36459947044504404,-0.5754964170764827
-0.25368354320988357,-0.5995938140638305
-0.08183232261713498,-0.6413008473111633
0.18039483868574435,-0.6570568376490445
0.5864019056638317,-0.6644714213374593
1.1930161743697092,-0.6570568376490445
1.8975377121782284,-0.6848615264805997
2.567141272894197,-0.7154466841953104
3.159377551032554,-0.7553000715205396
3.724911846688372,-0.7729097077805245
4.096000936573908,-0.8062753343783907
3.9419510376361857,-0.8312995543267904
3.1073429185024786,-0.8674456498078121
1.9160237000507552,-0.8887625779120044
0.8212424182666714,-0.9239818504319743
0.035245600575534386,-0.9462256014972185
-0.5254960315577768,-0.9814448740171883
-0.9048011160533255,-1.0046154480434843
-1.079391001516078,-1.0435420124076615
-1.0499503541635355,-1.0620784716286984
-0.9582050810184027,-1.0769076390055277
-0.9048011160533255,-1.0620784716286984
-0.9095937795758324,-1.0611516486676464
-0.9048011160533255,-1.0620784716286984
-0.8979544538783155,-1.0963709211876165
-0.9048011160533255,-1.1204683181749642
-0.9342417634058681,-1.1417852462791565
-0.9048011160533255,-1.1204683181749642
-0.8089478456031868,-1.0954440982265645
-0.6877619251055115,-1.0620784716286984
-0.6336732939229333,-1.0630052945897501
-0.6158719722679075,-1.0620784716286984
-0.6179259709204105,-1.0750539930834242
-0.6158719722679075,-1.0620784716286984
-0.6350426263579353,-1.0491029501739726
-0.6158719722679075,-1.0046154480434843
-0.5508286816053134,-0.9582742999908923
-0.47072273415769755,-0.8887625779120044
-0.43375075841264404,-0.8377873150541533
-0.39883278132009353,-0.7729097077805245
-0.3358434893100024,-0.7080321005068958
-0.25368354320988357,-0.5995938140638305
-0.2091802390723192,-0.487448235776558
-0.18179359037227957,-0.36788807380087074
-0.150983610584735,-0.28540083026725704
-0.10921897131717459,-0.1945721800841768
-0.09826431183715875,-0.09818259213478552
-0.10921897131717459,0.03713356017878302
-0.14276761597472312,0.15669372215447028
-0.18179359037227957,0.2688393004417428
-0.2317742242498519,0.3476192521311492
-0.25368354320988357,0.4421551941584368
-0.25368354320988357,0.527422906575206
-0.25368354320988357,0.6154710878751307
-0.3098261730449648,0.6701536425771892
-0.39883278132009353,0.7313239580066107
-0.48989338824772527,0.7832260438255136
-0.5432973532128025,0.8471768281380905
-0.58300799382786,0.8777619858528012
-0.6158719722679075,0.9055666746843564
-0.6590059439704699,0.9222494879832895
-0.6877619251055115,0.9630296982695704
-0.7041939143255352,0.9750783967632444
-0.6877619251055115,0.9630296982695704
-0.6590059439704699,0.9157617272559266
-0.6158719722679075,0.9055666746843564
-0.580953995175357,0.9064934976454082
-0.5432973532128025,0.9055666746843564
-0.512487373425258,0.8462500051770387
-0.47072273415769755,0.7897138045528765
-0.43443542463014506,0.7442994794613363
-0.39883278132009353,0.7313239580066107
-0.3892474542750797,0.6812755181098114
-0.39883278132009353,0.6154710878751307
-0.435120090847646,0.5376179591467762
-0.47072273415769755,0.5005450407047026
-0.511802707207757,0.46532576818473276
-0.5432973532128025,0.4421551941584368
-0.581638661392858,0.38654581649532643
-0.6158719722679075,0.32630232402695686
-0.6768072656254956,0.2345468508828248
-0.7603365441606165,0.15298643031026293
-0.8561898146107552,0.07235283269875291
-0.9048011160533255,0.03713356017878302
-0.9130171106633374,0.005621579503020482
-0.9048011160533255,-0.020329463406431016
-0.9178097741858443,-0.08520707068005977
-0.9048011160533255,-0.13618233353791093
-0.8486584862182442,-0.18159665862945104
-0.7603365441606165,-0.1945721800841768
-0.7089865778480422,-0.2251573377988875
-0.6877619251055115,-0.2520352036693908
-0.6706452696679868,-0.2946690598777754
-0.6158719722679075,-0.3104250502156567
-0.5652066721728343,-0.32340057167038244
-0.5432973532128025,-0.3104250502156567
-0.5576753437803234,-0.3104250502156567
-0.5432973532128025,-0.3104250502156567
-0.4864700571602203,-0.34379067681352293
-0.39883278132009353,-0.36788807380087074
-0.3447441501375153,-0.3882781789440112
-0.32625816226498855,-0.36788807380087074
-0.33378949065749947,-0.36047349011245605
-0.32625816226498855,-0.36788807380087074
-0.3242041636124856,-0.4114487529703072
-0.32625816226498855,-0.4253510973860848
-0.36459947044504404,-0.4290583892302921
-0.39883278132009353,-0.4253510973860848
-0.40499477727760247,-0.4633508387892102
-0.32625816226498855,-0.4837409439323506
-0.21054957150732118,-0.4920823505818172
-0.10921897131717459,-0.4837409439323506
-0.08799431857464389,-0.5152529246081132
-0.10921897131717459,-0.5412039675175647
-0.12975895784220431,-0.5569599578554459
-0.10921897131717459,-0.5412039675175647
-0.09347164831465181,-0.562520895621757
-0.10921897131717459,-0.5995938140638305
-0.1434522821922241,-0.6496422539606299
-0.10921897131717459,-0.6570568376490445
0.016759612703007642,-0.6598373065322001
0.2522847915233484,-0.6570568376490445
0.6425445354989129,-0.6885688183248071
1.2649061272073132,-0.7154466841953104
2.0187236326759037,-0.752519602637384
2.712290511004407,-0.7729097077805245
3.2524921566126883,-0.8081289803004944
3.724911846688372,-0.8312995543267904
4.028903647258812,-0.8655920038857084
3.869376418581081,-0.8887625779120044
3.1018655887624704,-0.9267623193151298
2.061172938160965,-0.9462256014972185
1.1669988581046715,-0.977737582172981
0.5418986015262673,-1.0046154480434843
0.0270296059655225,-1.0500297731350243
-0.39883278132009353,-1.0620784716286984
-0.6466819520554521,-1.0657857634729058
-0.6877619251055115,-1.0620784716286984
-0.6726992683204898,-1.0972977441486682
-0.6877619251055115,-1.1204683181749642
-0.7384272252005848,-1.1315901937075863
