ECG,PPG
-0.2253694390677098,-0.3399620268685032
-0.1696250454372903,-0.3876277855153604
-0.2497576112810183,-0.36954767016655254
-0.23582151287341344,-0.40570790086416836
-0.2706617588924256,-0.42625348648781375
-0.33337420172664756,-0.4369371910121093
-0.4030546937646719,-0.45008636581124234
-0.4553150627931902,-0.47063195143488773
-0.4936393334141036,-0.4936430073333705
-0.5215115302293134,-0.5125449461071243
-0.531963604035017,-0.5322687083058238
-0.5215115302293134,-0.5544579407793608
-0.4971233580160048,-0.5782908201027894
-0.4762192104045975,-0.5988364057264348
-0.4553150627931902,-0.620203814775026
-0.44486298898748655,-0.6432148706735088
-0.4344109151817829,-0.6654041031470458
-0.4413789643855853,-0.6867715121956369
-0.451831038191289,-0.7081389212442282
-0.46576713659889385,-0.7303281537177652
-0.4831872596083999,-0.7533392096162479
-0.5040914072198073,-0.7755284420897849
-0.5284795794331157,-0.8001831448381593
-0.5528677516464243,-0.8256596710114796
-0.5772559238597328,-0.8527798440346915
-0.5946760468692389,-0.8790781936329576
-0.6086121452768438,-0.9070201900811152
-0.6225482436844487,-0.9308530694045439
-0.6330003174901523,-0.95715141900281
-0.6295162928882512,-0.979340651476347
-0.580739948461634,-1.0064608244995588
-0.4553150627931902,-1.0302937038229876
-0.22188541446580856,-1.059057523696091
0.1265170457243133,-1.0837122264444654
0.5689881701657681,-1.1132978697425147
1.0602356390338399,-1.1354871022160518
1.523610911086702,-1.1626072752392635
1.8824654450825273,-1.183152860862909
2.0706027735851933,-1.2086293870362292
2.0427305767699835,-1.2267095023850372
1.8023328792387994,-1.2521860285583575
1.3912179762144556,-1.2702661439071654
0.8860344089387789,-1.2965644935054315
0.3738827924592998,-1.3146446088542394
-0.06858833198215494,-1.3401211350275595
-0.3995706691627707,-1.3573794269514217
-0.6155801944806463,-1.3803904828499045
-0.7444891047509913,-1.3951833044989292
-0.8211376459928181,-1.4149070666976287
-0.8803660642251389,-1.4280562414967617
-0.9395944824574596,-1.4453145334206239
-0.9953388760878791,-1.4576418847948112
-1.040631195912595,-1.4749001767186731
-1.0650193681259035,-1.4872275280928604
-1.0685033927278047,-1.5053076434416683
-1.0615353435240023,-1.5225659353655303
-1.0545672943201998,-1.5447551678390674
-1.0545672943201998,-1.5653007534627128
-1.0685033927278047,-1.5883118093611956
-1.0998596141449155,-1.6072137481349493
-1.1277318109601253,-1.6244720400588115
-1.1486359585715327,-1.6367993914329986
-1.152119983173434,-1.6507703896570776
-1.1451519339696314,-1.666385034731048
-1.1346998601639278,-1.688574267204585
-1.138183884765829,-1.7132289699529595
-1.152119983173434,-1.7428146132510087
-1.1799921799886437,-1.7715784331241122
-1.2113484014057545,-1.8011640764221615
-1.235736573619063,-1.825818779170536
-1.2392205982209643,-1.852117128768802
-1.2322525490171619,-1.8734845378173932
-1.2252844998133594,-1.8989610639907135
-1.218316450609557,-1.918684826189413
-1.2287685244152606,-1.9425177055128418
-1.2427046228228655,-1.9605978208616497
-1.2566407212304704,-1.9811434064852949
-1.2705768196380753,-1.9918271110095906
-1.281028893443779,-2.002510815533886
-1.2914809672494827,-2.002510815533886
-1.3019330410551864,-2.0049762858087234
-1.3228371886665935,-1.9975798749842113
-1.347225360879902,-1.9934707578594821
-1.3716135330932107,-1.9737469956607827
-1.3855496315008156,-1.9507359397622999
-1.3890336561027168,-1.9071792982401716
-1.3750975576951119,-1.8578698927434227
-1.347225360879902,-1.7913021953228119
-1.31238511486089,-1.7271999681770382
-1.2740608442399766,-1.657344977056644
-1.249672672026668,-1.595708220185708
-1.2322525490171619,-1.5299623461900427
-1.2287685244152606,-1.4691474127440525
-1.2287685244152606,-1.4017578918984956
-1.218316450609557,-1.3368338413277763
-1.1904442537943474,-1.2645133799325445
-1.152119983173434,-1.1946583888121505
-1.1033436387468167,-1.121516103991973
-1.0510832697182986,-1.050017466021687
-1.0057909498935826,-0.9752315343516179
-0.9674666792726693,-0.9029110729563862
-0.9395944824574596,-0.8289469647112628
-0.9221743594479535,-0.7566265033160312
-0.915206310244151,-0.6826623950709079
-0.915206310244151,-0.6103419336756762
-0.915206310244151,-0.5363778254305529
-0.9117222856422498,-0.4640573640353212
-0.9012702118365462,-0.3900932557901979
-0.8838500888270401,-0.3177727943949662
-0.8699139904194352,-0.2454523329997345
-0.8559778920118303,-0.17477551845439446
-0.852493867409929,-0.10574235075894604
-0.8559778920118303,-0.03753100648844343
-0.8629459412156327,0.029036690932167552
-0.8768820396232376,0.09642621177772434
-0.8873341134289413,0.1613502623484437
-0.8908181380308425,0.22791795976905468
-0.8908181380308425,0.29202018691482823
-0.8768820396232376,0.35612241406060174
-0.8594619166137315,0.41775917093153786
-0.835073744400423,0.4785741043775281
-0.8176536213909169,0.5361017441237351
-0.8106855721871145,0.5936293838699421
-0.8106855721871145,0.6470479064914201
-0.8141695967890157,0.700466429112898
-0.8211376459928181,0.7514194814595386
-0.8211376459928181,0.8015507103812333
-0.8246216705947194,0.8492164690280906
-0.8281056951966206,0.8952385808250561
-0.8385577690023243,0.9363297520723468
-0.8559778920118303,0.9749554530448001
-0.8838500888270401,1.006184743192741
-0.9186903348460522,1.0349485630658446
-0.9570146054669657,1.0596032658142192
-0.9953388760878791,1.0834361451376477
-1.0301791221068912,1.1048035541862389
-1.0510832697182986,1.1253491398098843
-1.0475992451163973,1.144251078583638
-1.0162430236992863,1.1623311939324459
-0.963982654670768,1.1763021921565247
-0.897786187234645,1.188629543530712
-0.8420417936042255,1.1984914246300618
-0.8002334983814108,1.2067096588795199
-0.7897814245757072,1.2132842462790865
-0.8002334983814108,1.2198588336786529
-0.8315897197985218,1.2247897742283278
-0.866429965817534,1.2272552445031653
-0.9047542364384474,1.2272552445031653
-0.9326264332536571,1.2256115976532735
-0.9570146054669657,1.2206806571035986
-0.9709507038745705,1.2173933634038154
-0.977918753078373,1.2132842462790865
-0.977918753078373,1.2124624228541405
-0.9744347284764717,1.209996952579303
-0.9604986300688668,1.210818776004249
-0.9395944824574596,1.2091751291543573
-0.9047542364384474,1.209996952579303
-0.8594619166137315,1.2075314823044656
-0.8141695967890157,1.2067096588795199
-0.7723613015662011,1.2034223651797367
-0.7444891047509913,1.2034223651797367
-0.7410050801490901,1.1984914246300618
-0.7584252031585962,1.1984914246300618
-0.7932654491776084,1.1919168372304951
-0.835073744400423,1.1878077201057662
-0.8768820396232376,1.175480368731579
-0.9047542364384474,1.1672621344821208
-0.915206310244151,1.1516474894081503
-0.9082382610403485,1.1417856083088005
-0.8943021626327438,1.1269927866597758
-0.8699139904194352,1.1195963758352636
-0.8490098428080279,1.1072690244610763
-0.8315897197985218,1.099872613636564
-0.8176536213909169,1.0875452622623767
-0.8072015475852132,1.0776833811630269
-0.803717522983312,1.0628905595140024
-0.8106855721871145,1.050563208139815
-0.8211376459928181,1.0341267396408989
-0.835073744400423,1.0209775648417658
-0.8385577690023243,1.0053629197677953
-0.835073744400423,0.9913919215437165
-0.8246216705947194,0.975777276469746
-0.8106855721871145,0.9618062782456671
-0.8002334983814108,0.9461916331716966
-0.7932654491776084,0.931398811522672
-0.7932654491776084,0.9149623430237557
-0.7897814245757072,0.900169521374731
-0.7828133753719048,0.8829112294508689
-0.7758453261681023,0.8681184078018442
-0.7688772769642999,0.8508601158779822
-0.7688772769642999,0.8336018239541201
-0.7688772769642999,0.8146998851803663
-0.7653932523623986,0.7957979464066126
-0.7444891047509913,0.776074184207913
-0.7096488587319791,0.7571722454341593
-0.6608725143053621,0.7382703066604055
-0.6086121452768438,0.7218338381614893
-0.5702878746559304,0.7062191930875188
-0.5458997024426219,0.6914263714384942
-0.5389316532388194,0.6766335497894694
-0.5389316532388194,0.6626625515653906
-0.5528677516464243,0.6454042596415285
-0.5668038500540292,0.629789614567558
-0.5877079976654365,0.6108876757938043
-0.6086121452768438,0.5919857370200505
-0.6364843420920535,0.5697965045465135
-0.6678405635091645,0.5492509189228681
-0.6957127603243742,0.5262398630243854
-0.7270689817414853,0.50569427740074
-0.7584252031585962,0.48350504492720303
-0.786297399973806,0.4654249295783951
-0.8072015475852132,0.44570116737969556
-0.8211376459928181,0.4300865223057251
-0.8141695967890157,0.41200640695691715
-0.7932654491776084,0.39556993845800087
-0.754941178556695,0.37666799968424713
-0.7096488587319791,0.3577660609104934
-0.6643565389072633,0.3363986518619022
-0.6330003174901523,0.315031242813311
-0.62603226828635,0.29284201033977403
-0.643452391295856,0.27147460129118284
-0.6852606865186707,0.24846354539270005
-0.7340370309452877,0.22709613634410886
-0.7793293507700035,0.20490690387057187
-0.8072015475852132,0.1835394948219807
-0.8246216705947194,0.1613502623484437
-0.835073744400423,0.1391610298749067
-0.8420417936042255,0.11697179740136972
-0.8455258182061267,0.09560438835277853
-0.8490098428080279,0.07505880272913316
-0.8385577690023243,0.055335040530433616
-0.8211376459928181,0.037254925181625695
-0.7967494737795096,0.01999663325776359
-0.7828133753719048,0.0027383413339014838
-0.7758453261681023,-0.014519950589960622
-0.7828133753719048,-0.032600065938768547
-0.7897814245757072,-0.052323828137468095
-0.8002334983814108,-0.07286941376111346
-0.7967494737795096,-0.09505864623465045
-0.7897814245757072,-0.11642605528324164
-0.7793293507700035,-0.13943711118172444
-0.7758453261681023,-0.1599826968053698
-0.7828133753719048,-0.18299375270385262
-0.803717522983312,-0.2043611617524438
-0.8420417936042255,-0.22655039422598078
-0.8873341134289413,-0.24791780327457197
-0.9291424086517559,-0.27092885917305476
-0.9361104578555584,-0.29147444479670015
-0.8699139904194352,-0.31448550069518294
-0.6852606865186707,-0.33585290974377413
-0.36473042314375853,-0.3588639656422569
0.08470875050149868,-0.3794095512659023
0.6142804899904839,-0.4024206071643851
1.1368841802756666,-0.4229661927880305
1.558451157105714,-0.4459772486865133
1.7988488546368981,-0.4673446577351045
1.8162689776464043,-0.49035571363358726
1.6176795753380349,-0.5100794758322869
1.2414049183327032,-0.5298032380309864
0.7640935478722363,-0.5437742362550653
0.265878029800362,-0.5561015876292524
-0.18007711924299394,-0.5643198218787105
-0.531963604035017,-0.5717162327032229
-0.7758453261681023,-0.579934466952681
-0.9186903348460522,-0.5922618183268683
-0.9953388760878791,-0.6070546399758929
-1.0336631467087924,-0.6259565787496467
-1.0650193681259035,-0.6473239877982379
-1.1033436387468167,-0.6711568671216664
-1.1451519339696314,-0.6958115698700409
-1.1904442537943474,-0.7221099194683069
-1.2218004752114582,-0.7492300924915188
-1.249672672026668,-0.7788157357895682
-1.2670927950361741,-0.8067577322377258
-1.2914809672494827,-0.8371651989607211
-1.3193531640646923,-0.864285371983933
-1.347225360879902,-0.8930491918570365
-1.3750975576951119,-0.9185257180303567
-1.3820656068989143,-0.9448240676286227
-1.3750975576951119,-0.9670133001021597
-1.3541934100837045,-0.9908461794255884
-1.329805237870396,-1.010569941624288
-1.31238511486089,-1.0344028209477165
-1.3054170656570876,-1.054948406571362
-1.31238511486089,-1.0845340498694112
-1.3263212132684947,-1.1132978697425147
-1.3367732870741984,-1.151923570714968
-1.3437413362780009,-1.1864401545626921
-1.3507093854818033,-1.2258876789600914
-1.3507093854818033,-1.2562951456830864
-1.3541934100837045,-1.289168082680919
-1.361161459287507,-1.312179138579402
-1.378581582297013,-1.3392993116026137
-1.3994857299084205,-1.3582012503763674
-1.4203898775198278,-1.3836777765496877
-1.4343259759274325,-1.4025797153234414
-1.4308419513255313,-1.427234418071816
-1.406453779112223,-1.4453145334206239
-1.3681295084913094,-1.4675037658941608
-1.329805237870396,-1.4831184109681312
-1.3019330410551864,-1.5028421731668309
-1.2914809672494827,-1.515991347965964
-1.3019330410551864,-1.533249639889826
-1.3228371886665935,-1.5455769912640132
-1.3437413362780009,-1.560369812913038
-1.3576774346856058,-1.5702316940123877
-1.361161459287507,-1.5800935751117375
-1.3576774346856058,-1.5825590453865748
-1.3402573116760996,-1.5825590453865748
-1.3158691394627913,-1.5759844579870084
-1.2775448688418778,-1.5661225768876585
-1.2287685244152606,-1.550507931813688
-1.1730241307848412,-1.5324278164648801
-1.1172797371544216,-1.5102385839913433
-1.0615353435240023,-1.4855838812429687
-1.0162430236992863,-1.4559982379449194
-0.9848868022821754,-1.4231253009470868
-0.963982654670768,-1.3853214233995794
-0.9535305808650645,-1.3450520755772344
-0.946562531661262,-1.3006736106301604
-0.9326264332536571,-1.253829675408249
-0.9082382610403485,-1.2036984464865543
-0.8768820396232376,-1.1511017472900222
-0.8420417936042255,-1.0960395778186527
-0.8141695967890157,-1.0393337614973914
-0.7932654491776084,-0.9801624749012928
-0.7828133753719048,-0.9201693648802483
-0.7758453261681023,-0.8577107845843664
-0.7688772769642999,-0.7952522042884845
-0.754941178556695,-0.7295063302928193
-0.7375210555471889,-0.6654041031470458
-0.7166169079357816,-0.5988364057264348
-0.6991967849262755,-0.5347341785806613
-0.6852606865186707,-0.4681664811600503
-0.6817766619167694,-0.40652972428911416
-0.6852606865186707,-0.34242749714334064
-0.6991967849262755,-0.283256210547242
-0.7166169079357816,-0.22244127710125172
-0.7375210555471889,-0.1649136373550447
-0.7584252031585962,-0.10492052733400023
-0.7723613015662011,-0.04821471101273902
-0.7793293507700035,0.011778399008305445
-0.7758453261681023,0.06930603875451247
-0.7688772769642999,0.12847732535061113
-0.7514571539547937,0.18600496509681813
-0.7410050801490901,0.24435442826797096
-0.7340370309452877,0.30023842116428634
-0.7375210555471889,0.35530059063565594
-0.7444891047509913,0.4078972898321881
-0.7619092277604974,0.4596721656037744
-0.7793293507700035,0.5089815711005232
-0.7967494737795096,0.5566473297473805
-0.8106855721871145,0.6018476181194004
-0.8141695967890157,0.6445824362165827
-0.8072015475852132,0.6840299606139818
-0.7793293507700035,0.7210120147365434
-0.7375210555471889,0.7563504220092134
-0.6817766619167694,0.7875797121571544
-0.6155801944806463,0.8155217086053121
-0.5354476286369182,0.8385327645037949
-0.43092689057988165,0.8566128798526028
-0.29853395570763536,0.8705838780766817
-0.14872089782588296,0.8853766997257063
-0.00935991374983423,0.900169521374731
0.07425667669579501,0.9198932835734306
0.06380460289009136,0.9387952223471843
-0.040716135166945194,0.9593408079708297
-0.2114333406601049,0.975777276469746
-0.4030546937646719,0.9913919215437165
-0.5702878746559304,1.0012538026430662
-0.692228735722473,1.0119375071673617
-0.7688772769642999,1.0185120945669284
-0.8315897197985218,1.029195799091224
-0.8873341134289413,1.0341267396408989
-0.9500465562631633,1.0439886207402487
-1.012758999097385,1.0480977378649776
-1.071987417329706,1.0563159721144357
-1.124247786358224,1.0579596189643274
-1.1765081553867425,1.063712382938948
-1.2287685244152606,1.0628905595140024
-1.2775448688418778,1.0653560297888398
-1.3158691394627913,1.0645342063638938
-1.3367732870741984,1.0669996766387313
-1.347225360879902,1.063712382938948
-1.347225360879902,1.0628905595140024
-1.347225360879902,1.05549414868949
-1.3507093854818033,1.0489195612899234
-1.3646454838894082,1.0365922099157363
-1.3716135330932107,1.0275521522413322
-1.378581582297013,1.0168684477170367
-1.3750975576951119,1.0094720368925243
-1.3646454838894082,1.0012538026430662
-1.347225360879902,0.9946792152434997
-1.329805237870396,0.9872828044189874
-1.3089010902589888,0.9807082170194209
-1.294964991851384,0.9724899827699627
-1.2879969426475815,0.9650935719454504
-1.2879969426475815,0.9560535142710465
-1.2984490164532851,0.9470134565966425
-1.3228371886665935,0.9355079286474011
-1.3576774346856058,0.9240024006981596
-1.3890336561027168,0.9100314024740808
-1.4134218283160254,0.896060404250002
-1.42735792672363,0.8812675826009773
-1.4308419513255313,0.8672965843768985
-1.4308419513255313,0.8533255861528196
-1.4308419513255313,0.8418200582035782
-1.42735792672363,0.8294927068293909
-1.423873902121729,0.8212744725799328
-1.4099378037141241,0.8105907680556372
-1.3890336561027168,0.8023725338061791
-1.3646454838894082,0.7892233590070461
-1.3437413362780009,0.7785396544827504
-1.3263212132684947,0.7637468328337258
-1.3193531640646923,0.7505976580345928
-1.31238511486089,0.7341611895356764
-1.3019330410551864,0.7218338381614893
-1.2775448688418778,0.7053973696625729
-1.249672672026668,0.6922481948634399
-1.218316450609557,0.6758117263645237
-1.1869602291924461,0.6634843749903364
-1.1556040077753351,0.6470479064914201
-1.1312158355620265,0.633898731692287
-1.0998596141449155,0.6174622631933708
-1.0685033927278047,0.6043130883942378
-1.0371471713106937,0.5870547964703756
-1.0092749744954839,0.5714401513964051
-0.9814027776802742,0.5517163891977056
-0.9570146054669657,0.5336362738488977
-0.9361104578555584,0.5130906882252524
-0.9221743594479535,0.4941887494514986
-0.9082382610403485,0.47528681067774486
-0.8943021626327438,0.4588503421788286
-0.8838500888270401,0.44159205025496645
-0.8699139904194352,0.42433375833110437
-0.8559778920118303,0.40625364298229644
-0.8420417936042255,0.3865298807835969
-0.8246216705947194,0.3651624717350057
-0.8072015475852132,0.3437950626864145
-0.786297399973806,0.32160583021287753
-0.7653932523623986,0.30023842116428634
-0.7479731293528925,0.27804918869074935
-0.7375210555471889,0.25585995621721236
-0.7270689817414853,0.2344925471686212
-0.7166169079357816,0.2123033146950842
-0.7096488587319791,0.19011408222154721
-0.6957127603243742,0.16874667317295602
-0.6852606865186707,0.14655744069941903
-0.6713245881110658,0.12436820822588204
-0.6643565389072633,0.10300079917729087
-0.6573884897034609,0.08081156670375388
-0.6504204404996584,0.05862233423021688
-0.6469364158977572,0.03643310175667988
-0.6399683666939547,0.013422045858197073
-0.6295162928882512,-0.010410833465231549
-0.6190642190825475,-0.0358873596385518
-0.6016440960730414,-0.0638293560867095
-0.5842239730635352,-0.09012770568497556
-0.5668038500540292,-0.11560423185829581
-0.5528677516464243,-0.1361498174819412
-0.5389316532388194,-0.15258628598085747
-0.531963604035017,-0.1640918139300989
-0.5249955548312145,-0.17477551845439446
-0.5215115302293134,-0.18710286982858168
-0.514543481025511,-0.203539338327498
-0.500607382617906,-0.2216194536763059
-0.4831872596083999,-0.24380868614984288
-0.4622831119969926,-0.2668197420483257
-0.4378949397836841,-0.29147444479670015
-0.42047481677417803,-0.3161291475450746
-0.41002274296847435,-0.34160567371839484
-0.4135067675703756,-0.3687258467416067
-0.4169907921722768,-0.3958460197648186
-0.42395884137607925,-0.42132254593813884
-0.4274428659779804,-0.4467990721114591
-0.4169907921722768,-0.47063195143488773
-0.3995706691627707,-0.4952866541832622
-0.3786665215513634,-0.5199413569316366
-0.35427834933805485,-0.5470615299548485
-0.3368582263285488,-0.5733598795531145
-0.31943810331904265,-0.6004800525763264
-0.30898602951333903,-0.624312931899755
-0.3020179803095366,-0.6497894580730753
-0.29853395570763536,-0.6760878076713414
-0.29504993110573413,-0.7073170978192823
-0.2915659065038329,-0.7418336816670066
-0.28808188190193174,-0.7845684997641889
-0.28808188190193174,-0.8264814944364255
-0.2811138326981293,-0.8700381359585536
-0.27762980809622806,-0.9045547198062779
-0.2706617588924256,-0.9374276568041104
-0.260209685086722,-0.9620823595524849
-0.24627358667911708,-0.9883807091507509
-0.23930553747531466,-1.0089262947743962
-0.23582151287341344,-1.0360464677976082
-0.23930553747531466,-1.059057523696091
-0.24278956207721586,-1.089464990419086
-0.24627358667911708,-1.1141196931674606
-0.23930553747531466,-1.1461708067403473
-0.22885346366961098,-1.1716473329136676
-0.2114333406601049,-1.2045202699115
-0.19749724225250004,-1.2291749726598746
-0.1765930946410927,-1.2595824393828698
-0.1696250454372903,-1.2817716718564067
-0.1591729716315866,-1.3097136683045645
-0.1591729716315866,-1.3302592539282099
-0.1591729716315866,-1.3573794269514217
-0.16265699623348784,-1.3803904828499045
-0.1591729716315866,-1.4099761261479538
-0.15568894702968541,-1.4362744757462198
-0.14872089782588296,-1.466681942469215
-0.13826882402017932,-1.4946239389173728
-0.12433272561257444,-1.5250314056403678
-0.11039662720496957,-1.5529734020885255
-0.09994455339926592,-1.5833808688115207
-0.09994455339926592,-1.6113228652596785
-0.09994455339926592,-1.640086685132782
-0.11039662720496957,-1.665563211306102
-0.117364676408772,-1.6918615609043681
-0.12084870101067322,-1.7132289699529595
-0.117364676408772,-1.732952732151659
-0.10342857800116713,-1.7485673772256294
-0.08600845499166104,-1.7608947285998167
-0.07207235658405617,-1.767469315999383
-0.05813625817645129,-1.7715784331241122
-0.05116820897264885,-1.7699347862742205
-0.05116820897264885,-1.767469315999383
-0.05465223357455007,-1.759251081749925
-0.05465223357455007,-1.7485673772256294
-0.05813625817645129,-1.7321309087267132
-0.05465223357455007,-1.7132289699529595
-0.05116820897264885,-1.6861087969297475
-0.040716135166945194,-1.6565231536316982
-0.037232110565043976,-1.621184746359028
-0.026780036759340323,-1.5850245156614122
-0.026780036759340323,-1.5431115209891757
-0.019811987555537886,-1.5028421731668309
-0.019811987555537886,-1.4551764145199737
-0.016327962953636668,-1.4083324792980623
-0.016327962953636668,-1.3549139566765842
-0.00935991374983423,-1.3031390809049979
-0.012843938351735449,-1.2439677943088994
-0.005875889147933012,-1.1897274482624756
-0.00935991374983423,-1.1289125148164851
-0.005875889147933012,-1.0730285219201698
-0.00935991374983423,-1.0113917650492337
-0.005875889147933012,-0.9563295955778641
-0.005875889147933012,-0.8946928387069281
0.001092160055869425,-0.8379870223856668
0.011544233861573081,-0.7763502655147307
0.025480332269177956,-0.7180008023435779
0.039416430676782827,-0.6530767517728585
0.046384479880585264,-0.5922618183268683
0.046384479880585264,-0.5281595911810948
0.042900455278684045,-0.4689883045849961
0.03593240607488161,-0.40735154771406
0.028964356871079174,-0.3506457313927988
0.028964356871079174,-0.2947617384964834
0.03244838147298039,-0.24627415642468034
0.039416430676782827,-0.20271751490255216
0.042900455278684045,-0.16902275447977377
0.042900455278684045,-0.14108075803161607
0.042900455278684045,-0.11478240843335
0.039416430676782827,-0.08190947143551743
0.042900455278684045,-0.04164012361317251
0.046384479880585264,0.006847458458630557
0.05683655368628892,0.05944415765516269
0.06380460289009136,0.11368450370158645
0.07425667669579501,0.1671030263230644
0.07774070129769624,0.21805607866970492
0.08122472589959745,0.26900913101634544
0.08122472589959745,0.3183185365130943
0.08470875050149868,0.36680611858489737
0.08122472589959745,0.41118458353197135
0.08819277510339989,0.4539194016291537
0.08819277510339989,0.49172327917666114
0.09516082430720232,0.5270616864493312
0.10212887351100476,0.5574691531723264
0.11258094731670841,0.5862329730454299
0.11954899652051085,0.6108876757938043
0.13348509492811572,0.6347205551172329
0.13696911953001695,0.6552661407408783
0.14393716873381937,0.678277196639361
0.1474211933357206,0.6980009588380607
0.15438924253952305,0.7193683678866518
0.15438924253952305,0.7382703066604055
0.15787326714142424,0.7555285985842677
0.15438924253952305,0.7686777733834007
0.15438924253952305,0.7801833013326421
0.15438924253952305,0.7875797121571544
0.17180936554902912,0.7949761229816668
0.19619753776233767,0.7974415932565042
0.2414898575870535,0.7999070635313417
0.28678217741176937,0.7990852401063958
0.3355585218383864,0.7982634166814501
0.3738827924592998,0.7933324761317752
0.40175498927450953,0.7892233590070461
0.41569108768211444,0.7818269481825337
0.42614316148781806,0.7752523607829672
0.4226591368859169,0.7678559499584549
0.41569108768211444,0.7612813625588883
0.3982709646726083,0.7547067751593218
0.377366817061201,0.7497758346096469
0.34949462024599126,0.7456667174849179
0.32510644803268274,0.7440230706350263
0.30420230042127544,0.7415576003601888
0.28678217741176937,0.7390921300853514
0.2763301036060657,0.7349830129606223
0.2763301036060657,0.7300520724109474
0.28329815280986814,0.7251211318612725
0.3007182758193742,0.7210120147365434
0.32859047263458396,0.7169028976118144
0.3669147432554974,0.7144374273369769
0.40523901387641076,0.7119719570621394
0.4435632844973242,0.7103283102122478
0.46098340750683026,0.7053973696625729
0.46098340750683026,0.7012882525378439
0.4331112106916205,0.6938918417133315
0.3982709646726083,0.6881390777387109
0.34949462024599126,0.6799208434892527
0.31465437422697906,0.6733462560896862
0.28678217741176937,0.6643061984152823
0.28678217741176937,0.656087964165824
0.29026620201367054,0.642938789366691
0.3216224234307815,0.6322550848423955
0.34601059564409004,0.6174622631933708
0.3878188908669047,0.6043130883942378
0.40175498927450953,0.5886984433202673
0.4226591368859169,0.5755492685211343
0.408723038478312,0.559112800022218
0.40175498927450953,0.545963625223085
0.377366817061201,0.5295271567241686
0.3669147432554974,0.5163779819250356
0.35994669405169494,0.5007633368510651
0.3669147432554974,0.4867923386269863
0.3738827924592998,0.4719995169779616
0.38085084166310224,0.4588503421788286
0.37039876785739856,0.44570116737969556
0.35994669405169494,0.4366611097052916
0.35994669405169494,0.4284428754558334
0.41569108768211444,0.42433375833110437
0.5620201209619656,0.4218682880562669
0.8268059907064582,0.42351193490615857
1.2135327215174934,0.425977405180996
1.6873600673760591,0.43337381600550834
2.1925436346517357,0.44159205025496645
2.6489508575007954,0.45638487190399113
2.9799331946814114,0.47364316382785326
3.1297462525631636,0.49747604315128185
3.0670338097289416,0.523774392749548
2.7987639153825477,0.5550036828974889
2.370228889348698,0.5878766198953215
1.8615612974711202,0.6232150271679915
1.3598617547973446,0.6569097875907699
0.9417788025691984,0.6947136651382774
0.6456367114075948,0.7300520724109474
0.4784035305163364,0.7711432436582382
0.40175498927450953,0.8073034743558539
0.3738827924592998,0.8451073519033614
0.34949462024599126,0.8746929952014108
0.32510644803268274,0.9026349916495685
0.29026620201367054,0.9207151069983764
0.2623940051984608,0.9429043394719134
0.23452180838325107,0.9642717485205046
0.23103778378134984,0.9971446855183371
0.23103778378134984,1.029195799091224
0.25194193139275717,1.0694651469135688
0.2623940051984608,1.1056253776111846
0.29026620201367054,1.1450729020085837
0.29375022661557176,1.175480368731579
0.30768632502317667,1.209996952579303
0.297234251217473,1.237117125602515
0.297234251217473,1.26752459232551
0.28678217741176937,1.2921792950738846
0.297234251217473,1.3184776446721507
0.30420230042127544,1.3398450537207418
0.3216224234307815,1.3628561096192247
0.3320744972364852,1.3801144015430868
0.34601059564409004,1.3990163403168405
0.34949462024599126,1.4129873385409193
0.35994669405169494,1.427780160189944
0.3669147432554974,1.4384638647142396
0.3738827924592998,1.449969392663481
0.377366817061201,1.4581876269129392
0.3738827924592998,1.4680495080122888
0.36343071865359616,1.476267742261747
0.3529786448478925,1.485307799936151
0.34601059564409004,1.4927042107606634
0.3529786448478925,1.498456974735284
0.36343071865359616,1.5001006215851758
0.38085084166310224,1.5001006215851758
0.3982709646726083,1.4959915044604466
0.41569108768211444,1.4910605639107717
0.4296271860897193,1.4836641530862593
0.45053133370112664,1.4779113891116387
0.4644674321087315,1.4696931548621806
0.4853715797201388,1.46394039088756
0.49582365352584246,1.4549003332131558
0.5097597519334474,1.4491475692385352
0.5132437765353486,1.4401075115641313
0.5271798749429534,1.4351765710144564
0.537631948748657,1.4253146899151066
0.5655041455638669,1.4203837493654317
0.5898923177771753,1.4105218682660818
0.6247325637961876,1.406412751141353
0.6560887852132985,1.3940853997671656
0.6978970804361131,1.388332635792545
0.7362213510570266,1.3735398141435202
0.7815136708817424,1.365321579894062
0.8163539169007545,1.3488851113951459
0.8581622121235691,1.3406668771456876
0.8895184335406802,1.325874055496663
0.9278427041615935,1.3201212915220424
0.9591989255787045,1.3086157635728008
0.9975231961996179,1.303684823023126
1.0253953930148276,1.2938229419237761
1.0602356390338399,1.2888920013741014
1.0846238112471485,1.27738647342486
1.1159800326642593,1.2708118860252935
1.1368841802756666,1.2568408878012145
1.157788327887074,1.2469790067018647
1.17520845089658,1.233008008477786
1.189144549304185,1.2223243039534903
1.1961125985079875,1.209996952579303
1.206564672313691,1.2009568949048992
1.2135327215174934,1.1902731903806036
1.2309528445269995,1.1812331327061996
1.2483729675365056,1.1697276047569583
1.269277115147913,1.1582220768077167
1.2832132135555179,1.1434292551586922
1.2936652873612215,1.1302800803595592
1.2901812627593203,1.1146654352855887
1.286697238157419,1.1006944370615097
1.2797291889536166,1.0859016154124852
1.2797291889536166,1.0719306171884062
1.2832132135555179,1.0563159721144357
1.2971493119631228,1.042344973890357
1.3110854103707277,1.0267303288163865
1.3250215087783324,1.0135811540172535
1.3250215087783324,0.997966508943283
1.3285055333802336,0.98481733414415
1.3215374841764311,0.9683808656452336
1.3285055333802336,0.9552316908461006
1.3285055333802336,0.9396170457721301
1.3424416317878385,0.9264678709729971
1.3459256563897397,0.9100314024740808
1.3598617547973446,0.8977040510998936
1.3563777301954434,0.8804457591760315
1.3633457793992458,0.8681184078018442
1.3563777301954434,0.8508601158779822
1.3633457793992458,0.8393545879287407
1.3528937055935422,0.8220962960048787
1.3633457793992458,0.8097689446306914
1.3598617547973446,0.7925106527068293
1.3703138286030483,0.7810051247575879
1.366829804001147,0.7637468328337258
1.380765902408752,0.7505976580345928
1.3947020008163569,0.7341611895356764
1.4225741976315667,0.722655661586435
1.4539304190486775,0.709506486787302
1.4992227388733934,0.7012882525378439
1.541031034096208,0.6914263714384942
1.5793553047171214,0.6856736074638734
1.60374347693043,0.6766335497894694
1.6246476245418373,0.6684153155400113
1.635099698347541,0.6577316110157158
1.6490357967551457,0.6486915533413118
1.6629718951627506,0.638829672241962
1.6873600673760591,0.629789614567558
1.7047801903855653,0.6191059100432624
1.7256843379969726,0.6084222055189669
1.732652387200775,0.5952730307198338
1.732652387200775,0.581302032495755
1.7256843379969726,0.5665092108467303
1.7222003133950714,0.5525382126226515
1.7117482395893677,0.5377453909736268
1.7047801903855653,0.5229525693246021
1.6908440919779604,0.5081597476755775
1.6769079935703555,0.4941887494514986
1.652519821357047,0.4802177512274198
1.6385837229494422,0.46789039985323255
1.6281316491437385,0.45638487190399113
1.6316156737456398,0.44652299080464136
1.635099698347541,0.43501746285539994
1.6455517721532444,0.42351193490615857
1.6385837229494422,0.4087191132571339
1.6316156737456398,0.3922826447582176
1.60374347693043,0.3750243528343555
1.589807378522825,0.359409707760385
1.5654192063095165,0.3446168861113604
1.558451157105714,0.33311135816211895
1.541031034096208,0.32078400678793173
1.5375470094943067,0.3092784788386903
1.5201268864848008,0.2961293040395573
1.5166428618828995,0.28298012924042426
1.5027067634752946,0.2673654841664538
1.509674812679097,0.2525726625174291
1.4992227388733934,0.23777984086840445
1.509674812679097,0.2238088426443256
1.5027067634752946,0.20819419757035512
1.509674812679097,0.1942231993462763
1.5027067634752946,0.17943037769725162
1.509674812679097,0.16545937947317277
1.509674812679097,0.1498447343992023
1.5131588372809983,0.13587373617512344
1.5131588372809983,0.12108091452609879
1.5166428618828995,0.10628809287707412
1.5131588372809983,0.09149527122804946
1.5061907880771959,0.0775242730039706
1.4887706650676897,0.06273145135494596
1.4643824928543812,0.04793862970592128
1.4365102960391714,0.033145808056896625
1.4434783452429738,0.01835298640787196
1.5201268864848008,0.004381988183793113
1.715232264191269,-0.010410833465231549
2.0427305767699835,-0.025203655114256214
2.495653775017142,-0.03999647676328087
3.014773440700423,-0.05396747498735972
3.516472983374199,-0.0695821200613302
3.906683738787135,-0.08355311828540905
4.126177288706912,-0.09834593993443372
4.129661313308813,-0.11313876158345837
3.934555935602345,-0.12793158323248305
3.568733352402717,-0.14190258145656187
3.1088421049517563,-0.15751722653053235
2.6210786606855856,-0.17231004817955703
2.182091560846032,-0.19039016352836494
1.8336891006559104,-0.20764845545222704
1.5967754277266275,-0.2281940410758724
1.446962369844875,-0.24709597984962614
1.366829804001147,-0.2676415654732715
1.3076013857688265,-0.28407803397218784
1.2727611397498142,-0.3021581493209957
1.2344368691289007,-0.3169509709700204
1.2135327215174934,-0.3333874394689367
1.189144549304185,-0.3465366142680697
1.17520845089658,-0.3621512593420402
1.143852229479469,-0.37694408099106486
1.1299161310718642,-0.3950241963398728
1.1020439342566544,-0.41228248826373487
1.0985599096547531,-0.43282807388738026
1.0846238112471485,-0.451730012661134
1.091591860450951,-0.47145377485983353
1.077655762043346,-0.48953389020864146
1.0741717374414448,-0.5067921821325035
1.0497835652281362,-0.5232286506314199
1.03236344221863,-0.540486942555282
1.0114592946072227,-0.5585670579040899
1.001007220801519,-0.5782908201027894
0.9940391715977167,-0.598014582301489
1.001007220801519,-0.6177383445001885
1.001007220801519,-0.6349966364240507
1.0044912454034203,-0.6530767517728585
1.001007220801519,-0.6695132202717748
0.9870711223939143,-0.6867715121956369
0.9661669747825069,-0.7048516275444449
0.9452628271710997,-0.7253972131680902
0.9208746549577911,-0.744299151941844
0.9069385565501862,-0.7632010907155977
0.8999705073463838,-0.7779939123646223
0.8999705073463838,-0.7903212637388096
0.8930024581425814,-0.797717674563322
0.8895184335406802,-0.8067577322377258
0.8686142859292728,-0.8133323196372924
0.8477101383178656,-0.8248378475865338
0.8198379415026558,-0.8355215521108295
0.8059018430950509,-0.8519580206097457
0.7919657446874461,-0.864285371983933
0.7989337938912484,-0.8823654873327408
0.8024178184931496,-0.8946928387069281
0.823321966104557,-0.9119511306307901
0.8302900153083594,-0.9242784820049774
0.8511941629197667,-0.944002244203677
0.8581622121235691,-0.9579732424277558
0.8825503843368777,-0.9801624749012928
0.8964864827444826,-0.996598943400209
0.9278427041615935,-1.0196099992986918
0.9522308763749021,-1.0344028209477165
0.9905551469958155,-1.0557702299963077
1.0184273438110252,-1.0697412282203866
1.0532675898300374,-1.089464990419086
1.0741717374414448,-1.103435988643165
1.0985599096547531,-1.1239815742668102
1.112496008062358,-1.1437053364655099
1.1299161310718642,-1.1708255094887217
1.143852229479469,-1.197123859086988
1.1612723524889752,-1.2299967960848204
1.1786924754984813,-1.2579387925329781
1.1961125985079875,-1.2867026124060816
1.2100486969155921,-1.3088918448796185
1.2205007707212958,-1.3302592539282099
1.223984795323197,-1.3483393692770178
1.223984795323197,-1.368884954900663
1.2135327215174934,-1.3886087170993626
1.206564672313691,-1.4107979495728997
1.1995966231098887,-1.4321653586214909
1.1961125985079875,-1.4551764145199737
1.1856605247022838,-1.4757220001436189
1.17520845089658,-1.4987330560421017
1.157788327887074,-1.519278641665747
1.1403682048775678,-1.5431115209891757
1.1194640572661605,-1.563657106612821
1.1055279588585556,-1.5874899859362497
1.091591860450951,-1.6072137481349493
1.0881078358490497,-1.631046627458378
1.077655762043346,-1.6515922130820233
1.0706877128395436,-1.6762469158303976
1.0567516144319387,-1.6959706780290973
1.0497835652281362,-1.7198035573525259
1.0288794176167289,-1.737061849276388
1.014943319209124,-1.7567856114750875
0.9905551469958155,-1.7691129628492748
0.9731350239863094,-1.7830839610733535
0.9522308763749021,-1.7888367250479744
0.9452628271710997,-1.798698606147324
0.9313267287634948,-1.798698606147324
0.9313267287634948,-1.8019858998471074
0.9208746549577911,-1.794589489022595
0.9243586795596923,-1.7888367250479744
0.9104225811520874,-1.7707566096991665
0.9069385565501862,-1.7534983177753043
0.8895184335406802,-1.723912674477255
0.8755823351330753,-1.6935052077542598
0.8477101383178656,-1.6507703896570776
0.8198379415026558,-1.6072137481349493
0.7849976954836436,-1.5546170489384172
0.7571254986684338,-1.5011985263169392
0.7362213510570266,-1.4412054162958947
0.7327373264551253,-1.3812123062748503
0.7397053756589277,-1.3146446088542394
0.7640935478722363,-1.248898734858574
0.7849976954836436,-1.1774000968882883
0.8059018430950509,-1.1067232823429483
0.8093858676969521,-1.0327591740978248
0.8024178184931496,-0.9579732424277558
0.7815136708817424,-0.8807218404828492
0.7536414740665326,-0.8026486151129968
0.7222852526494217,-0.7229317428932528
0.6944130558342119,-0.6432148706735088
0.6735089082228046,-0.562676175028819
0.6595728098151997,-0.48213747938412915
0.649120736009496,-0.4032424305893309
0.6456367114075948,-0.3243473817945327
0.6560887852132985,-0.2487396266995178
0.6874450066304094,-0.17313187160450283
0.7327373264551253,-0.10163323363421697
0.7954497692893472,-0.0301345956639311
0.8686142859292728,0.039720395456463144
0.9557149009768033,0.10875356315191156
1.0532675898300374,0.17532126057252254
1.1786924754984813,0.24188895799313354
1.3076013857688265,0.3076348319887987
1.4225741976315667,0.3742025294094097
1.4678665174562824,0.43912657998012905
1.4365102960391714,0.50569427740074
1.3110854103707277,0.5714401513964051
1.1368841802756666,0.6396514956669078
0.9487468517730009,0.7021100759627897
0.7954497692893472,0.7596377157089967
0.6665408590190022,0.8073034743558539
0.5759562193695704,0.8451073519033614
0.49233962892394123,0.8714057015016275
0.4226591368859169,0.8968822276749477
0.34601059564409004,0.9248242241231055
0.28678217741176937,0.9601626313957755
0.22406973457754742,1.0004319792181204
0.16832534094712792,1.0464540910150861
0.10212887351100476,1.09083255596216
0.039416430676782827,1.1335673740593424
-0.016327962953636668,1.1713712516068497
-0.04420015976884641,1.2058878354545741
-0.05465223357455007,1.237117125602515
-0.04768418437074763,1.2650591220506726
-0.037232110565043976,1.2888920013741014
-0.026780036759340323,1.3094375869977466
-0.026780036759340323,1.325052232071717
-0.019811987555537886,1.3398450537207418
-0.016327962953636668,1.3513505816699833
-0.00935991374983423,1.361212462769333
-0.00935991374983423,1.369430697018791
-0.012843938351735449,1.3760052844183577
-0.023296012157439105,1.3809362249680326
-0.040716135166945194,1.3850453420927615
-0.061620282778352506,1.3850453420927615
-0.07555638118595738,1.38340169524287
-0.08600845499166104,1.3784707546931951
-0.08949247959356225,1.3735398141435202
-0.08252443038975982,1.3661434033190079
-0.06510430738025373,1.361212462769333
-0.04768418437074763,1.356281522219658
-0.026780036759340323,1.3538160519448206
-0.00935991374983423,1.3480632879702
0.011544233861573081,1.3447759942704167
0.03244838147298039,1.3357359365960129
0.04986850448248648,1.3291613491964462
0.06380460289009136,1.3160121743973132
0.0707726520938938,1.3061502932979634
0.06380460289009136,1.290535648223993
0.0533525290843877,1.2823174139745348
0.028964356871079174,1.268346415750456
0.008060209259671863,1.2625936517758352
-0.023296012157439105,1.2494444769767021
-0.04768418437074763,1.241226242727244
-0.07555638118595738,1.223146127378436
-0.09646052879736469,1.2083533057294116
-0.11388065180687079,1.1861640732558745
-0.117364676408772,1.1697276047569583
-0.10342857800116713,1.1483601957083671
-0.06858833198215494,1.1327455506343966
-0.030264061361241542,1.1138436118606427
0.015028258463474298,1.0982289667866723
0.042900455278684045,1.0785052045879728
0.06380460289009136,1.060425089239165
0.06728862749199258,1.037414033340682
0.07425667669579501,1.0176902711419824
0.08122472589959745,0.9938573918185539
0.09516082430720232,0.9733118061949085
0.09864484890910354,0.9503007502964257
0.08470875050149868,0.9289333412478346
0.046384479880585264,0.9067441087742976
-0.00935991374983423,0.8853766997257063
-0.0790404057878586,0.8623656438272236
-0.14175284862208054,0.8409982347786323
-0.18704516844679636,0.8188090023050953
