ECG,PPG
0.04664771355921198,-0.8098541759156519
0.8790864002699068,-0.5015940387996054
0.04664771355921198,-0.8098541759156519
-0.3863503029352977,-0.9710749740199279
0.04664771355921198,-0.8098541759156519
0.3042815333734452,-0.7135695326033759
0.04664771355921198,-0.8098541759156519
-0.12005652279117424,-0.874790330707652
0.04664771355921198,-0.8098541759156519
0.1429897722292404,-0.7702953689733989
0.04664771355921198,-0.8098541759156519
0.009842882157178661,-0.8382170941006634
0.11484490115709725,-0.8098541759156519
0.16030969288902078,-0.7926871464878817
0.11484490115709725,-0.8098541759156519
0.08670003008495412,-0.834485131181583
0.11484490115709725,-0.8404562718521117
0.12350486148698744,-0.8419490570197439
0.11484490115709725,-0.8404562718521117
0.1083499309096796,-0.8412026644359277
0.11484490115709725,-0.8404562718521117
0.10618494082720706,-0.8441882347711921
0.11484490115709725,-0.8404562718521117
0.1126799110746247,-0.8419490570197439
0.11484490115709725,-0.8404562718521117
0.09968997057978941,-0.8434418421873761
0.11484490115709725,-0.8404562718521117
0.1419072771880041,-0.8426954496035599
0.1841245837962188,-0.8404562718521117
0.20252699949723546,-0.8434418421873761
0.25232177139410406,-0.8404562718521117
0.33242640444558835,-0.8434418421873761
0.4569133341877599,-0.8404562718521117
0.564080343270151,-0.8426954496035599
0.662587392022652,-0.8404562718521117
0.7286195895380647,-0.8434418421873761
0.7989817672184225,-0.8404562718521117
0.8541890143214725,-0.8419490570197439
0.9353761424141931,-0.8404562718521117
1.0089858052182596,-0.8441882347711921
1.0717705176099637,-0.8404562718521117
1.0782654878573812,-0.8412026644359277
1.0717705176099637,-0.8404562718521117
1.0598630721563647,-0.8471738051064565
1.0717705176099637,-0.8404562718521117
1.053368101908947,-0.8277675979272381
1.0035733300120784,-0.8098541759156519
0.9007363010946323,-0.8098541759156519
0.7989817672184225,-0.8098541759156519
0.705887193672103,-0.8053758204127552
0.662587392022652,-0.779252079979192
0.6257825606206187,-0.7501427692103644
0.5933077093835304,-0.7180478881062724
0.5229455317031726,-0.7001344660946862
0.4569133341877599,-0.6874457921698126
0.40062359204347364,-0.6881921847536286
0.38871614658987463,-0.6874457921698126
0.3649012556826766,-0.691177755088893
0.32051895899198934,-0.6874457921698126
0.23608434577555998,-0.6896849699212608
0.1841245837962188,-0.6874457921698126
0.1462372573529492,-0.690431362505077
0.11484490115709725,-0.6874457921698126
0.04123523835303061,-0.690431362505077
-0.02154947403867329,-0.6874457921698126
-0.08649917651284975,-0.690431362505077
-0.15794384923444385,-0.6874457921698126
-0.2791832938529065,-0.690431362505077
-0.36253541202809964,-0.6874457921698126
-0.3939277682239516,-0.690431362505077
-0.36253541202809964,-0.6874457921698126
-0.36361790706933594,-0.690431362505077
-0.36253541202809964,-0.6874457921698126
-0.3766078475641712,-0.690431362505077
-0.36253541202809964,-0.6874457921698126
-0.37119537235798983,-0.690431362505077
-0.36253541202809964,-0.6874457921698126
-0.3647004021105722,-0.690431362505077
-0.36253541202809964,-0.6874457921698126
-0.38743279797653396,-0.690431362505077
-0.36253541202809964,-0.6874457921698126
-0.25320341286323594,-0.690431362505077
-0.02154947403867329,-0.6874457921698126
0.27938414742501094,-0.690431362505077
0.662587392022652,-0.6874457921698126
1.1540401407439205,-0.690431362505077
1.8241045712691741,-0.6874457921698126
2.6186559315365994,-0.690431362505077
3.4640845587421296,-0.6874457921698126
4.256470928927082,-0.690431362505077
4.967670171019314,-0.6874457921698126
5.465617889988001,-0.690431362505077
5.582527354441518,-0.6874457921698126
5.16360177348308,-0.690431362505077
4.284615799999226,-0.6874457921698126
3.1295935910001207,-0.690431362505077
1.9604989464649447,-0.6874457921698126
0.9537785581152097,-0.690431362505077
0.25232177139410406,-0.6874457921698126
-0.18933620543029578,-0.690431362505077
-0.5000122822651065,-0.6874457921698126
-0.8388332301720604,-0.690431362505077
-1.1830666532851954,-0.6874457921698126
-1.4612678788829179,-0.690431362505077
-1.5933322739137434,-0.6874457921698126
-1.626889620192068,-0.690431362505077
-1.5933322739137434,-0.6874457921698126
-1.5586924325941827,-0.690431362505077
-1.5251350863158581,-0.6874457921698126
-1.5262175813570944,-0.6896849699212608
-1.5251350863158581,-0.6874457921698126
-1.535960036728221,-0.691177755088893
-1.5251350863158581,-0.6874457921698126
-1.5327125516045121,-0.6889385773374448
-1.5251350863158581,-0.6874457921698126
-1.5337950466457484,-0.6926705402565252
-1.5251350863158581,-0.6874457921698126
-1.5305475615220394,-0.6866993995859965
-1.5251350863158581,-0.6874457921698126
-1.5305475615220394,-0.6964025031756057
-1.5251350863158581,-0.6874457921698126
-1.5305475615220394,-0.6710251553258585
-1.5251350863158581,-0.6568436962333528
-1.5305475615220394,-0.6710251553258585
-1.5251350863158581,-0.6874457921698126
-1.5294650664808032,-0.6964025031756057
-1.5251350863158581,-0.6874457921698126
-1.5305475615220394,-0.6866993995859965
-1.5251350863158581,-0.6874457921698126
-1.5294650664808032,-0.6919241476727092
-1.5251350863158581,-0.6874457921698126
-1.5305475615220394,-0.6889385773374448
-1.5251350863158581,-0.6874457921698126
-1.528382571439567,-0.691177755088893
-1.5251350863158581,-0.6874457921698126
-1.5316300565632757,-0.690431362505077
-1.5251350863158581,-0.6874457921698126
-1.5262175813570944,-0.690431362505077
-1.5251350863158581,-0.6874457921698126
-1.5370425317694572,-0.691177755088893
-1.5251350863158581,-0.6874457921698126
-1.5013201954086601,-0.6889385773374448
-1.4569378987179729,-0.6874457921698126
-1.426628037563357,-0.6934169328403413
-1.3876582160788513,-0.6874457921698126
-1.3562658598829993,-0.6769962959963872
-1.319461028480966,-0.6568436962333528
-1.315131048316021,-0.6516189481466401
-1.319461028480966,-0.6568436962333528
-1.3324509689758013,-0.6762499034125712
-1.319461028480966,-0.6874457921698126
-1.3140485532747848,-0.6941633254241574
-1.319461028480966,-0.6874457921698126
-1.3595133450067083,-0.6874457921698126
-1.3876582160788513,-0.6874457921698126
-1.402813146656159,-0.6934169328403413
-1.3876582160788513,-0.6874457921698126
-1.386575721037615,-0.6866993995859965
-1.3876582160788513,-0.6874457921698126
-1.3995656615324503,-0.6971488957594217
-1.3876582160788513,-0.6874457921698126
-1.386575721037615,-0.6710251553258585
-1.3876582160788513,-0.6568436962333528
-1.4049781367386316,-0.6710251553258585
-1.3876582160788513,-0.6874457921698126
-1.3573483549242356,-0.6964025031756057
-1.319461028480966,-0.6874457921698126
-1.3183785334397298,-0.6866993995859965
-1.319461028480966,-0.6874457921698126
-1.3259559987283838,-0.6926705402565252
-1.319461028480966,-0.6874457921698126
-1.3302859788933288,-0.6889385773374448
-1.319461028480966,-0.6874457921698126
-1.2945636425325318,-0.691177755088893
-1.2512638408830807,-0.6874457921698126
-1.2447688706356632,-0.6896849699212608
-1.2512638408830807,-0.6874457921698126
-1.267501266501625,-0.690431362505077
-1.2512638408830807,-0.6874457921698126
-1.228531445017119,-0.690431362505077
-1.1830666532851954,-0.6874457921698126
-1.1505918020481072,-0.690431362505077
-1.1148694656873102,-0.6874457921698126
-1.0921370698213484,-0.690431362505077
-1.0466722780894249,-0.6874457921698126
-1.0098674466873916,-0.6896849699212608
-0.9784750904915397,-0.6874457921698126
-0.9654851499967044,-0.691177755088893
-0.9102779028936544,-0.6874457921698126
-0.8388332301720604,-0.6889385773374448
-0.7728010326566476,-0.6874457921698126
-0.7565636070381034,-0.6926705402565252
-0.7046038450587623,-0.6874457921698126
-0.5941893508526623,-0.6866993995859965
-0.4318150946672212,-0.6874457921698126
-0.3138231351724673,-0.6964025031756057
-0.2261410368323291,-0.6874457921698126
-0.14928388890455363,-0.6710251553258585
-0.02154947403867329,-0.6568436962333528
0.1126799110746247,-0.6710251553258585
0.25232177139410406,-0.6874457921698126
0.3724787209713305,-0.6964025031756057
0.5251105217856452,-0.6874457921698126
0.6864022829298501,-0.6866993995859965
0.8671789548163078,-0.6874457921698126
1.029553211001749,-0.6926705402565252
1.2092473878469705,-0.6874457921698126
1.3791991093210656,-0.6889385773374448
1.5502333258363967,-0.6874457921698126
1.6833802159084585,-0.6919241476727092
1.8241045712691741,-0.6874457921698126
1.957251461341236,-0.6889385773374448
2.096893321660715,-0.6874457921698126
2.198647855536925,-0.6926705402565252
2.302567379495607,-0.6874457921698126
2.398909438165636,-0.6881921847536286
2.507158942289263,-0.6874457921698126
2.5818511001345663,-0.6956561105917896
2.6435533174850336,-0.6874457921698126
2.660873238144814,-0.6740107256611229
2.6435533174850336,-0.6568436962333528
2.5721086447634396,-0.659082873984801
2.507158942289263,-0.6568436962333528
2.4378792596501415,-0.650872555562824
2.3707645670934925,-0.6262416002968929
2.2635975580111016,-0.603103430198594
2.1650905092586004,-0.5650374084239733
2.064418470423627,-0.5247322088979043
1.9604989464649447,-0.47397751319840997
1.7948772051557949,-0.43217952850470875
1.618430513434282,-0.3821712253890305
1.456056257248841,-0.3291773519380879
1.345641763042741,-0.25976284164319124
1.215742358094388,-0.19109472393211066
1.0717705176099637,-0.10675236196089213
0.9267161820843028,-0.020917214822041428
0.8671789548163078,0.07686021365786677
0.8422815688678735,0.16493453854816575
0.7989817672184225,0.26047278927662565
0.6636698870638883,0.34854711416692463
0.5251105217856452,0.4440853648953846
0.4266034730331442,0.5291741194504191
0.38871614658987463,0.6276979405141435
0.32376644411569816,0.7277145467455
0.25232177139410406,0.8419126120693622
0.18628957387869136,0.9374508627978221
0.1841245837962188,1.025525187688121
0.18628957387869136,1.095686090566834
0.1841245837962188,1.1785356673704201
0.1419072771880041,1.2539213183358455
0.11484490115709725,1.3307997544689032
0.09752498049731687,1.3957359092609032
0.11484490115709725,1.4838102341512023
0.11592739619833353,1.5771093071282138
0.11484490115709725,1.6674228097699613
0.09968997057978941,1.7263878238914325
0.11484490115709725,1.7898311935158004
0.1213398714045149,1.859245703810697
0.11484490115709725,1.9428416731980995
0.06938010942517374,2.0032994724872033
0.04664771355921198,2.0652500569439387
0.036905258188085516,2.121975893313962
0.04664771355921198,2.187658440689778
0.03365777306437669,2.2309492105511115
0.04664771355921198,2.2794647284991574
0.07371008959011884,2.330219424198652
0.11484490115709725,2.401873112244997
0.11592739619833353,2.452627807944491
0.11484490115709725,2.493679400054376
0.1083499309096796,2.516071177568859
0.11484490115709725,2.554883591927296
0.10293745570349824,2.5854856878637555
0.11484490115709725,2.6160877838002157
0.1419072771880041,2.6235517096383765
0.1841245837962188,2.6466898797366754
0.18520707883745507,2.6705744424187903
0.1841245837962188,2.707894071609595
0.1754646234663286,2.7220755307021007
0.1841245837962188,2.738496167546055
0.1754646234663286,2.7459600933842157
0.1841245837962188,2.7690982634825145
0.18520707883745507,2.77954775965594
0.1841245837962188,2.799700359418974
0.1419072771880041,2.8094034630085836
0.11484490115709725,2.8303024553554343
0.10185496066226196,2.8295560627716183
0.11484490115709725,2.8303024553554343
0.1083499309096796,2.819852959182009
0.11484490115709725,2.8303024553554343
0.11592739619833353,2.8303024553554343
0.11484490115709725,2.8303024553554343
0.07479258463135512,2.8071642852571355
0.04664771355921198,2.799700359418974
0.03474026810561297,2.7922364335808134
0.04664771355921198,2.799700359418974
0.01958533752830513,2.7832797225750205
-0.02154947403867329,2.7690982634825145
-0.07350923601801446,2.7444673082165836
-0.08974666163655856,2.738496167546055
-0.1005716120489213,2.7198363529506526
-0.08974666163655856,2.707894071609595
-0.09299414676026739,2.68400950892748
-0.08974666163655856,2.677291975673135
-0.10273660213139385,2.660124946245365
-0.08974666163655856,2.6466898797366754
-0.06701426577059681,2.611609428297319
-0.02154947403867329,2.5854856878637555
-0.008559533543838,2.549658843840583
-0.02154947403867329,2.524281495990836
-0.06809676081183308,2.485469081632399
-0.08974666163655856,2.4630773041179164
-0.09948911700768504,2.4317288155976406
-0.08974666163655856,2.401873112244997
-0.09840662196644875,2.348132846210238
-0.08974666163655856,2.3100668244356175
-0.08974666163655856,2.2742399804124447
-0.08974666163655856,2.2488626325626977
-0.1092315723788115,2.1988543294470193
-0.08974666163655856,2.157056344753318
-0.05294183023452524,2.117497537811065
-0.02154947403867329,2.095852152880399
-0.05294183023452524,2.051068597851433
-0.08974666163655856,2.0040458650710193
-0.11031406742004778,1.9480664212848122
-0.08974666163655856,1.9122395772616396
-0.0886641665953223,1.8659632370650419
-0.08974666163655856,1.8204332894522604
-0.09948911700768504,1.7637074530822372
-0.08974666163655856,1.7286270016428809
-0.0962416318839762,1.6950393353711566
-0.08974666163655856,1.6674228097699613
-0.07459173105925072,1.6174145066542829
-0.02154947403867329,1.5756165219605818
0.01958533752830513,1.5360577150183288
0.04664771355921198,1.5144123300876622
0.03798775322932179,1.480824663815938
0.04664771355921198,1.4532081382147424
0.06613262430146492,1.418127686775386
0.11484490115709725,1.3920039463418228
0.14948474247665802,1.3554307097348344
0.1841245837962188,1.3307997544689032
0.18737206891992764,1.3001976585324433
0.1841245837962188,1.2695955625959836
0.16463967305396587,1.2180944743126731
0.1841245837962188,1.1785356673704201
0.21551693999207075,1.1412160381796155
0.25232177139410406,1.1173314754975006
0.24907428627039527,1.0792654537228799
0.25232177139410406,1.056127283624581
0.25232177139410406,1.0359746838615465
0.25232177139410406,1.025525187688121
0.21118695982712565,0.9934303065840291
0.1841245837962188,0.9643209958152015
0.17221713834261979,0.9381972553816382
0.1841245837962188,0.9337188998787417
0.15597971272407568,0.9187910482024197
0.11484490115709725,0.9031168039422819
0.06613262430146492,0.8784858486763508
0.04664771355921198,0.872514708005822
0.013090367280887484,0.8590796414971323
-0.02154947403867329,0.8419126120693622
-0.07134424593554191,0.8045929828785575
-0.08974666163655856,0.7807084201964426
-0.1005716120489213,0.7605558204334081
-0.08974666163655856,0.7501063242599828
-0.09407664180150366,0.7187578357397069
-0.08974666163655856,0.6889021323870631
-0.09732412692521249,0.6620319993696837
-0.08974666163655856,0.6583000364506033
-0.0962416318839762,0.6463577551095459
-0.08974666163655856,0.6276979405141435
-0.0962416318839762,0.5903783113233388
-0.08974666163655856,0.5664937486412238
-0.09840662196644875,0.5455947562943733
-0.08974666163655856,0.535891652704764
-0.07459173105925072,0.5157390529417295
-0.02154947403867329,0.5052895567683042
0.020667832569541404,0.48961531250816626
0.04664771355921198,0.4746874608318444
0.03582276314684924,0.4403534019763041
0.04664771355921198,0.41348326895892473
0.07262759454888257,0.39109149144444194
0.11484490115709725,0.38288117302246494
0.11917488132204235,0.3642213584270626
0.11484490115709725,0.35227907708600514
0.10401995074473451,0.3358584402420511
0.11484490115709725,0.3216769811495453
0.1126799110746247,0.28808931487782113
0.11484490115709725,0.26047278927662565
0.10726743586844334,0.2373346191783268
0.11484490115709725,0.22987069334016585
0.11051492099215215,0.2127036639123957
0.11484490115709725,0.19926859740370603
0.1083499309096796,0.1806087828083037
0.11484490115709725,0.1686665014672462
0.10943242595091589,0.1477675091203956
0.11484490115709725,0.13806440553078642
0.1083499309096796,0.13209326486025766
0.11484490115709725,0.13806440553078642
0.10943242595091589,0.126868516773545
0.11484490115709725,0.10746230959432658
0.1083499309096796,0.08133856916076333
0.11484490115709725,0.07686021365786677
0.10943242595091589,0.07760660624168286
0.11484490115709725,0.07686021365786677
0.1083499309096796,0.056707613894832254
0.11484490115709725,0.04625811772140695
0.10943242595091589,0.04252615480232649
0.11484490115709725,0.04625811772140695
0.10726743586844334,0.03133026604508509
0.11484490115709725,0.015656021784947134
0.11051492099215215,-0.003003792810455195
0.11484490115709725,-0.014946074151512685
0.10618494082720706,-0.03659145908217939
0.11484490115709725,-0.0455481700879725
0.11484490115709725,-0.048533740423236875
0.11484490115709725,-0.0455481700879725
0.08020505983753648,-0.06047602176429436
0.04664771355921198,-0.07615026602443233
0.02175032761077768,-0.09406368803601856
0.04664771355921198,-0.10675236196089213
0.08020505983753648,-0.12839774689155883
0.11484490115709725,-0.13735445789735196
0.1126799110746247,-0.14034002823261632
0.11484490115709725,-0.13735445789735196
0.1083499309096796,-0.1530287021574899
0.11484490115709725,-0.16795655383381178
0.10618494082720706,-0.185869975845398
0.11484490115709725,-0.1985586497702716
0.1170098912395698,-0.2209504272847544
0.11484490115709725,-0.2291607457067314
0.07587507967259138,-0.2306535308743636
0.04664771355921198,-0.2291607457067314
0.03041028794066787,-0.24707416771831764
0.04664771355921198,-0.25976284164319124
0.04556521851797571,-0.2642411971460878
0.04664771355921198,-0.25976284164319124
0.03798775322932179,-0.273944300735697
0.04664771355921198,-0.29036493757965104
0.042317733394266886,-0.3000680411692603
0.04664771355921198,-0.29036493757965104
0.039070248270558064,-0.2873793672443867
0.04664771355921198,-0.29036493757965104
0.04123523835303061,-0.3082783595912373
0.04664771355921198,-0.32096703351611083
0.04015274331179434,-0.329923744521904
0.04664771355921198,-0.32096703351611083
0.04015274331179434,-0.3164886780132143
0.04664771355921198,-0.32096703351611083
0.04123523835303061,-0.34261241844677753
0.04664771355921198,-0.3515691294525707
0.03798775322932179,-0.35306191462020287
0.04664771355921198,-0.3515691294525707
0.04556521851797571,-0.3694825514641569
0.04664771355921198,-0.3821712253890305
0.014172862322123758,-0.3866495808919271
-0.02154947403867329,-0.3821712253890305
-0.06917925585306936,-0.3956062918977202
-0.08974666163655856,-0.4127733213254903
-0.10381909717263013,-0.4239692100827317
-0.08974666163655856,-0.4127733213254903
-0.08974666163655856,-0.40680218065496154
-0.08974666163655856,-0.4127733213254903
-0.10598408725510268,-0.43367231367234094
-0.08974666163655856,-0.4433754172619501
-0.06051929552317916,-0.4456145950133984
-0.02154947403867329,-0.4433754172619501
-0.01938448395620074,-0.458303268938272
-0.02154947403867329,-0.47397751319840997
-0.03129192940979976,-0.48368061678801916
-0.02154947403867329,-0.47397751319840997
-0.02696194924485466,-0.4687527651116973
-0.02154947403867329,-0.47397751319840997
-0.02696194924485466,-0.4948765055452606
-0.02154947403867329,-0.5045796091348698
-0.03129192940979976,-0.5068187868863181
-0.02154947403867329,-0.5045796091348698
-0.01938448395620074,-0.5187610682273756
-0.02154947403867329,-0.5351817050713296
-0.061601790564415435,-0.5456312012447548
-0.08974666163655856,-0.5351817050713296
-0.10598408725510268,-0.5292105644008008
-0.08974666163655856,-0.5351817050713296
-0.08974666163655856,-0.5575734825858124
-0.08974666163655856,-0.5650374084239733
-0.10165410709015758,-0.5657838010077894
-0.08974666163655856,-0.5650374084239733
-0.07134424593554191,-0.5836972230193757
-0.02154947403867329,-0.5956395043604331
0.01958533752830513,-0.6001178598633297
0.04664771355921198,-0.5956395043604331
0.01958533752830513,-0.6098209634529389
-0.02154947403867329,-0.6262416002968929
-0.07134424593554191,-0.6374374890541343
-0.08974666163655856,-0.6262416002968929
-0.10165410709015758,-0.6217632447939964
-0.08974666163655856,-0.6262416002968929
-0.09082915667779484,-0.6471405926437436
-0.08974666163655856,-0.6568436962333528
-0.10598408725510268,-0.6613220517362494
-0.08974666163655856,-0.6568436962333528
-0.061601790564415435,-0.6605756591524332
-0.02154947403867329,-0.6568436962333528
-0.01938448395620074,-0.6568436962333528
-0.02154947403867329,-0.6568436962333528
-0.03129192940979976,-0.674757118244939
-0.02154947403867329,-0.6874457921698126
-0.025879454203618386,-0.6949097180079735
-0.02154947403867329,-0.6874457921698126
-0.028044444286090934,-0.6881921847536286
-0.02154947403867329,-0.6874457921698126
-0.029126939327327208,-0.6919241476727092
-0.02154947403867329,-0.6874457921698126
-0.023714464121145837,-0.6896849699212608
-0.02154947403867329,-0.6874457921698126
-0.035621909574744856,-0.691177755088893
-0.02154947403867329,-0.6874457921698126
0.005512901992233564,-0.690431362505077
0.04664771355921198,-0.6874457921698126
0.05097769372415708,-0.690431362505077
0.04664771355921198,-0.6874457921698126
0.03365777306437669,-0.690431362505077
0.04664771355921198,-0.6874457921698126
0.04664771355921198,-0.6896849699212608
0.04664771355921198,-0.6874457921698126
0.03365777306437669,-0.691177755088893
0.04664771355921198,-0.6874457921698126
0.05097769372415708,-0.6889385773374448
0.04664771355921198,-0.6874457921698126
0.006595397033469838,-0.6926705402565252
-0.02154947403867329,-0.6874457921698126
-0.03670440461598113,-0.6859530070021804
-0.02154947403867329,-0.6874457921698126
-0.022631969079909563,-0.7053592141813988
-0.02154947403867329,-0.7180478881062724
-0.032374424451036034,-0.7247654213606173
-0.02154947403867329,-0.7180478881062724
-0.02479695916238211,-0.7187942806900884
-0.02154947403867329,-0.7180478881062724
-0.032374424451036034,-0.7217798510253529
-0.02154947403867329,-0.7180478881062724
-0.020466978997437015,-0.7202870658577206
-0.02154947403867329,-0.7180478881062724
-0.05835430544070661,-0.7217798510253529
-0.08974666163655856,-0.7180478881062724
-0.11139656246128404,-0.7202870658577206
-0.08974666163655856,-0.7180478881062724
-0.08108670130666837,-0.7210334584415368
-0.08974666163655856,-0.7180478881062724
-0.12113901783241052,-0.7202870658577206
-0.08974666163655856,-0.7180478881062724
-0.003147058337656629,-0.7217798510253529
0.11484490115709725,-0.7180478881062724
0.18953705900240017,-0.7202870658577206
0.25232177139410406,-0.7180478881062724
0.3096940085796266,-0.722526243609169
0.38871614658987463,-0.7180478881062724
0.4320159482393256,-0.7187942806900884
0.4569133341877599,-0.7180478881062724
0.4525833540228148,-0.7255118139444333
0.4569133341877599,-0.7180478881062724
0.44825337385786973,-0.7053592141813988
0.4569133341877599,-0.6874457921698126
0.45474834410528736,-0.6866993995859965
0.4569133341877599,-0.6874457921698126
0.44175840361045204,-0.6919241476727092
0.4569133341877599,-0.6874457921698126
0.485058205259903,-0.690431362505077
0.5251105217856452,-0.6874457921698126
0.5294405019505902,-0.6889385773374448
0.5251105217856452,-0.6874457921698126
0.49588315567226576,-0.6941633254241574
0.4569133341877599,-0.6874457921698126
0.382221176342457,-0.675503510828755
0.32051895899198934,-0.6568436962333528
0.26964169205388444,-0.6553509110657205
0.25232177139410406,-0.6568436962333528
0.23608434577555998,-0.6620684443200654
0.25232177139410406,-0.6568436962333528
0.2631467218064668,-0.658336481400985
0.25232177139410406,-0.6568436962333528
0.1635571780127296,-0.6605756591524332
0.04664771355921198,-0.6568436962333528
-0.075674226100487,-0.659082873984801
-0.15794384923444385,-0.6568436962333528
-0.2391309773271644,-0.6598292665686172
-0.2943382244302144,-0.6568436962333528
-0.3473804814507918,-0.6598292665686172
-0.36253541202809964,-0.6568436962333528
-0.3776903426054075,-0.6598292665686172
-0.36253541202809964,-0.6568436962333528
-0.36686539219304476,-0.6598292665686172
-0.36253541202809964,-0.6568436962333528
-0.3820203227703526,-0.6598292665686172
-0.36253541202809964,-0.6568436962333528
-0.33763802607966537,-0.6598292665686172
-0.2943382244302144,-0.6568436962333528
-0.29217323434774184,-0.6598292665686172
-0.2943382244302144,-0.6568436962333528
-0.2910907393065056,-0.6598292665686172
-0.2261410368323291,-0.6568436962333528
-0.1352114533684821,-0.6598292665686172
-0.02154947403867329,-0.6568436962333528
0.10726743586844334,-0.6598292665686172
0.32051895899198934,-0.6568436962333528
0.6149576102082559,-0.6598292665686172
1.0035733300120784,-0.6568436962333528
1.5145109894755997,-0.6598292665686172
2.234370191897722,-0.6568436962333528
3.0722213538145984,-0.6598292665686172
3.8743501793706776,-0.6568436962333528
4.551992075184585,-0.6598292665686172
5.17226173381297,-0.6568436962333528
5.583609849482754,-0.6598292665686172
5.446132979245748,-0.6568436962333528
4.562817025596948,-0.6598292665686172
3.2594929959484737,-0.6568436962333528
1.9940562927432692,-0.6598292665686172
1.0035733300120784,-0.6568436962333528
0.22417690032196094,-0.6598292665686172
-0.36253541202809964,-0.6568436962333528
-0.7879559632339554,-0.6598292665686172
-1.1148694656873102,-0.6568436962333528
-1.4526079185530278,-0.6598292665686172
-1.729726649109514,-0.6568436962333528
-1.8715334995114659,-0.6598292665686172
-1.8661210243052846,-0.6568436962333528
-1.836893658191905,-0.6598292665686172
-1.7979238367073993,-0.6568436962333528
-1.7492115598517668,-0.6598292665686172
-1.6615294615116287,-0.6568436962333528
-1.61173468961476,-0.6598292665686172
-1.5933322739137434,-0.6568436962333528
-1.61173468961476,-0.6598292665686172
-1.5933322739137434,-0.6568436962333528
-1.5662698978828364,-0.6598292665686172
-1.5251350863158581,-0.6568436962333528
-1.524052591274622,-0.6598292665686172
-1.5251350863158581,-0.6568436962333528
-1.5348775416869846,-0.6598292665686172
-1.5251350863158581,-0.6568436962333528
-1.528382571439567,-0.6598292665686172
-1.5251350863158581,-0.6568436962333528
-1.5294650664808032,-0.6598292665686172
-1.5251350863158581,-0.6568436962333528
-1.5337950466457484,-0.6598292665686172
-1.5251350863158581,-0.6568436962333528
-1.504567680532369,-0.6598292665686172
-1.4569378987179729,-0.6568436962333528
-1.4190505722747033,-0.6598292665686172
-1.3876582160788513,-0.6568436962333528
-1.386575721037615,-0.6598292665686172
-1.3876582160788513,-0.6568436962333528
-1.3995656615324503,-0.6598292665686172
-1.3876582160788513,-0.6568436962333528
-1.3854932259963788,-0.6598292665686172
-1.3876582160788513,-0.6568436962333528
-1.406060631779868,-0.6598292665686172
-1.3876582160788513,-0.6568436962333528
-1.3530183747592905,-0.6598292665686172
-1.319461028480966,-0.6568436962333528
-1.3259559987283838,-0.6598292665686172
-1.319461028480966,-0.6568436962333528
-1.2934811474912955,-0.6598292665686172
-1.2512638408830807,-0.6568436962333528
-1.2490988508006082,-0.6598292665686172
-1.2512638408830807,-0.6568436962333528
-1.2382739003882455,-0.6598292665686172
-1.1830666532851954,-0.6568436962333528
-1.140849346676981,-0.6598292665686172
-1.1148694656873102,-0.6568436962333528
-1.1181169508110191,-0.6598292665686172
-1.1148694656873102,-0.6568436962333528
-1.1202819408934916,-0.6598292665686172
-1.1148694656873102,-0.6568436962333528
-1.1202819408934916,-0.6598292665686172
-1.1148694656873102,-0.6568436962333528
-1.1202819408934916,-0.6598292665686172
-1.1148694656873102,-0.6568436962333528
-1.1202819408934916,-0.6598292665686172
-1.1148694656873102,-0.6568436962333528
-1.1202819408934916,-0.6598292665686172
-1.1148694656873102,-0.6568436962333528
-1.1202819408934916,-0.6598292665686172
-1.1148694656873102,-0.6568436962333528
-1.1202819408934916,-0.6598292665686172
-1.1148694656873102,-0.6568436962333528
-1.1202819408934916,-0.6598292665686172
-1.1148694656873102,-0.6568436962333528
-1.1202819408934916,-0.6598292665686172
-1.1148694656873102,-0.6568436962333528
-1.1191994458522554,-0.6598292665686172
-1.1148694656873102,-0.6568436962333528
-1.1235294260172004,-0.6598292665686172
-1.1148694656873102,-0.6568436962333528
-1.0975495450275299,-0.6598292665686172
-1.0466722780894249,-0.6568436962333528
-1.0044549714812103,-0.6598292665686172
-0.9784750904915397,-0.6568436962333528
-0.9871350508214298,-0.6598292665686172
-0.9784750904915397,-0.6568436962333528
-0.9535777045431053,-0.6598292665686172
-0.9102779028936544,-0.6568436962333528
-0.9027004376050005,-0.6598292665686172
-0.9102779028936544,-0.6568436962333528
-0.9275978235534348,-0.6598292665686172
-0.9102779028936544,-0.6568436962333528
-0.8853805169452201,-0.6598292665686172
-0.8409982202545329,-0.6568436962333528
-0.8117708541411535,-0.6598292665686172
-0.7728010326566476,-0.6568436962333528
-0.7500686367906858,-0.6598292665686172
-0.7046038450587623,-0.6568436962333528
-0.6548090731618937,-0.6598292665686172
-0.5682094698629917,-0.6568436962333528
-0.4751148963166722,-0.6598292665686172
-0.36253541202809964,-0.6568436962333528
-0.2856782641003242,-0.6598292665686172
-0.2261410368323291,-0.6568436962333528
-0.18608872030658696,-0.6598292665686172
-0.08974666163655856,-0.6568436962333528
0.036905258188085516,-0.6598292665686172
0.1841245837962188,-0.6568436962333528
0.3042815333734452,-0.6598292665686172
0.4569133341877599,-0.6568436962333528
0.6257825606206187,-0.6598292665686172
0.7989817672184225,-0.6568436962333528
0.9245511920018303,-0.6598292665686172
1.0717705176099637,-0.6568436962333528
1.2568771696613665,-0.6598292665686172
1.4820361382385117,-0.6568436962333528
1.6628128101249693,-0.6598292665686172
1.8241045712691741,-0.6568436962333528
1.976736372083489,-0.6598292665686172
2.1650905092586004,-0.6568436962333528
2.341537200980113,-0.6598292665686172
2.507158942289263,-0.6568436962333528
2.6240684067427806,-0.6598292665686172
2.712833000124155,-0.6568436962333528
2.747472841443716,-0.6598292665686172
2.7810301877220405,-0.6568436962333528
2.8059275736704747,-0.6605756591524332
2.8492273753199258,-0.6568436962333528
2.8600523257322887,-0.6598292665686172
2.8492273753199258,-0.6568436962333528
2.7886076530106947,-0.6613220517362494
2.712833000124155,-0.6568436962333528
2.588346070381984,-0.6493797703951918
2.4389617546913778,-0.6262416002968929
2.254937597681211,-0.6098209634529389
2.096893321660715,-0.5956395043604331
1.949673996052582,-0.5904147562737204
1.8241045712691741,-0.5650374084239733
1.6779677407022773,-0.5351817050713296
1.5502333258363967,-0.5045796091348698
1.41275645559939,-0.48517340195565134
1.2774445754448558,-0.4433754172619501
1.1194002994243597,-0.38441040314047875
1.0035733300120784,-0.32096703351611083
0.9018187961358686,-0.27991544140622576
0.7989817672184225,-0.2291607457067314
0.6441849763216353,-0.16049262799565084
0.5251105217856452,-0.07615026602443233
0.46340830443517755,-0.013453288983880499
0.4569133341877599,0.04625811772140695
0.40387107716718246,0.11268705768103923
0.32051895899198934,0.19926859740370603
0.22417690032196094,0.2768934261205797
0.1841245837962188,0.35227907708600514
0.14948474247665802,0.4142296615427409
0.11484490115709725,0.4746874608318444
0.04123523835303061,0.5164854455255457
-0.02154947403867329,0.5664937486412238
-0.07783921618295955,0.6194876220921665
-0.08974666163655856,0.6889021323870631
-0.09840662196644875,0.7478671465085345
-0.08974666163655856,0.8113105161329024
-0.0962416318839762,0.8672899599191094
-0.08974666163655856,0.9337188998787417
-0.0962416318839762,0.9904447362487647
-0.08974666163655856,1.056127283624581
-0.0962416318839762,1.1143459051622362
-0.08974666163655856,1.1785356673704201
-0.0962416318839762,1.2240656149832019
-0.08974666163655856,1.2695955625959836
-0.0962416318839762,1.3076615843706043
-0.08974666163655856,1.361401850405363
-0.0962416318839762,1.408424583185777
-0.08974666163655856,1.4532081382147424
-0.0962416318839762,1.4785854860644896
-0.08974666163655856,1.5144123300876622
-0.0962416318839762,1.553971137029915
-0.08974666163655856,1.6062186178970415
-0.0962416318839762,1.6398062841687657
-0.08974666163655856,1.6674228097699613
-0.0962416318839762,1.6786186985272027
-0.08974666163655856,1.698024905706421
-0.0962416318839762,1.7084744018798463
-0.08974666163655856,1.7286270016428809
-0.0962416318839762,1.7398228904001223
-0.08974666163655856,1.7592290975793405
-0.09515913684273994,1.76893220116895
-0.08974666163655856,1.7898311935158004
-0.09732412692521249,1.801773474856858
-0.08974666163655856,1.8204332894522604
-0.09407664180150366,1.8286436078742372
-0.08974666163655856,1.85103538538872
-0.09840662196644875,1.8659632370650419
-0.08974666163655856,1.88163748132518
-0.08974666163655856,1.8756663406546512
-0.08974666163655856,1.88163748132518
-0.1254689979973556,1.890594192330973
-0.15794384923444385,1.9122395772616396
-0.18284123518287815,1.9122395772616396
-0.15794384923444385,1.9122395772616396
-0.1254689979973556,1.9047756514234788
-0.08974666163655856,1.9122395772616396
-0.08974666163655856,1.9100003995101915
-0.08974666163655856,1.9122395772616396
-0.09948911700768504,1.8965653330015018
-0.08974666163655856,1.88163748132518
-0.09407664180150366,1.8562601334754327
-0.08974666163655856,1.85103538538872
-0.09732412692521249,1.8480498150534557
-0.08974666163655856,1.85103538538872
-0.09407664180150366,1.8331219633771338
-0.08974666163655856,1.8204332894522604
-0.09732412692521249,1.801773474856858
-0.08974666163655856,1.7898311935158004
-0.09407664180150366,1.7562435272440762
-0.08974666163655856,1.7286270016428809
-0.09840662196644875,1.7032496537931336
-0.08974666163655856,1.698024905706421
-0.08974666163655856,1.682350661446283
-0.08974666163655856,1.6674228097699613
-0.1254689979973556,1.6435382470878461
-0.15794384923444385,1.6368207138335014
-0.18067624510040559,1.6226392547409956
-0.15794384923444385,1.6062186178970415
-0.14387141369837228,1.569645381290053
-0.15794384923444385,1.5450144260241219
-0.2315535120385105,1.5233690410934553
-0.2943382244302144,1.5144123300876622
-0.3235655905435938,1.4853030193188346
-0.2943382244302144,1.4532081382147424
-0.28026578889414283,1.4136493312724896
-0.2943382244302144,1.3920039463418228
-0.34521549136831925,1.3628946355729952
-0.36253541202809964,1.3307997544689032
-0.3657828971518085,1.2792986661855927
-0.36253541202809964,1.2389934666595237
-0.4004227384713693,1.201673837468719
-0.4318150946672212,1.1785356673704201
-0.4491350153270016,1.1434552159310638
-0.4318150946672212,1.1173314754975006
-0.4307325996259849,1.0829974166419603
-0.4318150946672212,1.056127283624581
-0.44264004507958393,1.017314869266144
-0.4318150946672212,0.9949230917516613
-0.4328975897084575,0.9740240994048107
-0.4318150946672212,0.9643209958152015
-0.44264004507958393,0.9337188998787417
-0.4318150946672212,0.9031168039422819
-0.4307325996259849,0.8650507821676611
-0.4318150946672212,0.8419126120693622
-0.4480525202857653,0.8098177309652702
-0.4318150946672212,0.7807084201964426
-0.4004227384713693,0.7426423984218218
-0.36253541202809964,0.7195042283235229
-0.36361790706933594,0.6971124508090402
-0.36253541202809964,0.6889021323870631
-0.367947887234281,0.6709887103754769
-0.36253541202809964,0.6583000364506033
-0.3776903426054075,0.6374010441037526
-0.36253541202809964,0.6276979405141435
-0.33330804591472024,0.6097845185025572
-0.2943382244302144,0.5970958445776836
-0.29542071947145065,0.5754504596470169
-0.2943382244302144,0.5664937486412238
-0.29866820459515947,0.551565896964902
-0.2943382244302144,0.535891652704764
-0.3116581450899948,0.5008112012654077
-0.2943382244302144,0.4746874608318444
-0.2586158880694173,0.4522956833173616
-0.2261410368323291,0.4440853648953846
-0.25753339302818107,0.42617194288379834
-0.2943382244302144,0.41348326895892473
-0.31274064013123104,0.39556984694733854
-0.2943382244302144,0.38288117302246494
-0.2965032145126869,0.35153268450218905
-0.2943382244302144,0.3216769811495453
-0.2997506996363958,0.2933140629645338
-0.2943382244302144,0.2910748852130855
-0.3094931550075222,0.2910748852130855
-0.2943382244302144,0.2910748852130855
-0.265110858316835,0.27390785578531535
-0.2261410368323291,0.26047278927662565
-0.22938852195603793,0.24255936726503943
-0.2261410368323291,0.22987069334016585
-0.20665612609007616,0.20747891582568306
-0.15794384923444385,0.19926859740370603
-0.1471188988220811,0.19553663448462558
-0.15794384923444385,0.19926859740370603
-0.17959375005916933,0.18508713831120027
-0.15794384923444385,0.1686665014672462
-0.1265514930385919,0.1477675091203956
-0.08974666163655856,0.13806440553078642
-0.08974666163655856,0.12164376868683235
-0.08974666163655856,0.10746230959432658
-0.09948911700768504,0.08730970983129208
-0.08974666163655856,0.07686021365786677
-0.09407664180150366,0.06043957681391272
-0.08974666163655856,0.04625811772140695
-0.09732412692521249,0.025359125374556344
-0.08974666163655856,0.015656021784947134
-0.09515913684273994,0.0007281701086252706
-0.08974666163655856,-0.014946074151512685
-0.0962416318839762,-0.03883063683362766
-0.08974666163655856,-0.0455481700879725
-0.09515913684273994,-0.046294562671788594
-0.08974666163655856,-0.0455481700879725
-0.0962416318839762,-0.06420798468337482
-0.08974666163655856,-0.07615026602443233
-0.09515913684273994,-0.08062862152732887
-0.08974666163655856,-0.07615026602443233
-0.0962416318839762,-0.09033172511693809
-0.08974666163655856,-0.10675236196089213
-0.09515913684273994,-0.12615856914011056
-0.08974666163655856,-0.13735445789735196
-0.09840662196644875,-0.15750705766038647
-0.08974666163655856,-0.16795655383381178
-0.09299414676026739,-0.17318130192052442
-0.08974666163655856,-0.16795655383381178
-0.1005716120489213,-0.17989883517486926
-0.08974666163655856,-0.1985586497702716
-0.0886641665953223,-0.22244321245238657
-0.08974666163655856,-0.2291607457067314
-0.11031406742004778,-0.2321463160419958
-0.08974666163655856,-0.2291607457067314
-0.05294183023452524,-0.241849419631605
-0.02154947403867329,-0.25976284164319124
-0.05294183023452524,-0.2836474043253062
-0.08974666163655856,-0.29036493757965104
-0.11031406742004778,-0.29111133016346713
-0.08974666163655856,-0.29036493757965104
-0.0886641665953223,-0.3067855744236051
-0.08974666163655856,-0.32096703351611083
-0.10165410709015758,-0.329923744521904
-0.08974666163655856,-0.32096703351611083
-0.09299414676026739,-0.31798146318084647
-0.08974666163655856,-0.32096703351611083
-0.09840662196644875,-0.33962684811151317
-0.08974666163655856,-0.3515691294525707
-0.09407664180150366,-0.3590330552907316
-0.08974666163655856,-0.3515691294525707
-0.1005716120489213,-0.3493299517011224
-0.08974666163655856,-0.3515691294525707
-0.07242674097677818,-0.36873615888034084
-0.02154947403867329,-0.3821712253890305
0.017420347445832582,-0.39038154381100754
0.04664771355921198,-0.3821712253890305
0.042317733394266886,-0.37843926246995
0.04664771355921198,-0.3821712253890305
0.04340022843550316,-0.4015774325682489
0.04664771355921198,-0.4127733213254903
0.03257527802314042,-0.41799806941220297
0.04664771355921198,-0.4127733213254903
0.07371008959011884,-0.4150124990769386
0.11484490115709725,-0.4127733213254903
0.11809238628080608,-0.4127733213254903
0.11484490115709725,-0.4127733213254903
0.10510244578597079,-0.42844756558562824
0.11484490115709725,-0.4433754172619501
0.11051492099215215,-0.45233212826774327
0.11484490115709725,-0.4433754172619501
0.1083499309096796,-0.43964345434286967
0.11484490115709725,-0.4433754172619501
0.10726743586844334,-0.46203523185735246
0.11484490115709725,-0.47397751319840997
0.1126799110746247,-0.4799486538689387
0.11484490115709725,-0.47397751319840997
0.1007724656210257,-0.47397751319840997
0.11484490115709725,-0.47397751319840997
0.1419072771880041,-0.4792022612851226
0.1841245837962188,-0.47397751319840997
0.18737206891992764,-0.47173833544696164
0.1841245837962188,-0.47397751319840997
0.17005214826014725,-0.49189093520999616
0.1841245837962188,-0.5045796091348698
0.18304208875498254,-0.5112971423892146
0.1841245837962188,-0.5045796091348698
0.17005214826014725,-0.5038332165510536
0.1841245837962188,-0.5045796091348698
0.18737206891992764,-0.5098043572215825
0.1841245837962188,-0.5045796091348698
0.1419072771880041,-0.5023404313834214
0.11484490115709725,-0.5045796091348698
0.09968997057978941,-0.522493031146456
0.11484490115709725,-0.5351817050713296
0.11376240611586098,-0.5418992383256744
0.11484490115709725,-0.5351817050713296
0.10510244578597079,-0.5344353124875135
0.11484490115709725,-0.5351817050713296
0.11159741603338844,-0.5404064531580423
0.11484490115709725,-0.5351817050713296
0.10510244578597079,-0.5329425273198813
0.11484490115709725,-0.5351817050713296
0.1126799110746247,-0.5523487344990997
0.11484490115709725,-0.5650374084239733
0.1007724656210257,-0.5732477268459504
0.11484490115709725,-0.5650374084239733
0.13757729702305901,-0.562798230672525
0.1841245837962188,-0.5650374084239733
0.22850688048690604,-0.5829508304355595
0.32051895899198934,-0.5956395043604331
0.4233559879094354,-0.6038498227824102
0.5251105217856452,-0.5956395043604331
0.5868127391361128,-0.5926539340251687
0.662587392022652,-0.5956395043604331
0.7361970548267186,-0.6150457115396516
0.7989817672184225,-0.6262416002968929
0.7978992721771863,-0.6322127409674216
0.7989817672184225,-0.6262416002968929
0.8195491730019118,-0.6277343854645251
