ECG,PPG
-0.4706421149154365,1.225961088258451
-0.4356308729686571,2.155413369057389
-0.4021756862195123,1.1742427578483352
-0.3951734378301564,0.6511487874145927
-0.4021756862195123,1.1240020940213655
-0.3850590790455312,1.3958927453202599
-0.33293122992477076,1.0722837636112499
-0.28002535320519295,0.850633776139325
-0.2644648012288465,1.020565433201134
-0.2924737947862701,1.1166137611056348
-0.33293122992477076,0.9703247693741645
-0.35160389229638644,0.8624551088044944
-0.33293122992477076,0.9186064389640486
-0.2955859051815394,0.9363384379618026
-0.2644648012288465,0.8668881085539328
-0.2543504424442214,0.8122144449775247
-0.2644648012288465,0.8166474447269633
-0.2932518223850874,0.8018707788955016
-0.33293122992477076,0.7649291143168475
-0.35549403029047305,0.7265097831550472
-0.33293122992477076,0.7132107839067316
-0.28624957399573153,0.7058224509910008
-0.2644648012288465,0.7132107839067316
-0.27380113241465437,0.6910457851595392
-0.2644648012288465,0.6629701200797621
-0.2216732832938939,0.6215954557516694
-0.19599837253292235,0.6112517896696463
-0.22556342128798051,0.6053411233370616
-0.2644648012288465,0.6112517896696463
-0.2504603044501348,0.5876091243393077
-0.19599837253292235,0.5595334592595305
-0.1687674065743161,0.5196364615145841
-0.19599837253292235,0.5092927954325609
-0.24190200086314426,0.5019044625168301
-0.2644648012288465,0.5092927954325609
-0.26524282882766387,0.48417246351907606
-0.2644648012288465,0.4575744650224451
-0.26835493922293313,0.41915513386064485
-0.2644648012288465,0.40585613461232933
-0.258240580438308,0.38073580269884455
-0.2644648012288465,0.3556154707853597
-0.2769132428099237,0.3112854732909748
-0.2644648012288465,0.30389714037524396
-0.22556342128798051,0.30389714037524396
-0.19599837253292235,0.30389714037524396
-0.195220344934105,0.268433142379736
-0.19599837253292235,0.25217880996512815
-0.18588401374829716,0.24922347679883583
-0.19599837253292235,0.25217880996512815
-0.23956791806669228,0.21967014513591251
-0.2644648012288465,0.20193814613815855
-0.23723383527024033,0.1960274798055739
-0.19599837253292235,0.20193814613815855
-0.19055217934120108,0.16942948130894292
-0.19599837253292235,0.15021981572804277
-0.17032346177195076,0.1443091493954581
-0.12753194383699812,0.15021981572804277
-0.11352744705828635,0.1191888174819733
-0.12753194383699812,0.09850148531792699
-0.13531221982517133,0.09259081898534233
-0.12753194383699812,0.09850148531792699
-0.1228637782440942,0.06747048707185752
-0.12753194383699812,0.04826082149095737
-0.13220010942990204,0.040872488575226545
-0.12753194383699812,0.04826082149095737
-0.10885928146538243,0.018707489828034066
-0.05828748754225659,-0.0034575089191584097
0.03274174151936992,-0.013801175001181566
0.14711179854551604,-0.0034575089191584097
0.24125313800241183,-0.02857784083264322
0.2848226835361818,-0.05517583932927419
0.2863787387338164,-0.08768450415848983
0.2848226835361818,-0.1054165031562438
0.30971956669833606,-0.1438358343180441
0.353289112232106,-0.15713483356635957
0.37740796779544294,-0.16156783331579808
0.353289112232106,-0.15713483356635957
0.28793479393145105,-0.18816583181242905
0.21635625484025758,-0.20885316397647535
0.16656248851594907,-0.21771916347535236
0.14711179854551604,-0.20885316397647535
0.1455557433478814,-0.23397349588996016
0.14711179854551604,-0.259093827803445
0.1486678537431507,-0.2783034933843451
0.14711179854551604,-0.259093827803445
0.12843913617390035,-0.25466082805400647
0.07864536984959183,-0.259093827803445
0.0062888031595810185,-0.29308015921580677
-0.05828748754225659,-0.3108121582135608
-0.10107900547720923,-0.32411115746187624
-0.12753194383699812,-0.3108121582135608
-0.16332121338259487,-0.3093344916304146
-0.19599837253292235,-0.3108121582135608
-0.21389300730572072,-0.3388878232933379
-0.19599837253292235,-0.36253048862367654
-0.1835499309518452,-0.39503915345289214
-0.19599837253292235,-0.41277115245064616
-0.2403459456655096,-0.44380215069671564
-0.2644648012288465,-0.4644894828607619
-0.2481262216536828,-0.4955204811068314
-0.19599837253292235,-0.5162078132708777
-0.14698263380743115,-0.5472388115169472
-0.12753194383699812,-0.5664484770978473
-0.16254318578377755,-0.5974794753439168
-0.2644648012288465,-0.6181668075079632
-0.399063575824243,-0.6521531389203249
-0.4706421149154365,-0.6698851379180789
-0.36171825108101163,-0.6831841371663944
0.01017894115366762,-0.6698851379180789
0.6847288693282846,-0.6669298047517865
1.6580413954487527,-0.6698851379180789
2.8468675664416185,-0.7009161361641484
4.062146675794273,-0.7201258017450485
5.046351588298184,-0.7334248009933639
5.57307627269751,-0.7201258017450485
5.526394616768471,-0.7216034683281947
4.95454433163774,-0.7201258017450485
4.0598125929978215,-0.7304694678270717
3.100504563656065,-0.7201258017450485
2.2470082877534643,-0.7201258017450485
1.5211085380569043,-0.7201258017450485
0.8745676034397109,-0.751156799991118
0.2848226835361818,-0.7718441321551642
-0.23801186286905765,-0.786620797986626
-0.6768194286020265,-0.7718441321551642
-0.9989228545123972,-0.7674111324057258
-1.1576404846711306,-0.7718441321551642
-1.1444140154912361,-0.8043527969843799
-1.019929599680465,-0.8235624625652801
-0.8542097211323756,-0.8353837952304494
-0.6768194286020265,-0.8235624625652801
-0.5118775776527545,-0.8235624625652801
-0.4021756862195123,-0.8235624625652801
-0.3803909134526273,-0.8486827944787648
-0.4021756862195123,-0.8738031263922497
-0.4177362381958587,-0.91222245755405
-0.4021756862195123,-0.9255214568023654
-0.39672949302779104,-0.9314321231349502
-0.4021756862195123,-0.9255214568023654
-0.41073398980650283,-0.9476864555495579
-0.4021756862195123,-0.9772397872124813
-0.3951734378301564,-1.0156591183742816
-0.4021756862195123,-1.0274804510394508
-0.4154021553994067,-1.0363464505383277
-0.4021756862195123,-1.0274804510394508
-0.3446016439070306,-1.0319134507888894
-0.2644648012288465,-1.0274804510394508
-0.2053347037187302,-1.0333911173720356
-0.19599837253292235,-1.0274804510394508
-0.22711947648561517,-1.0333911173720356
-0.2644648012288465,-1.0274804510394508
-0.277691270408741,-1.0333911173720356
-0.2644648012288465,-1.0274804510394508
-0.25279438724658676,-1.0333911173720356
-0.2644648012288465,-1.0274804510394508
-0.28391549119927956,-1.0319134507888894
-0.2644648012288465,-1.0274804510394508
-0.19755442773055698,-1.0348687839551818
-0.12753194383699812,-1.0274804510394508
-0.1041911158724785,-1.0304357842057432
-0.12753194383699812,-1.0274804510394508
-0.16565529617904684,-1.0393017837046201
-0.19599837253292235,-1.0274804510394508
-0.21000286931163412,-1.0230474512900123
-0.19599837253292235,-1.0274804510394508
-0.15943107538850826,-1.064422115618105
-0.12753194383699812,-1.0791987814495667
-0.12130772304645956,-1.0821541146158589
-0.12753194383699812,-1.0791987814495667
-0.12830997143581543,-1.1102297796956362
-0.12753194383699812,-1.1309171118596824
-0.13220010942990204,-1.136827778192267
-0.12753194383699812,-1.1309171118596824
-0.09952295027957458,-1.1575151103563133
-0.05828748754225659,-1.1826354422697982
-0.023276245595477165,-1.1944567749349675
0.01017894115366762,-1.1826354422697982
0.04674623829808169,-1.1841131088529444
0.07864536984959183,-1.1826354422697982
0.08798170103539968,-1.1855907754360906
0.07864536984959183,-1.1826354422697982
0.06930903866378399,-1.1929791083518213
0.07864536984959183,-1.1826354422697982
0.10587633580819805,-1.1604704435226056
0.14711179854551604,-1.1309171118596824
0.18912528888165137,-1.1309171118596824
0.21635625484025758,-1.1309171118596824
0.2015737304627285,-1.1338724450259747
0.14711179854551604,-1.1309171118596824
0.08953775623303432,-1.1575151103563133
0.07864536984959183,-1.1826354422697982
0.11287858419755394,-1.1959344415181137
0.14711179854551604,-1.1826354422697982
0.149445881341968,-1.1796801091035058
0.14711179854551604,-1.1826354422697982
0.171230654108853,-1.1929791083518213
0.21635625484025758,-1.1826354422697982
0.251367496787037,-1.1782024425203597
0.2848226835361818,-1.1826354422697982
0.33850658785457693,-1.2136664405158677
0.4217555409280302,-1.232876106096768
0.5034484388038489,-1.243219772178791
0.559466425918696,-1.232876106096768
0.5758050054938597,-1.23583143926306
0.559466425918696,-1.232876106096768
0.5197870183790126,-1.2387867724293524
0.49099999722277177,-1.232876106096768
0.49955830080976227,-1.2387867724293524
0.559466425918696,-1.232876106096768
0.6357131306027933,-1.2343537726799139
0.6971773109093617,-1.232876106096768
0.7290764424608719,-1.2446974387619372
0.7656437396052859,-1.232876106096768
0.8232177819177676,-1.2121887739327215
0.9025765969971343,-1.1826354422697982
0.9749331636871451,-1.181157775686652
1.0402874819878,-1.1826354422697982
1.103307717492003,-1.1885461086023827
1.1772203393796485,-1.1826354422697982
1.248798878470842,-1.1870684420192368
1.3149312243703142,-1.1826354422697982
1.3779514598745173,-1.1826354422697982
1.45264210936098,-1.1826354422697982
1.5257767036498082,-1.2092334407664291
1.5895749667528285,-1.232876106096768
1.6448149262688583,-1.2491304385113757
1.7272858517434941,-1.232876106096768
1.8541043503507175,-1.2299207729304755
2.0019295941260085,-1.232876106096768
2.1061852923675293,-1.2491304385113757
2.138862451517857,-1.232876106096768
2.129526120332049,-1.207755774183283
2.138862451517857,-1.1826354422697982
2.1785418590575403,-1.1855907754360906
2.207328880213781,-1.1826354422697982
2.1894342454409825,-1.181157775686652
2.138862451517857,-1.1826354422697982
2.0781762988101056,-1.2151441070990139
2.0019295941260085,-1.232876106096768
1.8852254543034102,-1.2240101065978908
1.7272858517434941,-1.1826354422697982
1.5343350072367987,-1.170814109604629
1.3149312243703142,-1.1826354422697982
1.0729646411381275,-1.2018451078506984
0.8341101683012101,-1.1826354422697982
0.6185965234288123,-1.1545597771900211
0.4217555409280302,-1.1309171118596824
0.2171342824390749,-1.136827778192267
0.01017894115366762,-1.1309171118596824
-0.16254318578377755,-1.1146627794450745
-0.2644648012288465,-1.0791987814495667
-0.3274850367330495,-1.0585114492855203
-0.4021756862195123,-1.0274804510394508
-0.5095434948563026,-1.0038377857091123
-0.6083529999061023,-0.9772397872124813
-0.6799315389972957,-0.9801951203787735
-0.7452858572979507,-0.9772397872124813
-0.8254226999761347,-0.9654184545473119
-0.8829967422886165,-0.9255214568023654
-0.8923330734744243,-0.9004011248888807
-0.8829967422886165,-0.8738031263922497
-0.9040034874566841,-0.8575487939776418
-0.9514631709845406,-0.8235624625652801
-0.9934766613206759,-0.7999197972349414
-1.019929599680465,-0.7718441321551642
-1.0526067588307924,-0.7555897997405565
-1.0883960283763892,-0.7201258017450485
-1.1047346079515528,-0.6831841371663944
-1.0883960283763892,-0.6181668075079632
-1.0549408416272443,-0.5516718112663856
-1.019929599680465,-0.4644894828607619
-0.9849183577336854,-0.3891284871203075
-0.9514631709845406,-0.3108121582135608
-0.9343465638105596,-0.259093827803445
-0.9514631709845406,-0.20885316397647535
-0.9903645509254067,-0.1689561662315289
-1.019929599680465,-0.1054165031562438
-1.0238197376745515,-0.05222050616298186
-1.019929599680465,-0.0034575089191584097
-1.023041710075734,0.014274490078595572
-1.019929599680465,0.04826082149095737
-0.9903645509254067,0.08963548581905
-0.9514631709845406,0.15021981572804277
-0.9351245914093769,0.17977314739096606
-0.9514631709845406,0.20193814613815855
-0.9662456953620697,0.21080414563703553
-0.9514631709845406,0.25217880996512815
-0.9125617910436746,0.29650880745951314
-0.8829967422886165,0.3556154707853597
-0.8759944938992605,0.3984678016965985
-0.8829967422886165,0.4575744650224451
-0.8837747698874338,0.5063374622662685
-0.8829967422886165,0.5595334592595305
-0.8853308250850684,0.5964751238381847
-0.8829967422886165,0.6629701200797621
-0.8573218315276449,0.733898116070778
-0.8137522859938748,0.8166474447269633
-0.7709607680589222,0.8654104419707866
-0.7452858572979507,0.9186064389640486
-0.7390616365074121,0.9614587698752874
-0.7452858572979507,1.020565433201134
-0.74839796769322,1.0634177641123728
-0.7452858572979507,1.1240020940213655
-0.7585123264778452,1.172765091265189
-0.8137522859938748,1.225961088258451
-0.8783285766957125,1.245170753839351
-0.8829967422886165,1.2776794186685667
-0.8137522859938748,1.314621083247221
-0.7452858572979507,1.3796384129056523
-0.7328374157168736,1.4269237435663293
-0.7452858572979507,1.4815974071427376
-0.7235010845310657,1.5274050712202687
-0.6768194286020265,1.585034067962969
-0.6550346558351415,1.6116320664596
-0.6768194286020265,1.6352747317899388
-0.7141647533452579,1.647096064455108
-0.7452858572979507,1.6869930622000544
-0.7592903540766625,1.7150687272798317
-0.7452858572979507,1.7387113926101703
-0.7079405325547193,1.7283677265281472
-0.6768194286020265,1.7387113926101703
-0.6713732354103052,1.754965725024778
-0.6768194286020265,1.78895205643714
-0.6752633734043918,1.7904297230202861
-0.6768194286020265,1.78895205643714
-0.6845997045901997,1.7771307237719707
-0.6768194286020265,1.78895205643714
-0.6418081866552471,1.7874743898539938
-0.6083529999061023,1.78895205643714
-0.600572723917929,1.7608763913573628
-0.6083529999061023,1.7387113926101703
-0.6083529999061023,1.698814394865224
-0.6083529999061023,1.6869930622000544
-0.6130211654990062,1.6751717295348851
-0.6083529999061023,1.6869930622000544
-0.5764538683545921,1.6810823958674699
-0.5391085436113607,1.6869930622000544
-0.5297722124255528,1.6781270627011775
-0.5391085436113607,1.6869930622000544
-0.5258820744314663,1.6796047292843237
-0.4706421149154365,1.6869930622000544
-0.41073398980650283,1.6781270627011775
-0.4021756862195123,1.6869930622000544
-0.4581936733343594,1.6796047292843237
-0.5391085436113607,1.6869930622000544
-0.5935704755285731,1.6781270627011775
-0.6083529999061023,1.6869930622000544
-0.605240889510833,1.6810823958674699
-0.6083529999061023,1.6869930622000544
-0.6137991930978235,1.6781270627011775
-0.6083529999061023,1.6869930622000544
-0.5811220339474961,1.682560062450616
-0.5391085436113607,1.6869930622000544
-0.4970950532752254,1.6751717295348851
-0.4706421149154365,1.6869930622000544
-0.4659739493225326,1.6869930622000544
-0.4706421149154365,1.6869930622000544
-0.4543035353402728,1.6515290642045466
-0.4021756862195123,1.6352747317899388
-0.3446016439070306,1.6264087322910616
-0.33293122992477076,1.6352747317899388
-0.36949852706918485,1.6116320664596
-0.4021756862195123,1.585034067962969
-0.4021756862195123,1.546614736801169
-0.4021756862195123,1.5333157375528534
-0.4332967901722051,1.50376240588993
-0.4706421149154365,1.4815974071427376
-0.47920041850242706,1.4446557425640834
-0.4706421149154365,1.431356743315768
-0.47219817011307114,1.4018034116528446
-0.4706421149154365,1.3796384129056523
-0.4418550937591956,1.3397414151607057
-0.4021756862195123,1.3279200824955364
-0.38817118944080053,1.3057550837483438
-0.4021756862195123,1.2776794186685667
-0.4130680726029548,1.2111844224269894
-0.4021756862195123,1.1742427578483352
-0.3710545822668195,1.1609437586000197
-0.33293122992477076,1.1742427578483352
-0.3134805399543377,1.1520777591011426
-0.33293122992477076,1.1240020940213655
-0.37805683065617535,1.0841050962764192
-0.4021756862195123,1.0722837636112499
-0.39595146542897375,1.0442080985314726
-0.4021756862195123,1.020565433201134
-0.4418550937591956,0.9836237686224799
-0.4706421149154365,0.9703247693741645
-0.4480793145497342,0.9407714377112412
-0.4021756862195123,0.9186064389640486
-0.38583710664434856,0.8787094412191022
-0.4021756862195123,0.8668881085539328
-0.41462412780058944,0.859499775638202
-0.4021756862195123,0.8668881085539328
-0.3726106374644541,0.8432454432235942
-0.33293122992477076,0.8166474447269633
-0.29402984998390475,0.7767504469820168
-0.2644648012288465,0.7649291143168475
-0.23956791806669228,0.7545854482348243
-0.19599837253292235,0.7649291143168475
-0.14231446821452723,0.760496114567409
-0.12753194383699812,0.7649291143168475
-0.18043782055657592,0.7545854482348243
-0.2644648012288465,0.7649291143168475
-0.32126081594251094,0.7649291143168475
-0.33293122992477076,0.7649291143168475
-0.3298191195295015,0.733898116070778
-0.33293122992477076,0.7132107839067316
-0.338377423116492,0.69843411807527
-0.33293122992477076,0.7132107839067316
-0.3274850367330495,0.7132107839067316
-0.33293122992477076,0.7132107839067316
-0.34382361630821323,0.6999117846584162
-0.33293122992477076,0.7132107839067316
-0.29869801557680864,0.7191214502393164
-0.2644648012288465,0.7132107839067316
-0.255906497641856,0.6747914527449314
-0.2644648012288465,0.6629701200797621
-0.2699109944205678,0.6600147869134697
-0.2644648012288465,0.6629701200797621
-0.26135269083357726,0.627506122084254
-0.2644648012288465,0.6112517896696463
-0.26757691162411584,0.6053411233370616
-0.2644648012288465,0.6112517896696463
-0.2629087460312119,0.5787431248404307
-0.2644648012288465,0.5595334592595305
-0.2667988840252985,0.5521451263437996
-0.2644648012288465,0.5595334592595305
-0.2629087460312119,0.5314577941797534
-0.2644648012288465,0.5092927954325609
-0.26757691162411584,0.49747146276739157
-0.2644648012288465,0.5092927954325609
-0.2590186080371253,0.48712779668536843
-0.2644648012288465,0.4575744650224451
-0.29402984998390475,0.420632800443791
-0.33293122992477076,0.40585613461232933
-0.3531599474940211,0.37630280294940605
-0.33293122992477076,0.3556154707853597
-0.2924737947862701,0.3231068059561441
-0.2644648012288465,0.30389714037524396
-0.2644648012288465,0.26991080896288216
-0.2644648012288465,0.25217880996512815
-0.24112397326432694,0.22558081146849718
-0.19599837253292235,0.20193814613815855
-0.15398488219678702,0.15908581522691975
-0.12753194383699812,0.15021981572804277
-0.1189736402500076,0.1487421491448966
-0.12753194383699812,0.15021981572804277
-0.156318964993239,0.1147558177325348
-0.19599837253292235,0.09850148531792699
-0.23723383527024033,0.09406848556848849
-0.2644648012288465,0.09850148531792699
-0.258240580438308,0.06747048707185752
-0.19599837253292235,0.04826082149095737
-0.09329872948903602,0.03939482199208038
0.01017894115366762,0.04826082149095737
0.08642564583776503,0.02018515641118023
0.14711179854551604,-0.0034575089191584097
0.19612753727100724,-0.016756508167473896
0.21635625484025758,-0.0034575089191584097
0.2093540064509017,-0.022667174500058555
0.21635625484025758,-0.05517583932927419
0.2544796071823063,-0.09802817024051298
0.2848226835361818,-0.1054165031562438
0.2661500211645661,-0.11132716948882847
0.21635625484025758,-0.1054165031562438
0.17278670930648762,-0.12905916848658244
0.14711179854551604,-0.15713483356635957
0.13466335696443893,-0.1985094978944522
0.14711179854551604,-0.20885316397647535
0.18601317848638207,-0.2118084971427677
0.21635625484025758,-0.20885316397647535
0.2015737304627285,-0.2369288290562525
0.14711179854551604,-0.259093827803445
0.08253550784367844,-0.2753481602180528
0.01017894115366762,-0.259093827803445
-0.08551845350086282,-0.259093827803445
-0.19599837253292235,-0.259093827803445
-0.2909177395886354,-0.2753481602180528
-0.33293122992477076,-0.259093827803445
-0.34304558870939594,-0.23840649563939867
-0.33293122992477076,-0.20885316397647535
-0.3181487055472417,-0.20885316397647535
-0.2644648012288465,-0.20885316397647535
-0.21000286931163412,-0.21771916347535236
-0.19599837253292235,-0.20885316397647535
-0.23567778007260567,-0.21328616372591386
-0.2644648012288465,-0.20885316397647535
-0.26057466323476,-0.2162414968922062
-0.2644648012288465,-0.20885316397647535
-0.318926733146059,-0.21328616372591386
-0.4021756862195123,-0.20885316397647535
-0.49398294287995614,-0.21476383030906002
-0.6083529999061023,-0.20885316397647535
-0.7024943393629981,-0.21476383030906002
-0.6083529999061023,-0.20885316397647535
-0.1306440542322674,-0.21476383030906002
0.7656437396052859,-0.20885316397647535
1.9272389446395455,-0.21476383030906002
3.1689709923519893,-0.20885316397647535
4.384250101704644,-0.21476383030906002
5.435365387706844,-0.20885316397647535
6.025110307610373,-0.21476383030906002
5.847720015080024,-0.20885316397647535
4.93431561406849,-0.21328616372591386
3.7182584771170175,-0.20885316397647535
2.6554727771325575,-0.2162414968922062
1.8642187091353426,-0.20885316397647535
1.1990051121465335,-0.2118084971427677
0.559466425918696,-0.20885316397647535
-0.011605831613217356,-0.21771916347535236
-0.4706421149154365,-0.20885316397647535
-0.8487635279406543,-0.2073754973933292
-1.1576404846711306,-0.20885316397647535
-1.3280285288121239,-0.23988416222254483
-1.294573342062979,-0.259093827803445
-1.1024005251551008,-0.2723928270517605
-0.8829967422886165,-0.259093827803445
-0.7235010845310657,-0.26057149438659116
-0.6083529999061023,-0.259093827803445
-0.49787308087404275,-0.2694374938854681
-0.4021756862195123,-0.259093827803445
-0.3726106374644541,-0.26057149438659116
-0.4021756862195123,-0.259093827803445
-0.46986408731661916,-0.2709151604686143
-0.5391085436113607,-0.259093827803445
-0.6013507515167463,-0.25613849463715266
-0.6083529999061023,-0.259093827803445
-0.5515569851924379,-0.29455782579895295
-0.4706421149154365,-0.3108121582135608
-0.42240440378876265,-0.3167228245461454
-0.4021756862195123,-0.3108121582135608
-0.37416669266208874,-0.3388878232933379
-0.33293122992477076,-0.36253048862367654
-0.3119244847567031,-0.3773071544551382
-0.33293122992477076,-0.36253048862367654
-0.3749447202609061,-0.36253048862367654
-0.4021756862195123,-0.36253048862367654
-0.4052877966147816,-0.37139648812255355
-0.4021756862195123,-0.36253048862367654
-0.4052877966147816,-0.36548582178996886
-0.4021756862195123,-0.36253048862367654
-0.3765007754585407,-0.36991882153940736
-0.33293122992477076,-0.36253048862367654
-0.29402984998390475,-0.36548582178996886
-0.2644648012288465,-0.36253048862367654
-0.23489975247378836,-0.37139648812255355
-0.19599837253292235,-0.36253048862367654
-0.15476290979560434,-0.36105282204053035
-0.12753194383699812,-0.36253048862367654
-0.12130772304645956,-0.393561486869746
-0.12753194383699812,-0.41277115245064616
-0.13220010942990204,-0.4275478182821078
-0.12753194383699812,-0.41277115245064616
-0.12130772304645956,-0.41277115245064616
-0.12753194383699812,-0.41277115245064616
-0.156318964993239,-0.43936915094727713
-0.19599837253292235,-0.4644894828607619
-0.2177831452998073,-0.5029088140225623
-0.19599837253292235,-0.5162078132708777
-0.15165079940033507,-0.5221184796034624
-0.12753194383699812,-0.5162078132708777
-0.13142208183108472,-0.5383728120180702
-0.12753194383699812,-0.5664484770978473
-0.09407675708785333,-0.6063454748427938
-0.05828748754225659,-0.6181668075079632
-0.05361932194935267,-0.62703280700684
-0.05828748754225659,-0.6181668075079632
-0.03805876997300626,-0.6225998072574016
0.01017894115366762,-0.6181668075079632
0.05219243148980293,-0.625555140423694
0.07864536984959183,-0.6181668075079632
0.10587633580819805,-0.6211221406742554
0.14711179854551604,-0.6181668075079632
0.18912528888165137,-0.6403318062551556
0.21635625484025758,-0.6698851379180789
0.2210244204331615,-0.7112598022461715
0.21635625484025758,-0.7201258017450485
0.21246611684617098,-0.7230811349113409
0.21635625484025758,-0.7201258017450485
0.21869033763670953,-0.751156799991118
0.21635625484025758,-0.7718441321551642
0.2093540064509017,-0.7836654648203336
0.21635625484025758,-0.7718441321551642
0.24280919320004649,-0.7747994653214566
0.2848226835361818,-0.7718441321551642
0.32216800827941316,-0.777754798487749
0.353289112232106,-0.7718441321551642
0.38207613338834684,-0.779232465070895
0.4217555409280302,-0.7718441321551642
0.46299100366534823,-0.7718441321551642
0.49099999722277177,-0.7718441321551642
0.4925560524204064,-0.8028751304012337
0.49099999722277177,-0.8235624625652801
0.5088946319955702,-0.8353837952304494
0.559466425918696,-0.8235624625652801
0.6069261094465526,-0.8250401291484262
0.6279328546146202,-0.8235624625652801
0.6388252409980627,-0.8309507954810109
0.6971773109093617,-0.8235624625652801
0.8022110367497,-0.8265177957315724
0.9025765969971343,-0.8235624625652801
0.9477021977285389,-0.8294731288978647
0.9718210532918758,-0.8235624625652801
1.0192807368197325,-0.8279954623147185
1.1087539106837243,-0.8235624625652801
1.2106755261287934,-0.8294731288978647
1.3149312243703142,-0.8235624625652801
1.4005142602402196,-0.8279954623147185
1.45264210936098,-0.8235624625652801
1.4736488545290476,-0.8279954623147185
1.5211085380569043,-0.8235624625652801
1.6160279051126174,-0.8279954623147185
1.7272858517434941,-0.8235624625652801
1.8043105840264089,-0.8279954623147185
1.8642187091353426,-0.8235624625652801
1.9490237174064307,-0.8279954623147185
2.0703960228219325,-0.8235624625652801
2.1894342454409825,-0.8279954623147185
2.2765733365085223,-0.8235624625652801
2.3271451304316484,-0.8279954623147185
2.345039765204447,-0.8235624625652801
2.307694440461215,-0.8279954623147185
2.207328880213781,-0.8235624625652801
2.0844005196006443,-0.8279954623147185
2.0019295941260085,-0.8235624625652801
1.9513578002028824,-0.8279954623147185
1.8642187091353426,-0.8235624625652801
1.7039450237789746,-0.8279954623147185
1.5211085380569043,-0.8235624625652801
1.3561666871076323,-0.8294731288978647
1.1772203393796485,-0.8235624625652801
0.945368114932087,-0.8279954623147185
0.6971773109093617,-0.8235624625652801
0.47932958324051195,-0.8294731288978647
0.2848226835361818,-0.8235624625652801
0.07475523185550523,-0.8279954623147185
-0.12753194383699812,-0.8235624625652801
-0.2854715463969142,-0.8294731288978647
-0.4021756862195123,-0.8235624625652801
-0.5110995500539371,-0.8265177957315724
-0.6083529999061023,-0.8235624625652801
-0.683043649392565,-0.8339061286473032
-0.7452858572979507,-0.8235624625652801
-0.8184204515867788,-0.8087857967338185
-0.8829967422886165,-0.7718441321551642
-0.9250102326247517,-0.7496791334079718
-0.9514631709845406,-0.7201258017450485
-0.9856963853325027,-0.7053491359135868
-1.019929599680465,-0.6698851379180789
-1.051828731231975,-0.6314658067562786
-1.0883960283763892,-0.5664484770978473
-1.134299656706611,-0.5147301466877315
-1.1576404846711306,-0.4644894828607619
-1.1358557119042456,-0.4305031514484001
-1.0883960283763892,-0.36253048862367654
-1.0673892832083214,-0.28569182630007595
-1.0883960283763892,-0.20885316397647535
-1.1109588287420913,-0.16600083306523658
-1.0883960283763892,-0.1054165031562438
-1.0386022620520805,-0.03596617374837404
-1.019929599680465,0.04826082149095737
-1.0510507036331578,0.09554615215163466
-1.0883960283763892,0.15021981572804277
-1.0946202491669277,0.21523714538647404
-1.0883960283763892,0.30389714037524396
-1.0922861663704757,0.3600484705347982
-1.0883960283763892,0.40585613461232933
-1.0557188692260615,0.44279779919098344
-1.019929599680465,0.5092927954325609
-1.0121493236922916,0.5624887924258228
-1.019929599680465,0.6112517896696463
-1.0191515720816475,0.6289837886674002
-1.019929599680465,0.6629701200797621
-1.027709875668638,0.6999117846584162
-1.019929599680465,0.7649291143168475
-0.9825842749372334,0.8136921115606709
-0.9514631709845406,0.8668881085539328
-0.9506851433857233,0.9067851062988793
-0.9514631709845406,0.9703247693741645
-0.9203420670318478,1.0220430997842802
-0.8829967422886165,1.0722837636112499
-0.872104355905174,1.0914934291921499
-0.8829967422886165,1.1240020940213655
-0.884552797486251,1.1594660920168736
-0.8829967422886165,1.225961088258451
-0.8861088526838857,1.2762017520854205
-0.8829967422886165,1.3279200824955364
-0.8526536659347409,1.3663394136573366
-0.8137522859938748,1.431356743315768
-0.7997477892151631,1.48455274030903
-0.8137522859938748,1.5333157375528534
-0.8238666447785,1.549570069967461
-0.8137522859938748,1.585034067962969
-0.8028598996104324,1.6264087322910616
-0.8137522859938748,1.6869930622000544
-0.8293128379702213,1.7135910606966855
-0.8137522859938748,1.7387113926101703
-0.7717387956577396,1.7505327252753395
-0.7452858572979507,1.78895205643714
-0.7491759952920373,1.8140723883506247
-0.7452858572979507,1.8406703868472556
-0.7079405325547193,1.851014052929279
-0.6768194286020265,1.8923887172573715
-0.6947140633748249,1.9204643823371486
-0.7452858572979507,1.9426293810843411
-0.7686266852624702,1.9293303818360257
-0.7452858572979507,1.9426293810843411
-0.7040503945606327,1.9647943798315335
-0.6768194286020265,1.9943477114944568
-0.6698171802126706,1.9840040454124337
-0.6768194286020265,1.9943477114944568
-0.6838216769913823,2.013557377075357
-0.6768194286020265,2.0460660419045724
-0.6456983246493336,2.0372000424056957
-0.6083529999061023,2.0460660419045724
-0.5920144203309385,2.0623203743191802
-0.6083529999061023,2.0963067057315423
-0.6254696070800833,2.0903960393989576
-0.6083529999061023,2.0963067057315423
-0.5624493715758804,2.1110833715630037
-0.5391085436113607,2.148025036141658
-0.5647834543723323,2.148025036141658
-0.6083529999061023,2.148025036141658
-0.624691579481266,2.140636703225927
-0.6083529999061023,2.148025036141658
-0.5772318959534094,2.119949371061881
-0.5391085436113607,2.0963067057315423
-0.49787308087404275,2.077097040150642
-0.4706421149154365,2.0963067057315423
-0.4667519769213499,2.0977843723146883
-0.4706421149154365,2.0963067057315423
-0.4690860597178019,2.0637980409023267
-0.4706421149154365,2.0460660419045724
-0.4784223909036097,2.0268563763236727
-0.4706421149154365,2.0460660419045724
-0.4364089005674744,2.049021375070865
-0.4021756862195123,2.0460660419045724
-0.3936173826325218,2.006169044159626
-0.4021756862195123,1.9943477114944568
-0.40373174141714696,1.9884370451618723
-0.4021756862195123,1.9943477114944568
-0.40373174141714696,1.9618390466652411
-0.4021756862195123,1.9426293810843411
-0.3936173826325218,1.9322857150023178
-0.4021756862195123,1.9426293810843411
-0.4364089005674744,1.9189867157540024
-0.4706421149154365,1.8923887172573715
-0.4784223909036097,1.8539693860955713
-0.4706421149154365,1.8406703868472556
-0.4690860597178019,1.8096393886011861
-0.4706421149154365,1.78895205643714
-0.46830803211898453,1.7564433916079243
-0.4706421149154365,1.7387113926101703
-0.47920041850242706,1.7032473946146622
-0.4706421149154365,1.6869930622000544
-0.4356308729686571,1.6574397305371311
-0.4021756862195123,1.6352747317899388
-0.3951734378301564,1.5939000674618462
-0.4021756862195123,1.585034067962969
-0.40061963102187764,1.5806010682135305
-0.4021756862195123,1.585034067962969
-0.4294066521781185,1.5510477365506072
-0.4706421149154365,1.5333157375528534
-0.49009280488586954,1.5229720714708301
-0.4706421149154365,1.5333157375528534
-0.43018467977693586,1.5096730722225147
-0.4021756862195123,1.4815974071427376
-0.41462412780058944,1.4446557425640834
-0.4706421149154365,1.431356743315768
-0.5289941848267355,1.4003257450696984
-0.5391085436113607,1.3796384129056523
-0.5025412464669466,1.3456520814932904
-0.4706421149154365,1.3279200824955364
-0.4706421149154365,1.2954114176663207
-0.4706421149154365,1.2776794186685667
-0.4395210109627437,1.245170753839351
-0.4021756862195123,1.225961088258451
-0.3943954102313391,1.1890194236797968
-0.4021756862195123,1.1742427578483352
-0.38116894105144467,1.1491224259348505
-0.33293122992477076,1.1240020940213655
-0.3072563191637992,1.0634177641123728
-0.33293122992477076,1.020565433201134
-0.38116894105144467,0.9836237686224799
-0.4021756862195123,0.9703247693741645
-0.3951734378301564,0.9378161045449488
-0.4021756862195123,0.9186064389640486
-0.440299038561561,0.8875754407179791
-0.4706421149154365,0.8668881085539328
-0.4543035353402728,0.8269911108089864
-0.4021756862195123,0.8166474447269633
-0.35471600269165576,0.8107367783943786
-0.33293122992477076,0.8166474447269633
-0.32904109193068415,0.7856164464808938
-0.33293122992477076,0.7649291143168475
-0.3375993955176747,0.751630115068532
-0.33293122992477076,0.7649291143168475
-0.32437292633778025,0.7457194487359473
-0.33293122992477076,0.7132107839067316
-0.36949852706918485,0.6688807864123467
-0.4021756862195123,0.6629701200797621
-0.38972724463843517,0.6600147869134697
-0.33293122992477076,0.6629701200797621
-0.28002535320519295,0.6319391218336926
-0.2644648012288465,0.6112517896696463
-0.27146704961820245,0.5964751238381847
-0.2644648012288465,0.6112517896696463
-0.24890424925250013,0.6112517896696463
-0.2644648012288465,0.6112517896696463
-0.32904109193068415,0.5979527904213308
-0.4021756862195123,0.6112517896696463
-0.4286286245793012,0.6142071228359386
-0.4021756862195123,0.6112517896696463
-0.36171825108101163,0.5757877916741383
-0.33293122992477076,0.5595334592595305
-0.3049222363673472,0.5506674597606536
-0.2644648012288465,0.5595334592595305
-0.24112397326432694,0.537368460512338
-0.2644648012288465,0.5092927954325609
-0.3158146227507897,0.4708734642707606
-0.33293122992477076,0.4575744650224451
-0.3010320983732606,0.4309764665258141
-0.2644648012288465,0.40585613461232933
-0.2621307184323946,0.36595913686738285
-0.2644648012288465,0.3556154707853597
-0.23489975247378836,0.3482271378696289
-0.19599837253292235,0.3556154707853597
-0.2053347037187302,0.33197280545502106
-0.2644648012288465,0.30389714037524396
-0.32281687114014557,0.2640001426302975
-0.33293122992477076,0.25217880996512815
-0.3033661811697126,0.24479047704939733
-0.2644648012288465,0.25217880996512815
-0.24968227685131747,0.232969144384228
-0.2644648012288465,0.20193814613815855
-0.28313746360046227,0.1398761496460196
-0.2644648012288465,0.09850148531792699
-0.20300062092227822,0.06303748732241903
-0.12753194383699812,0.04826082149095737
-0.060621570338708554,0.017229823244887903
0.01017894115366762,-0.0034575089191584097
0.088759728634217,-0.034488507165227875
0.14711179854551604,-0.05517583932927419
0.1611162953242278,-0.09063983732478215
0.14711179854551604,-0.1054165031562438
0.1385534949585255,-0.11723783582141313
0.14711179854551604,-0.1054165031562438
0.1720086817076703,-0.1098495029056823
0.21635625484025758,-0.1054165031562438
0.2661500211645661,-0.1142825026551208
0.2848226835361818,-0.1054165031562438
0.2560356623799409,-0.11132716948882847
0.21635625484025758,-0.1054165031562438
0.20624189605563242,-0.11280483607197463
0.21635625484025758,-0.1054165031562438
0.2015737304627285,-0.11132716948882847
0.14711179854551604,-0.1054165031562438
0.07553325945432256,-0.1142825026551208
0.01017894115366762,-0.1054165031562438
-0.05284129435053535,-0.1098495029056823
-0.12753194383699812,-0.1054165031562438
-0.20766878651518214,-0.11576016923826696
-0.2644648012288465,-0.1054165031562438
-0.2823594360016449,-0.1054165031562438
-0.2644648012288465,-0.1054165031562438
-0.2543504424442214,-0.13792516798545942
-0.2644648012288465,-0.15713483356635957
-0.3041442087685299,-0.17043383281467506
-0.33293122992477076,-0.15713483356635957
-0.3461576991046652,-0.16009016673265192
-0.33293122992477076,-0.15713483356635957
-0.32437292633778025,-0.16452316648209042
-0.33293122992477076,-0.15713483356635957
-0.3663864166739155,-0.16304549989894424
-0.4021756862195123,-0.15713483356635957
-0.4325187625733878,-0.16304549989894424
-0.4706421149154365,-0.15713483356635957
-0.5336623504196395,-0.16452316648209042
-0.6083529999061023,-0.15713483356635957
-0.6410301590564297,-0.15861250014950576
-0.5391085436113607,-0.15713483356635957
-0.17110148937076808,-0.18373283206299057
0.559466425918696,-0.20885316397647535
1.612915794717348,-0.24283949538883717
2.825860821273551,-0.259093827803445
4.01935515785932,-0.28864715946636826
5.023010760333664,-0.3108121582135608
5.5971951282608465,-0.3462761562090687
5.503831816402768,-0.36253048862367654
4.761593487131044,-0.3891284871203075
3.7182584771170175,-0.41277115245064616
2.760506502972896,-0.4526681501955926
2.0019295941260085,-0.4644894828607619
1.339050079933651,-0.4689224826102004
0.6971773109093617,-0.4644894828607619
0.10354225301174609,-0.49256514794053907
-0.4021756862195123,-0.5162078132708777
-0.8075280652033363,-0.545761144933801
-1.0883960283763892,-0.5664484770978473
-1.2229948029717854,-0.6033901416765014
-1.2261069133670548,-0.6181668075079632
-1.1272974083172551,-0.6240774738405478
-0.9514631709845406,-0.6181668075079632
-0.7491759952920373,-0.6447648060045941
-0.6083529999061023,-0.6698851379180789
-0.5787879511510441,-0.6861394703326867
-0.6083529999061023,-0.6698851379180789
-0.6270256622777179,-0.6669298047517865
-0.6083529999061023,-0.6698851379180789
-0.5997946963191118,-0.6831841371663944
-0.6083529999061023,-0.6698851379180789
-0.6231355242836314,-0.6639744715854943
-0.6083529999061023,-0.6698851379180789
-0.5733417579593229,-0.7053491359135868
-0.5391085436113607,-0.7201258017450485
-0.5297722124255528,-0.7260364680776331
-0.5391085436113607,-0.7201258017450485
-0.5492229023959859,-0.7467238002416795
-0.5391085436113607,-0.7718441321551642
-0.5087654672574852,-0.8013974638180876
-0.4706421149154365,-0.8235624625652801
-0.4356308729686571,-0.8619817937270804
-0.4021756862195123,-0.8738031263922497
-0.36560838907509824,-0.876758459558542
-0.33293122992477076,-0.8738031263922497
-0.3220388435413283,-0.9063117912214653
-0.33293122992477076,-0.9255214568023654
-0.3461576991046652,-0.9314321231349502
-0.33293122992477076,-0.9255214568023654
-0.2963639327803567,-0.9550747884652887
-0.2644648012288465,-0.9772397872124813
-0.25979663563594263,-0.9861057867113582
-0.2644648012288465,-0.9772397872124813
-0.2442360836595962,-1.00088245254282
-0.19599837253292235,-1.0274804510394508
-0.16643332377786416,-1.046690116620351
-0.19599837253292235,-1.0274804510394508
-0.2543504424442214,-1.021569784706866
-0.2644648012288465,-1.0274804510394508
-0.2022225933234609,-1.0614667824518127
-0.12753194383699812,-1.0791987814495667
-0.10574717107011315,-1.091020114114736
-0.12753194383699812,-1.0791987814495667
-0.14153644061570989,-1.0791987814495667
-0.12753194383699812,-1.0791987814495667
-0.09718886748312262,-1.0924977806978822
-0.05828748754225659,-1.0791987814495667
-0.01783005240375592,-1.0585114492855203
0.01017894115366762,-1.0274804510394508
0.014069079147754224,-1.0260027844563047
0.01017894115366762,-1.0274804510394508
0.012513023950119584,-1.037824117121474
0.01017894115366762,-1.0274804510394508
-0.019386107601390562,-1.028958117622597
-0.05828748754225659,-1.0274804510394508
-0.05750945994343927,-1.0393017837046201
0.01017894115366762,-1.0274804510394508
0.09965211501765948,-1.0245251178731585
0.14711179854551604,-1.0274804510394508
0.14399968815024677,-1.0614667824518127
0.14711179854551604,-1.0791987814495667
0.18367909568993013,-1.0865871143652974
0.21635625484025758,-1.0791987814495667
0.19534950967218992,-1.101363780196759
0.14711179854551604,-1.1309171118596824
0.12532702577863106,-1.1663811098551904
0.14711179854551604,-1.1826354422697982
0.18290106809111278,-1.1929791083518213
0.21635625484025758,-1.1826354422697982
0.2474773587929504,-1.1767247759372135
0.2848226835361818,-1.1826354422697982
0.3190558978841439,-1.21662177368216
0.353289112232106,-1.232876106096768
0.3883003541788854,-1.2373091058462062
0.4217555409280302,-1.232876106096768
0.43342595491029,-1.260951771176545
0.4217555409280302,-1.2845944365068835
0.4054169613528665,-1.297893435755199
0.4217555409280302,-1.2845944365068835
0.4785515556416946,-1.2845944365068835
0.559466425918696,-1.2845944365068835
0.6333790478063415,-1.2919827694226145
0.6971773109093617,-1.2845944365068835
0.739190801245497,-1.287549769673176
0.7656437396052859,-1.2845944365068835
0.7858724571745362,-1.289027436256322
0.8341101683012101,-1.2845944365068835
0.9056887073924036,-1.2905051028394683
0.9718210532918758,-1.2845944365068835
1.003720184843386,-1.287549769673176
1.0402874819878,-1.2845944365068835
1.1196462970671668,-1.2934604360057607
1.24646479567439,-1.2845944365068835
1.3662810458922574,-1.280161436757445
1.45264210936098,-1.2845944365068835
1.5125502344699138,-1.3171031013360992
1.5895749667528285,-1.3363127669169994
1.6899405270002628,-1.340745766666438
1.7957522804394184,-1.3363127669169994
1.8766671507164197,-1.3614330988304841
1.9326851378312668,-1.386553430743969
1.9708084901733156,-1.4042854297417229
2.0019295941260085,-1.386553430743969
2.0299385876834317,-1.3658660985799227
2.0703960228219325,-1.3363127669169994
2.1318602031285008,-1.3274467674181223
2.207328880213781,-1.3363127669169994
2.2649029225262627,-1.3702990983293613
2.2765733365085223,-1.386553430743969
2.2306697081783007,-1.3924640970765536
2.138862451517857,-1.386553430743969
2.013600008108268,-1.4131514292406
1.8642187091353426,-1.4382717611540847
1.697720802988436,-1.4545260935686926
1.5211085380569043,-1.4382717611540847
1.3273796659513915,-1.4338387614046462
1.1087539106837243,-1.4382717611540847
0.8667873274515376,-1.4545260935686926
0.6279328546146202,-1.4382717611540847
0.4108631545445877,-1.4131514292406
0.21635625484025758,-1.386553430743969
0.033519769118187236,-1.3909864304934074
-0.12753194383699812,-1.386553430743969
-0.2706890220193851,-1.3747320980787996
