ECG,PPG
-0.031742371185102675,1.4855374311877596
-0.15219688806540108,1.3460627723090492
-0.2726514049456995,1.1999464630075454
-0.3375115294197063,1.0538301537060415
-0.3375115294197063,0.9143554948273378
-0.3375115294197063,0.78816413679422
-0.3375115294197063,0.6686144291838957
-0.3375115294197063,0.5689896728419643
-0.3375115294197063,0.48264821734561925
-0.3189800652842758,0.4095900626948673
-0.22632274460712318,0.3498152088897085
0.7929077828415556,0.3099653063529359
2.3124878419468584,0.2767570542389566
2.8776974980774894,0.25683210297057046
2.553396875707455,0.24354880212497731
2.571928339842886,0.23690715170218432
-0.3838401897582826,0.23690715170218432
-1.8570915885250092,0.23690715170218432
-2.922650776312264,0.23690715170218432
-3.182091274208292,0.23026550127938417
-2.904119312176834,0.23026550127938417
-2.40376978052021,0.21698220043379102
-1.458665109613253,0.21034055001099805
-1.0046442382952052,0.19041559874261152
-0.8656582572794762,0.17713229789701837
-0.7915324007377541,0.15720734662863226
-0.7637352045346083,0.1372823953602461
-0.7452037403991778,0.11071579366906661
-0.717406544196032,0.08414919197788032
-0.6710778838574557,0.05758259028670082
-0.6988750800606015,0.02437433817272154
-0.6710778838574557,-0.008833913941257739
-0.6525464197220252,-0.0420421660552374
-0.6247492235188794,-0.08189206859200966
-0.5969520273157336,-0.12174197112878231
-0.5969520273157336,-0.16159187366555497
-0.5784205631803031,-0.20144177620233403
-0.5784205631803031,-0.23465002831630688
-0.5784205631803031,-0.26785828043028614
-0.504294706638581,-0.30106653254426546
-0.504294706638581,-0.33427478465824473
-0.4579660463000047,-0.3674830367722244
-0.3653087256228521,-0.40733293930899667
-0.2726514049456995,-0.4405411914229763
-0.15219688806540108,-0.4737494435369556
0.04238348535661942,-0.5003160452281351
0.25549532291407046,-0.5335242973421144
0.46860716047152146,-0.5600908990332939
0.6817189980289725,-0.5866575007244802
0.8948308355864235,-0.6065824519928663
1.0801454769407288,-0.6265074032612524
1.2747258503627492,-0.646432354529639
1.3859146351753324,-0.6663573057980251
1.4322432955139086,-0.6862822570664112
1.4137118313784782,-0.7062072083347978
1.3210545107013256,-0.7261321596031839
1.1728027976178814,-0.739415460448777
0.9874881562635761,-0.7526987612943702
0.7929077828415556,-0.7659820621399633
0.6075931414872504,-0.7726237125627563
0.4130127680652299,-0.7792653629855496
0.30182398325264675,-0.7925486638311428
0.18136946637234835,-0.7925486638311428
0.060914949492049945,-0.7991903142539358
-0.013210907049672151,-0.8058319646767359
-0.031742371185102675,-0.819115265522322
-0.10586822772682476,-0.825756915945122
-0.10586822772682476,-0.8390402167907152
-0.10586822772682476,-0.8456818672135082
-0.12439969186225529,-0.8523235176363015
-0.10586822772682476,-0.8589651680591014
-0.12439969186225529,-0.8722484689046877
-0.10586822772682476,-0.8788901193274878
-0.12439969186225529,-0.8855317697502808
-0.07807103152367899,-0.8921734201730739
-0.07807103152367899,-0.898815070595874
-0.05953956738824846,-0.905456721018667
-0.05953956738824846,-0.9187400218642602
-0.05953956738824846,-0.9253816722870535
-0.05953956738824846,-0.9253816722870535
-0.031742371185102675,-0.9120983714414671
-0.013210907049672151,-0.8788901193274878
0.014586289153473635,-0.819115265522322
0.014586289153473635,-0.7194905091803908
0.014586289153473635,-0.58001585030168
0.014586289153473635,-0.40069128888620364
0.014586289153473635,-0.22136672747072053
0.014586289153473635,-0.022117214786850886
0.014586289153473635,0.21698220043379102
0.04238348535661942,0.4892898677684126
0.014586289153473635,0.7748808359486273
0.014586289153473635,1.0604718041288417
0.014586289153473635,1.3261378210406631
0.04238348535661942,1.5785205371068978
0.04238348535661942,1.7976950010591535
0.014586289153473635,1.9836612128974305
0.014586289153473635,2.143060823044527
0.014586289153473635,2.2692521810776447
0.10724360983062625,2.362235286996783
0.18136946637234835,2.415368490379149
0.30182398325264675,2.4485767424931284
0.5149358208100978,2.461860043338721
0.6075931414872504,2.4685016937615143
0.700250462164403,2.455218392915921
0.5149358208100978,2.422010140801942
0.3666841077266536,2.375518587842376
0.32035544738807725,2.309102083614417
0.25549532291407046,2.2294022785408725
0.18136946637234835,2.129777522198934
0.22769812671092465,2.0235111154342094
0.32035544738807725,1.8973197574010918
0.22769812671092465,1.7777700497907674
-0.013210907049672151,1.6515786917576496
-0.1707283522008316,1.512104032878946
-0.2448542087425537,1.359346073154642
-0.3189800652842758,1.2065881134303456
-0.3375115294197063,1.0604718041288417
-0.3375115294197063,0.9143554948273378
-0.3189800652842758,0.78152248637142
-0.3189800652842758,0.6619727787611024
-0.3375115294197063,0.5557063719963712
-0.2726514049456995,0.4693649165000261
-0.10586822772682476,0.3896651114264812
0.700250462164403,0.3232486071985222
2.127173200592553,0.2767570542389566
3.146403728041232,0.2501904525477703
3.025949211160934,0.22362385085659117
3.07227787149951,0.21034055001099805
-0.2726514049456995,0.1970572491654049
-1.9775461054053076,0.19041559874261152
-3.0616367573279932,0.19041559874261152
-3.228419934546868,0.19041559874261152
-2.8485249197705422,0.18377394831981853
-2.40376978052021,0.17713229789701837
-1.458665109613253,0.1704906474742254
-0.8656582572794762,0.15720734662863226
-0.7452037403991778,0.1439240457830391
-0.7915324007377541,0.13064074493745276
-0.7637352045346083,0.11071579366906661
-0.6988750800606015,0.09079084240068047
-0.5784205631803031,0.06422424070949419
-0.5969520273157336,0.03101598859551453
-0.6525464197220252,-0.00219226351846475
-0.6710778838574557,-0.03540051563243724
-0.5784205631803031,-0.06860876774641653
-0.504294706638581,-0.10845867028318917
-0.5506233669771573,-0.14166692239716844
-0.5784205631803031,-0.18151682493394108
-0.4857632425031505,-0.24793332916190003
-0.4579660463000047,-0.3143498333898586
-0.4857632425031505,-0.3608413863494242
-0.4116373859614284,-0.40069128888620364
-0.4394345821645742,-0.4405411914229763
-0.4579660463000047,-0.48039109395974855
-0.3653087256228521,-0.5202409964965212
-0.2448542087425537,-0.5600908990332939
-0.15219688806540108,-0.5932991511472732
0.04238348535661942,-0.6331490536840458
0.15357227016920255,-0.6663573057980251
0.34815264359122305,-0.6929239074892114
0.5612644811486741,-0.7261321596031839
0.7929077828415556,-0.74605711087157
0.913362299721854,-0.7659820621399633
1.126474137279305,-0.7859070134083495
1.3859146351753324,-0.8058319646767359
1.4137118313784782,-0.825756915945122
1.3210545107013256,-0.8456818672135082
1.3210545107013256,-0.8656068184818947
1.126474137279305,-0.8788901193274878
0.9411594959249998,-0.898815070595874
0.7465791225029793,-0.905456721018667
0.5797959452841046,-0.9187400218642602
0.4130127680652299,-0.9253816722870535
0.27402678704950095,-0.9386649731326466
0.10724360983062625,-0.9386649731326466
0.04238348535661942,-0.9453066235554396
-0.013210907049672151,-0.9453066235554396
0.060914949492049945,-0.9585899244010327
-0.013210907049672151,-0.9652315748238258
-0.10586822772682476,-0.9718732252466259
-0.15219688806540108,-0.985156526092219
-0.19852554840397738,-0.991798176515012
-0.10586822772682476,-1.0050814773606052
-0.10586822772682476,-1.0183647782061915
-0.12439969186225529,-1.0250064286289915
-0.15219688806540108,-1.0382897294745779
-0.15219688806540108,-1.0449313798973778
-0.12439969186225529,-1.0515730303201711
-0.07807103152367899,-1.058214680742971
-0.07807103152367899,-1.0714979815885572
-0.10586822772682476,-1.0781396320113572
0.060914949492049945,-1.0781396320113572
-0.031742371185102675,-1.0714979815885572
-0.05953956738824846,-1.0515730303201711
0.014586289153473635,-0.9984398269378054
0.060914949492049945,-0.9187400218642602
0.04238348535661942,-0.8058319646767359
0.014586289153473635,-0.646432354529639
0.060914949492049945,-0.45382449226856264
0.04238348535661942,-0.2612166300074928
-0.031742371185102675,-0.06196711732362353
0.060914949492049945,0.18377394831981853
0.10724360983062625,0.4494399652316399
0.08871214569519573,0.7217476325662615
0.13504080603377203,0.9874136494780897
0.060914949492049945,1.233154715121525
0.30182398325264675,1.4523291790737807
0.32035544738807725,1.644937041334857
0.5149358208100978,1.8043366514819537
0.6539218018258267,1.9305280095150645
0.6817189980289725,2.030152765857003
0.5612644811486741,2.083285969239369
0.487138624606952,2.1098525709305482
0.44080996426837565,2.129777522198934
0.5149358208100978,2.136419172621734
0.4130127680652299,2.123135871776141
0.44080996426837565,2.089927619662161
0.5612644811486741,2.0434360667025957
0.22769812671092465,1.9836612128974305
-0.013210907049672151,1.9039614078238851
0.04238348535661942,1.810978301904747
-0.05953956738824846,1.7047118951400155
-0.1707283522008316,1.5785205371068978
-0.29118286908113,1.4456875286509874
-0.22632274460712318,1.3194961706178696
-0.2726514049456995,1.193304812584752
-0.22632274460712318,1.0538301537060415
-0.3189800652842758,0.9077138444045376
-0.2448542087425537,0.7615975351030337
-0.031742371185102675,0.61548122580153
0.7465791225029793,0.48264821734561925
2.0530473440508312,0.3564568593125019
3.164935192176663,0.2501904525477703
3.285389709056961,0.15720734662863226
3.572627403156134,0.07750754155508734
0.15357227016920255,0.01773268774992176
-2.9967766328539867,-0.022117214786850886
-4.062335820641241,-0.048683816478030384
-4.108664480979818,-0.07525041816921668
-2.968979436650841,-0.08853371901480303
-2.311112459843057,-0.09517536943760281
-1.5049937699518292,-0.09517536943760281
-0.8378610610763304,-0.09517536943760281
-0.5969520273157336,-0.09517536943760281
-0.6988750800606015,-0.09517536943760281
-0.5784205631803031,-0.10181701986039618
-0.7637352045346083,-0.10845867028318917
-0.4857632425031505,-0.11510032070598894
-0.5506233669771573,-0.1283836215515821
-0.6525464197220252,-0.14166692239716844
-0.5784205631803031,-0.1549502232427616
-0.4579660463000047,-0.1748751745111481
-0.4394345821645742,-0.20144177620233403
-0.504294706638581,-0.22800837789351353
-0.6247492235188794,-0.2612166300074928
-0.4857632425031505,-0.2877832316986723
-0.4394345821645742,-0.32099148381265197
-0.504294706638581,-0.3608413863494242
-0.4579660463000047,-0.40069128888620364
-0.3838401897582826,-0.43389954100017614
-0.3375115294197063,-0.4737494435369556
-0.4579660463000047,-0.5003160452281351
-0.22632274460712318,-0.5268826469193146
-0.07807103152367899,-0.5600908990332939
0.060914949492049945,-0.5932991511472732
0.22769812671092465,-0.6265074032612524
0.39448130392979935,-0.6597156553752321
0.5797959452841046,-0.6929239074892114
0.7929077828415556,-0.7261321596031839
1.0060196203990066,-0.7526987612943702
1.2747258503627492,-0.7792653629855496
1.5341663482587766,-0.8058319646767359
1.4600404917170544,-0.8323985663679151
1.4600404917170544,-0.8523235176363015
1.339585974836756,-0.8722484689046877
1.3673831710399018,-0.8788901193274878
1.1728027976178814,-0.898815070595874
0.9596909600604303,-0.9120983714414671
0.700250462164403,-0.9253816722870535
0.487138624606952,-0.9386649731326466
0.32035544738807725,-0.9519482739782398
0.22769812671092465,-0.9652315748238258
0.10724360983062625,-0.9785148756694189
-0.013210907049672151,-0.991798176515012
0.014586289153473635,-0.9984398269378054
-0.12439969186225529,-1.0117231277833985
-0.19852554840397738,-1.0183647782061915
-0.10586822772682476,-1.0250064286289915
-0.05953956738824846,-1.0316480790517848
-0.07807103152367899,-1.0382897294745779
-0.031742371185102675,-1.0515730303201711
0.04238348535661942,-1.064856331165764
0.014586289153473635,-1.0781396320113572
-0.013210907049672151,-1.0914229328569436
0.08871214569519573,-1.1047062337025366
0.04238348535661942,-1.1179895345481299
-0.013210907049672151,-1.124631184970923
0.08871214569519573,-1.137914485816516
0.04238348535661942,-1.144556136239309
0.10724360983062625,-1.144556136239309
0.08871214569519573,-1.137914485816516
0.10724360983062625,-1.1312728353937227
0.18136946637234835,-1.1047062337025366
0.10724360983062625,-1.058214680742971
0.10724360983062625,-0.9785148756694189
0.13504080603377203,-0.8722484689046877
0.15357227016920255,-0.7261321596031839
0.10724360983062625,-0.5468075981877075
0.10724360983062625,-0.3409164350810381
0.13504080603377203,-0.10845867028318917
0.10724360983062625,0.13064074493745276
0.08871214569519573,0.3431735584669087
0.10724360983062625,0.5357814207279851
0.18136946637234835,0.7416725838346476
0.19990093050777888,0.9409220965185173
0.30182398325264675,1.120246657934
0.5149358208100978,1.2730046176582972
0.6539218018258267,1.399195975691415
0.6817189980289725,1.4988207320333533
0.6261246056226809,1.5718788866841051
0.5334672849455283,1.6183704396436707
0.487138624606952,1.638295390912057
0.3666841077266536,1.638295390912057
0.30182398325264675,1.6183704396436707
0.3666841077266536,1.5785205371068978
0.46860716047152146,1.5253873337245327
0.32035544738807725,1.4589708294965802
0.08871214569519573,1.3792710244230288
-0.05953956738824846,1.2796462680810974
-0.12439969186225529,1.1667382108935724
-0.22632274460712318,1.0471885032832482
-0.2726514049456995,0.9143554948273378
-0.2448542087425537,0.7748808359486273
-0.2726514049456995,0.6354061770699164
-0.2448542087425537,0.4959315181912124
-0.2726514049456995,0.369740160158095
-0.2448542087425537,0.25683210297057046
-0.22632274460712318,0.15720734662863226
0.30182398325264675,0.05758259028670082
1.765809649951658,-0.03540051563243724
3.0444806752963642,-0.11510032070598894
3.146403728041232,-0.18151682493394108
2.8776974980774894,-0.22800837789351353
1.0060196203990066,-0.26785828043028614
-2.023874765743884,-0.2877832316986723
-3.469328968307465,-0.30106653254426546
-3.8492239830837907,-0.3077081829670588
-3.2098884704114377,-0.30106653254426546
-2.570552957739084,-0.29442488212147244
-1.7181056075092804,-0.2877832316986723
-0.9583155779566288,-0.27449993085308594
-0.6988750800606015,-0.26785828043028614
-0.6525464197220252,-0.2612166300074928
-0.5969520273157336,-0.254574979584693
-0.5784205631803031,-0.254574979584693
-0.5506233669771573,-0.254574979584693
-0.5506233669771573,-0.2612166300074928
-0.504294706638581,-0.27449993085308594
-0.504294706638581,-0.2877832316986723
-0.4857632425031505,-0.3077081829670588
-0.504294706638581,-0.32763313423544493
-0.504294706638581,-0.3475580855038379
-0.5320919028417268,-0.3608413863494242
-0.504294706638581,-0.3874079880406105
-0.4857632425031505,-0.41397458973179
-0.4579660463000047,-0.43389954100017614
-0.4394345821645742,-0.46046614269136243
-0.4116373859614284,-0.4936743948053417
-0.3653087256228521,-0.5202409964965212
-0.3375115294197063,-0.5468075981877075
-0.2448542087425537,-0.573374199878887
-0.1707283522008316,-0.5999408015700665
-0.031742371185102675,-0.6265074032612524
0.13504080603377203,-0.646432354529639
0.30182398325264675,-0.6663573057980251
0.5149358208100978,-0.6862822570664112
0.700250462164403,-0.7062072083347978
0.8948308355864235,-0.7261321596031839
1.0801454769407288,-0.7526987612943702
1.2005999938210272,-0.7726237125627563
1.3210545107013256,-0.7859070134083495
1.3859146351753324,-0.8058319646767359
1.339585974836756,-0.819115265522322
1.2191314579564576,-0.8323985663679151
1.0338168166021524,-0.8456818672135082
0.8485021752478472,-0.8523235176363015
0.6539218018258267,-0.8589651680591014
0.44080996426837565,-0.8589651680591014
0.30182398325264675,-0.8589651680591014
0.13504080603377203,-0.8656068184818947
0.04238348535661942,-0.8722484689046877
-0.031742371185102675,-0.8722484689046877
-0.05953956738824846,-0.8722484689046877
-0.12439969186225529,-0.8788901193274878
-0.12439969186225529,-0.8788901193274878
-0.12439969186225529,-0.8855317697502808
-0.12439969186225529,-0.8921734201730739
-0.12439969186225529,-0.898815070595874
-0.10586822772682476,-0.898815070595874
-0.10586822772682476,-0.898815070595874
-0.10586822772682476,-0.905456721018667
-0.07807103152367899,-0.9120983714414671
-0.07807103152367899,-0.9187400218642602
-0.05953956738824846,-0.9187400218642602
-0.05953956738824846,-0.8855317697502808
-0.031742371185102675,-0.8323985663679151
-0.031742371185102675,-0.7991903142539358
-0.013210907049672151,-0.7659820621399633
-0.031742371185102675,-0.7194905091803908
-0.031742371185102675,-0.653074004952432
-0.013210907049672151,-0.5534492486105005
-0.031742371185102675,-0.4405411914229763
-0.031742371185102675,-0.3077081829670588
-0.013210907049672151,-0.13502527197437544
-0.013210907049672151,0.07750754155508734
-0.013210907049672151,0.31660695677572925
-0.013210907049672151,0.5756313232647576
-0.013210907049672151,0.8346556897537857
0.014586289153473635,1.100321706665614
0.014586289153473635,1.3460627723090492
0.04238348535661942,1.5785205371068978
0.10724360983062625,1.7844117002135607
0.18136946637234835,1.9570946112062508
0.3666841077266536,2.083285969239369
0.5334672849455283,2.1696274247357135
0.6539218018258267,2.255968880232052
0.7280476583675488,2.3223853844600106
0.5334672849455283,2.368876937419583
0.39448130392979935,2.402085189533556
0.27402678704950095,2.415368490379149
0.18136946637234835,2.415368490379149
0.13504080603377203,2.3954435391107625
0.22769812671092465,2.3555936365739893
0.32035544738807725,2.3024604331916243
0.22769812671092465,2.2294022785408725
-0.031742371185102675,2.136419172621734
-0.12439969186225529,2.0434360667025957
-0.2448542087425537,1.9504529607834575
-0.29118286908113,1.8375449035959266
-0.3375115294197063,1.7113535455628088
-0.3375115294197063,1.5785205371068978
-0.3375115294197063,1.4456875286509874
-0.3375115294197063,1.3128545201950763
-0.3653087256228521,1.1733798613163657
-0.3375115294197063,1.0471885032832482
-0.12439969186225529,0.9209971452501312
1.1079426731438746,0.8014474376398129
2.72018005292633,0.7018226812978754
2.998152014957788,0.61548122580153
2.507068215368879,0.5490647215735782
2.080844540253977,0.48264821734561925
-0.5506233669771573,0.4295150139632538
-1.9497489092021618,0.3830234610036878
-3.0616367573279932,0.3498152088897085
-3.348874451427166,0.3232486071985222
-2.8485249197705422,0.29004035508454296
-2.236986603301335,0.26347375339336343
-1.2918819323943782,0.23690715170218432
-0.8378610610763304,0.21034055001099805
-0.6710778838574557,0.17713229789701837
-0.6525464197220252,0.1439240457830391
-0.5969520273157336,0.11071579366906661
-0.5784205631803031,0.08414919197788032
-0.504294706638581,0.04429928944110768
-0.504294706638581,0.004449386904335406
-0.4857632425031505,-0.03540051563243724
-0.4579660463000047,-0.08189206859200966
-0.4579660463000047,-0.1283836215515821
-0.4579660463000047,-0.1748751745111481
-0.4394345821645742,-0.22136672747072053
-0.4116373859614284,-0.26785828043028614
-0.3838401897582826,-0.32099148381265197
-0.3653087256228521,-0.3674830367722244
-0.3653087256228521,-0.40733293930899667
-0.3375115294197063,-0.4471828418457693
-0.29118286908113,-0.48703274438254196
-0.2448542087425537,-0.5335242973421144
-0.15219688806540108,-0.58001585030168
-0.031742371185102675,-0.6265074032612524
0.08871214569519573,-0.6663573057980251
0.25549532291407046,-0.7062072083347978
0.4130127680652299,-0.74605711087157
0.6075931414872504,-0.7859070134083495
0.8207049790447014,-0.819115265522322
1.0338168166021524,-0.8523235176363015
1.1728027976178814,-0.8855317697502808
1.339585974836756,-0.905456721018667
1.4322432955139086,-0.9253816722870535
1.4600404917170544,-0.9453066235554396
1.4137118313784782,-0.9652315748238258
1.2932573144981798,-0.991798176515012
1.1079426731438746,-1.0117231277833985
0.913362299721854,-1.0316480790517848
0.7280476583675488,-1.0449313798973778
0.5334672849455283,-1.058214680742971
0.32035544738807725,-1.064856331165764
0.19990093050777888,-1.0781396320113572
0.08871214569519573,-1.0847812824341503
-0.013210907049672151,-1.0847812824341503
-0.07807103152367899,-1.0847812824341503
-0.12439969186225529,-1.0914229328569436
-0.1707283522008316,-1.0980645832797435
-0.19852554840397738,-1.1047062337025366
-0.19852554840397738,-1.1113478841253297
-0.19852554840397738,-1.1179895345481299
-0.1707283522008316,-1.124631184970923
-0.1707283522008316,-1.1312728353937227
-0.19852554840397738,-1.137914485816516
-0.1707283522008316,-1.144556136239309
-0.15219688806540108,-1.151197786662109
-0.1707283522008316,-1.1578394370849023
-0.12439969186225529,-1.1578394370849023
