ECG,PPG
-0.05258123534884641,-3.147878400984077
-0.029612801469955943,1.0123806376791604
0.009530585844772881,1.4684590031065967
0.016647565356541758,0.3018302569641168
-0.001791881560313968,-0.14439179801203916
-0.0072913657284990096,0.30541436985549153
0.007266092363755512,0.6369448123076557
0.016000567219108225,0.37709662768298646
0.007266092363755512,0.06169469324200876
-0.0011448834228804338,0.11456035838978627
0.005001598882738142,0.33587932943217685
0.019235557906275895,0.2865977771757741
0.026999535555478307,0.07334306013897669
0.02441154300574417,0.011517112762762308
0.016971064425258527,0.13875312040656582
0.011471580257073484,0.14860943085784636
0.007266092363755512,0.0186853385455118
0.002413606333004005,-0.06554131440179474
-0.0024388796977475023,-0.00998756458548617
-0.0030858778351810366,0.0007647740886380685
0.002090107264287238,-0.06912542729316949
0.010177583982206416,-0.14976796734910128
0.01535356908167469,-0.13811960045213337
0.016000567219108225,-0.1560401649090071
0.01082458211963995,-0.1891932091542235
0.00014911285198663485,-0.2770039749929048
-0.013437848034117586,-0.3191173014665581
-0.022819321026903833,-0.3692948819458045
-0.0250838145079212,-0.3925916157397404
-0.027024808920221806,-0.4588977042301732
-0.03867077539402542,-0.4857785509154838
-0.05808071951703145,-0.5162435104921691
-0.07069718319698537,-0.5153474822693255
-0.07102068226570214,-0.5673171191942593
-0.0694031869221183,-0.5959900223252572
-0.07554966922773687,-0.633623207684692
-0.08234314967078898,-0.6291430665704737
-0.07652016643388718,-0.6560239132557842
-0.05969821486061529,-0.6470636310273474
-0.0457877549057943,-0.6524398003644095
-0.044817257699643995,-0.6363112923532231
-0.05452222976114701,-0.6784246188268764
-0.06681519437238416,-0.6999292961751249
-0.07490267109030334,-0.7348743968660287
-0.07619666736517042,-0.7375624815345597
-0.07457917202158658,-0.7850519773452751
-0.07749066364003748,-0.8092447393620547
-0.08816613290769079,-0.8477739529443332
-0.09884160217534411,-0.8513580658357079
-0.10240009193122855,-0.8961594769778923
-0.09851810310662734,-0.9185601825489844
-0.09366561707587584,-0.9597774807997941
-0.08881313104512432,-0.9651536501368562
-0.08040215525848839,-1.0063709483876657
-0.06616819623495063,-1.0269795975130704
-0.05225773628012964,-1.0717810086552548
-0.04514075676836077,-1.0798452626608481
-0.04417025956221046,-1.1183744762431265
-0.038347276325308655,-1.137191068922844
-0.022819321026903833,-1.1846805647335594
-0.001468382491597201,-1.1954329034076836
0.017941561631408826,-1.231274032321431
0.03767500482313162,-1.2465065121097738
0.06711342007635743,-1.2966840925890202
0.11143279249055453,-1.3101245159316754
0.16254564534780375,-1.343277560176892
0.2101000084491685,-1.3549259270738598
0.2505373920387644,-1.40599953577595
0.28838678307862614,-1.4239201002328237
0.3236481815687538,-1.4552810880323528
0.3492046079973784,-1.4624493138151022
0.35858608099016465,-1.514418950740036
0.3576155837840143,-1.5386117127568155
0.3569685856465808,-1.5708687287791883
0.3598800772650317,-1.5637005029964388
0.3611740735398988,-1.5852051803446874
0.3559980884404305,-1.5726607852248757
0.34823411079122807,-1.5807250392304688
0.3443521219666269,-1.574452841670563
0.3453226191727772,-1.6219423374812785
0.3459696173102107,-1.643447014829527
0.3417641294168927,-1.6766000590747434
0.3352941480425574,-1.6810802001889618
0.33108866014923943,-1.7312577806682083
0.3304416620118059,-1.7572425991306753
0.3272066713246382,-1.7939797562672664
0.31717820019441845,-1.7939797562672664
0.3022972430334471,-1.837885139186607
0.2906512765596435,-1.8674540705404485
0.28482829332274173,-1.912255481682633
0.2828872989104411,-1.9095673970141018
0.27965230822327347,-1.9427204412593184
0.2754468203299555,-1.97228937261316
0.27027083523048717,-2.0341153199893744
0.26412435292486863,-2.031427235320843
0.2534488836572153,-2.0242590095380937
0.2395384237023943,-1.9937940499614084
0.22562796374757332,-2.005442416858376
0.2188344833045212,-1.9615370339390357
0.21980498051067152,-1.9113594534597893
0.2278924572285907,-1.8396771956322944
0.23662693208394342,-1.8271328005124827
0.24600840507672966,-1.7706830224733305
0.2476259004203135,-1.694520623531617
0.2456849060080129,-1.5789329827847816
0.23856792649624403,-1.5278593740826913
0.23695043115266018,-1.4552810880323528
0.23662693208394342,-1.365678265747984
0.23500943674035957,-1.2061852420818078
0.22756895815987394,-1.082533347329379
0.2188344833045212,-0.9499211703485135
0.2133349991363362,-0.8415017553844274
0.20589452055585053,-0.6855928446096259
0.19974803825023196,-0.5700052038627903
0.20557102148713377,-0.45531359133879845
0.23209794512190868,-0.3782551641742414
0.27577031939867225,-0.24653901541621945
0.3404701331420257,-0.12647123355516543
0.4562827997426283,0.002556830534325442
0.6668806934772438,0.07423908836182037
0.992967754743745,0.18445055977159383
1.4089875571135075,0.28390969250724307
1.8337418343386227,0.39143307924848547
2.152711916093355,0.43444243394498244
2.276612059411877,0.5249412844521948
2.1928258006142345,0.6396328969761866
1.933703046572104,0.7919576948596134
1.5005377935603526,0.8690161220241704
0.8700381086313734,0.9514507185257897
0.10560980925365272,1.018652835239066
-0.5905601866248301,1.1172159397518717
-0.9981690132079568,1.147680899328557
-1.0541343520959574,1.1862101129108356
-0.8855913372945218,1.2095068467047714
-0.6701409575291549,1.2785010198637352
-0.49545146042210064,1.2955255560977652
-0.3502003785682722,1.3152381770003263
-0.21141927808877908,1.3035898101033585
-0.0969006077630435,1.3376388825714185
-0.04028827073760926,1.3349507979028876
-0.03867077539402542,1.3376388825714185
-0.05969821486061529,1.2892533585378594
-0.07716716457132071,1.2793970480865788
-0.09431261521330937,1.2471400320642063
-0.11339906026759863,1.239075778058613
-0.13119150904702082,1.185314084687992
-0.13313250345932143,1.167393520231118
-0.1256920248788358,1.133344447763058
-0.11436955747374894,1.1288643066488395
-0.10725257796198005,1.0670383592726251
-0.09916510124406087,1.0213409199075971
-0.08751913477025726,0.9505546903029459
-0.07619666736517042,0.924569871840479
-0.06519769902880033,0.864535980909952
-0.05711022231088115,0.8349670495561103
-0.0457877549057943,0.7829974126311765
-0.03317129122584038,0.778517271516958
-0.020554827545886462,0.741780114380367
-0.01052635641566668,0.7265476345920243
-0.0027623787664642695,0.6718899129985594
-0.0008213843541636666,0.6584494896559041
-0.006320868522348708,0.6279845300792187
-0.019260831271019394,0.6405289251990304
-0.035112285638140985,0.6217123325193129
-0.051934237211412874,0.6351527558619682
-0.0655211980975171,0.6199202760736255
-0.07619666736517042,0.6378408405304993
-0.08460764315180636,0.6217123325193129
-0.09754760590047704,0.6378408405304993
-0.11598705281733276,0.6226083607421566
-0.13863198762750648,0.6378408405304993
-0.15739493361307896,0.6208163042964693
-0.16968789822431612,0.6405289251990304
-0.17939287028581913,0.6270885018563751
-0.19395032837807366,0.6288805583020625
-0.2130367734323629,0.5795990060456596
-0.23244671755536894,0.5616784415887859
-0.24894517005992406,0.5258373126750384
-0.26609062070191275,0.5294214255664133
-0.2867945610997858,0.50433263532679
-0.3100864940473931,0.5204611433379763
-0.3320844307201332,0.5123968893323831
-0.35181787391185604,0.5213571715608201
-0.3689633245538447,0.47297164752726095
-0.38093279009636505,0.45325902662469986
-0.39063776215786805,0.41831392593379607
-0.40454822211268904,0.415625841265265
-0.42654615878542923,0.36544826078601855
-0.44854409545816937,0.341255498769239
-0.4572785703135221,0.3009342287412731
-0.44983809173303646,0.3018302569641168
-0.4330161401597646,0.2722613256102751
-0.41554719044905913,0.28480572073008675
-0.40228372863167167,0.27853352317018093
-0.3916082593640184,0.295558059404211
-0.37543330592818003,0.2561328175990888
-0.3459948906749542,0.23731622491937135
-0.30555750708535834,0.19968303955993652
-0.26350262815217856,0.19609892666856177
-0.2220947473564324,0.14950545908069005
-0.17389338611763408,0.1280007817324416
-0.11339906026759863,0.0858874552587883
-0.04837574745552844,0.08140731414456986
0.01082458211963995,0.03839795944807291
0.06129043683945563,0.0186853385455118
0.10852130087210363,-0.025220044373828843
0.15089967887400013,-0.03238827015657834
0.18324958574567685,-0.07360556840738793
0.20298302893739964,-0.09152613286426166
0.21527599354863677,-0.13811960045213337
0.2240104684039895,-0.14797591090341392
0.2298334516408913,-0.18650512448569245
0.23048044977832485,-0.20173760427403511
0.2269219600224404,-0.2501231283075942
0.2201284795793883,-0.25908341053603107
0.2130115000676194,-0.29850865234115326
0.2042770252122667,-0.3271815554721513
0.19295455780717985,-0.40692806730523934
0.1796910959897924,-0.44904139377889263
0.17095662113443968,-0.5019070589266702
0.17128012020315644,-0.525203792720606
0.17613260623390797,-0.5870297400968204
0.17516210902775767,-0.6085344174450689
0.1638396416226708,-0.6381033487989105
0.14507669563709832,-0.6416874616902852
0.12599025058280905,-0.6963451832837502
0.10658030645980303,-0.7205379453005297
0.08490586885577962,-0.751002904877215
0.0625844331143227,-0.7527949613229025
0.045438982472334036,-0.8065566546935237
0.03735150575441486,-0.8316454449331468
0.03379301599853042,-0.8647984891783632
0.026352537418044775,-0.865694517401207
0.011148081188356718,-0.916768126103297
-0.009232360140799612,-0.9436489727886077
-0.029612801469955943,-0.9803861299251988
-0.04449375863092723,-0.9794901017023552
-0.05258123534884641,-1.0260835692902268
-0.05355173255499671,-1.0538604441983812
-0.05031674186782904,-1.0977658271177217
-0.0496697437303955,-1.094181714226347
-0.05646322417344762,-1.1174784480202828
-0.07166768040313568,-1.1094141940146898
-0.0901071273199914,-1.1219585891345014
-0.1069290788932633,-1.103141996454784
-0.11857504536706691,-1.1309188713629381
-0.12278053326038488,-1.1533195769340303
-0.12083953884808428,-1.2070812703046516
-0.11534005467989923,-1.2097693549731827
-0.10951707144299742,-1.2267938912072127
-0.10369408820609562,-1.2178336089787758
-0.09787110496919381,-1.2465065121097738
-0.0939891161445926,-1.231274032321431
-0.09301861893844231,-1.2258978629843689
-0.09463611428202613,-1.1891607058477778
-0.09657710869432674,-1.1918487905163089
-0.09916510124406087,-1.1551116333797178
-0.10304709006866208,-1.1219585891345014
-0.10725257796198005,-1.0502763313070065
-0.10822307516813036,-1.022499456398852
-0.10531158354967946,-0.9669457065825435
-0.10240009193122855,-0.916768126103297
-0.10434108634352915,-0.8092447393620547
-0.11145806585529804,-0.7348743968660287
-0.1176045481609166,-0.6479596592501911
-0.1146930565424657,-0.5924059094338825
-0.10304709006866208,-0.4839864944697964
-0.09172462266357523,-0.39796778507680247
-0.08881313104512432,-0.3047808499010591
-0.08881313104512432,-0.2563953258675
-0.07975515712105485,-0.14707988268057023
-0.06163920927291589,-0.03149224193373465
-0.050963740005262576,0.10470404793850573
-0.057433721379597916,0.17549027754315696
-0.07102068226570214,0.2794295513930246
-0.07716716457132071,0.3797847123515175
-0.07684366550260395,0.49985249421257155
-0.07975515712105485,0.5464459618004432
-0.08687213663282373,0.6127520502908761
-0.08525464128923989,0.6745779976670905
-0.06778569157853447,0.7650768481743028
-0.043846760493493696,0.7901656384139261
-0.028965803332522407,0.8412392471160162
-0.028318805195088875,0.8941049122637936
-0.03284779215712361,0.9854997909938498
-0.030583298676106242,1.0159647505705351
-0.022819321026903833,1.0652463028269379
-0.01958433033973616,1.110047713969122
-0.028318805195088875,1.2068187620362403
-0.040611769806326026,1.2498281167327372
-0.0428762632873434,1.2928374714292343
-0.03220079401969008,1.2973176125434527
-0.01990782940845293,1.339430939017106
-0.016996337790002022,1.3376388825714185
-0.024113317301770902,1.339430939017106
-0.03123029681353978,1.2946295278749216
-0.033494790294557146,1.2856692456464847
-0.031877294950973314,1.2525162014012683
-0.03123029681353978,1.2426598909499877
-0.03252429308840685,1.1897942258022103
-0.03446528750070745,1.173665717791024
-0.035112285638140985,1.1378245888772764
-0.03446528750070745,1.1324484195402142
-0.03381828936327391,1.0742065850553746
-0.03543578470685775,1.0329892868045651
-0.03996477166889249,0.9622030571999138
-0.045464255837077534,0.9317380976232286
-0.048699246524245204,0.8690161220241704
-0.04999324279911227,0.8394471906703288
-0.05128723907397934,0.7901656384139261
-0.05646322417344762,0.7847894690768639
-0.068432689715968,0.7408840861575232
-0.08137265246463868,0.7077310419123068
-0.092048121732292,0.6279845300792187
-0.09140112359485847,0.5894553164969402
-0.08169615153335545,0.5339015666806316
-0.0635802036852165,0.5123968893323831
-0.0467582521119446,0.4523629984018562
-0.03155379588225655,0.432650377499295
-0.01829033406486909,0.40039336147692234
-0.005997369453631941,0.41114570015104657
0.003384103539154306,0.3905370510256418
0.00014911285198663485,0.4075615872596718
-0.009232360140799612,0.3941211639170165
-0.011496853621816983,0.386952938134267
0.01082458211963995,0.3134786238610847
0.05740844801485442,0.26330104338183824
0.1263137496515258,0.20326715245131124
0.23565643487779311,0.1934108420000307
0.42910887797041986,0.15936176953197062
0.7354624960451983,0.1683220517604075
1.122043883161735,0.1602577977548143
1.4911563205675664,0.1736982210974696
1.7405741025481938,0.1280007817324416
1.8340653334073396,0.10380801971566203
1.8033329218792467,0.06348674968769613
1.6629343260561698,0.06707086257907088
1.3504342256757726,0.04108604411660397
0.7875458461085979,0.05183838279072821
0.020853053249859733,0.04377412878513503
-0.733870274066358,0.059902636796321386
-1.2220303687599596,0.020477394991199174
-1.3469010092846319,-0.00013125413420561816
-1.217501381797925,-0.041348552385015204
-1.020166949880697,-0.04403663705354627
-0.851947434147978,-0.07360556840738793
-0.6940798886141957,-0.06285322973326368
-0.5129204101328061,-0.07002145551601317
-0.3398484083693356,-0.05210089105913945
-0.233740713830236,-0.0879420199728869
-0.2081842874016114,-0.10496655620691696
-0.22177124828771563,-0.14528782623488284
-0.23050572314306833,-0.150663995571945
-0.22662373431846713,-0.19367335026844193
-0.21983025387541502,-0.21338597117100305
-0.2211242501502821,-0.2581873823131874
-0.2259767361810336,-0.2653556080959369
-0.2317997194179354,-0.3047808499010591
-0.23050572314306833,-0.3235974425807765
-0.2230652445625827,-0.3719829666143356
-0.21562476598209704,-0.38183927706561616
-0.21594826505081383,-0.4176804059793636
-0.22921172686820127,-0.43291288576770626
-0.247651173785057,-0.48309046624695273
-0.2683551141829301,-0.496530889589608
-0.28355957041261814,-0.5296839338348245
-0.2955290359551385,-0.5413323007317924
-0.3019990173294739,-0.5933019376567262
-0.3039400117417745,-0.6094304456679126
-0.2987640266423062,-0.6416874616902852
-0.290676549924387,-0.6488556874730348
-0.2845300676187685,-0.7017213526208123
-0.285177065756202,-0.7232260299690607
-0.290676549924387,-0.7554830459914335
-0.29941102477973974,-0.7590671588828082
-0.304587009879208,-0.8101407675848984
-0.3052340080166415,-0.8370216142702089
-0.299087525711023,-0.8737587714068001
-0.29035305085567026,-0.8647984891783632
-0.2812950769316008,-0.885407138303768
-0.27773658717571637,-0.8755508278524875
-0.2803245797254505,-0.8880952229722991
-0.28905905458080317,-0.8755508278524875
-0.2977935294361559,-0.9140800414347661
-0.3065280042915086,-0.9409608881200766
-0.31687997449044514,-0.988450383930792
-0.33596641954473444,-0.9830742145937299
-0.3605523487672087,-0.9965146379363852
-0.3861087751958333,-0.9902424403764793
-0.4051952202501226,-1.01712328706179
-0.42298766902954477,-0.9947225814906978
-0.4440151084961346,-0.9938265532678542
-0.46924803585604247,-0.9848662710394173
-0.4889814790477653,-1.0242915128445396
-0.49836295204055153,-1.0018908072734474
-0.5025684399338695,-0.9669457065825435
-0.5151849036138234,-0.902431674537798
-0.5368593412178468,-0.8925753640865175
-0.5565927844095696,-0.8307494167103031
-0.5637097639213385,-0.7501068766543714
-0.5627392667151881,-0.633623207684692
-0.5604747732341708,-0.5861337118739767
-0.5562692853408528,-0.510867341155107
-0.5452703170044828,-0.42216054709358203
-0.5313598570496618,-0.27879603143859216
-0.5197138905758582,-0.1900892373770672
-0.5093619203769216,-0.08614996352719954
-0.49221646973493294,0.008829028094231249
-0.4653660470314413,0.15756971308628323
-0.4356041327094987,0.2597169304904635
-0.41069470441830763,0.3717204583459243
-0.389343765883001,0.45325902662469986
-0.3654048347979602,0.5778069495999723
-0.33402542513243383,0.6620336025472788
-0.2939115406115547,0.7525324530544912
-0.2437691849604558,0.804502089979425
-0.1806868665606862,0.9084413638292926
-0.10531158354967946,0.9944600732222866
-0.02799530612637211,1.0957112624036232
0.03896900109799869,1.1440967864371823
0.08846435861166406,1.2372837216129258
0.12469625430794198,1.3250944874516069
0.15445816862988457,1.439786099975599
0.1835730848143936,1.488171624009158
0.21107050565531882,1.556269768945278
0.23533293580907635,1.6118235187615868
0.25086089110748117,1.7041144257144865
0.2560368762069494,1.7363714417368592
0.2515078892449147,1.7731085988734503
0.242773414389562,1.7749006553191378
0.23436243860292605,1.8107417842328852
0.2278924572285907,1.7973013608902297
0.22045197864810506,1.7973013608902297
0.20880601217430145,1.7722125706506067
0.1926310587384631,1.8017815020044483
0.17613260623390797,1.8008854737816047
0.162222146279087,1.7990934173359172
0.15025268073656659,1.728307187731266
0.1382832151940462,1.6861938612576126
0.12599025058280905,1.627952026772773
0.11434428410900543,1.6037592647559935
0.10366881484135212,1.5356611198198733
0.09202284836754851,1.5078842449117191
0.07908288561887782,1.4702510595522842
0.0674369191450742,1.4720431159979717
0.05934944242715502,1.4245536201872562
0.05417345732768675,1.4012568863933204
0.04932097129693524,1.3573515034739796
0.04705647781591787,1.3573515034739796
0.04770347595335141,1.3143421487774827
0.055143954533837046,1.293733499652078
0.05805544615228796,1.2435559191728314
0.055143954533837046,1.2381797498357694
0.043174488991316665,1.207714790259084
0.03444001413596395,1.2184671289332083
0.028940529967778912,1.2041306773677092
0.026352537418044775,1.2238432982702703
0.023764544868310637,1.1978584798078034
0.022794047662160335,1.1888981975793667
0.02667603648676154,1.1378245888772764
0.02991102717392921,1.1261762219803084
0.03638100854826456,1.093023177735092
0.05643795080870412,1.1028794881863726
0.09719883346701677,1.0858549519523426
0.1541346695611678,1.1055675728549037
0.23597993394650987,1.0867509801751862
0.3812310158003383,1.0822708390609679
0.6390597735676018,1.0320932585817215
1.0156126895539186,1.0204448916847535
1.44877794256567,0.9863958192166934
1.8256543576207036,0.9783315652111002
2.038840243905053,0.9227778153947916
2.0427222327296546,0.9057532791607616
1.8651212440041491,0.8726002349155452
1.5425926724935324,0.8690161220241704
1.0579910675558153,0.8143584004307055
0.39255348320542516,0.7919576948596134
-0.34922988136212185,0.7552205377230222
-0.936704190151771,0.7632847917286154
-1.1861219721323986,0.7381960014889922
-1.1181871677018773,0.7525324530544912
-0.9072657748985452,0.7435721708260543
-0.7041083597444154,0.7543245095001786
-0.5433293225921821,0.7059389854666195
-0.40098973235680463,0.6853303363412147
-0.2751485946259822,0.6503852356503109
-0.1913623358283395,0.6485931792046236
-0.16127692243768016,0.5975195705025333
-0.16224741964383046,0.5742228367085975
-0.16548241033099814,0.5339015666806316
-0.15868892988794603,0.5347975949034753
-0.15286594665104422,0.50433263532679
-0.14898395782644303,0.5168770304466016
-0.1460724662079921,0.5123968893323831
-0.1353969969403388,0.5294214255664133
-0.12278053326038488,0.4873080990927599
-0.10822307516813036,0.46938753463588617
-0.09722410683176028,0.4335464057221387
-0.09334211800715907,0.429962292830764
-0.09593011055689321,0.3797847123515175
-0.09819460403791058,0.35828003500326905
-0.08687213663282373,0.3215428778666779
-0.06616819623495063,0.3179587649753031
-0.044817257699643995,0.26240501515899456
-0.03284779215712361,0.21849963223965393
-0.030259799607389476,0.146817374412159
-0.03220079401969008,0.11635241483547365
-0.033494790294557146,0.05721455212779033
-0.03478878656942422,0.027645620773948668
-0.038347276325308655,-0.025220044373828843
-0.0457877549057943,-0.033284298379422025
-0.054198730692430246,-0.06912542729316949
-0.06196270834163266,-0.08346187885866847
-0.06875618878468477,-0.13453548756075862
-0.07684366550260395,-0.14707988268057023
-0.08493114222052313,-0.18112895514863034
-0.08946012918255786,-0.19277732204559825
-0.0891366301138411,-0.24474695897053209
-0.0871956357015405,-0.25997943875887475
-0.08784263383897403,-0.2922364547812475
-0.09334211800715907,-0.30209276523252804
-0.0998120993814944,-0.35495843038030556
-0.10369408820609562,-0.3701909101686482
-0.10401758727481239,-0.40244792619102093
-0.10531158354967946,-0.42126451887073835
-0.11372255933631539,-0.5019070589266702
-0.13119150904702082,-0.5511886111830729
-0.15189544944489392,-0.6049503045536941
-0.16548241033099814,-0.6246629254562552
-0.1667764066058652,-0.6900729857238443
-0.15836543081922927,-0.7187458888548424
-0.14963095596387654,-0.7474187919858403
-0.1451019690018418,-0.7474187919858403
-0.14057298203980706,-0.8020765135793052
-0.12730952022241962,-0.8289573602646158
-0.10660557982454652,-0.8612143762869885
-0.08751913477025726,-0.8612143762869885
-0.07749066364003748,-0.9131840132119223
-0.07231467854056921,-0.940064859897233
-0.0635802036852165,-0.9732179041424494
-0.04740525024937813,-0.974113932365293
-0.027348307988938572,-1.0242915128445396
-0.007614864797215777,-1.0493803030841626
0.011471580257073484,-1.0834293755522229
0.030881524380079513,-1.08522143199791
0.05482045546512028,-1.1345029842543128
0.08684686326808023,-1.1586957462710925
0.12696074778895935,-1.19453687518484
0.1686921276534223,-1.1981209880762147
0.2081590140368679,-1.2465065121097738
0.24600840507672966,-1.2698032459037096
0.28256379984172436,-1.3047483465946135
0.31232571416366695,-1.3092284877088318
0.3307651610805227,-1.3647822375251404
0.3382056396610083,-1.4095836486673248
0.3375586415235748,-1.4785778218262886
0.32882416666822206,-1.5108348378486613
0.31297271230110046,-1.5699727005563446
0.29712125793397887,-1.6022297165787174
0.28612228959760877,-1.6497192123894329
0.27868181101712314,-1.6568874381721823
0.26897683895562013,-1.6981047364229918
0.256683874344383,-1.7339458653367392
0.2437439115957123,-1.8110042925012964
0.23209794512190868,-1.852221590752106
0.2201284795793883,-1.9050872558998835
0.2084825131055847,-1.9301760461395068
0.1984540419753649,-1.9875218524015026
0.19230755966974633,-2.009026529749751
0.1893960680512954,-2.037699432880749
0.18874906991386187,-2.031427235320843
0.18680807550156128,-2.0502438280005606
0.18195558947080978,-2.0341153199893744
0.1738681127528906,-2.0439716304406548
0.1670746323098385,-2.055619997337623
0.1638396416226708,-2.1281982833879614
0.16416314069138757,-2.178375863867208
0.16481013882882112,-2.232137557237829
0.16610413510368818,-2.2536422345860774
0.16901562672213907,-2.315468181962292
0.17613260623390797,-2.3459331415389775
0.18422008295182715,-2.37819015756135
0.19166056153231278,-2.377294129338506
0.19780704383793135,-2.4238875969263782
0.20654151869328408,-2.455248584725907
0.21786398609837093,-2.496465882976717
0.23015695070960807,-2.492881770085342
0.23921492463367755,-2.529618927221933
0.2456849060080129,-2.563667999689993
0.2505373920387644,-2.618325721283458
0.25377238272593206,-2.6111574955007084
0.25441938086336563,-2.615637636614927
0.2534488836572153,-2.6138455801692397
0.25215488738234826,-2.6541668501972056
0.2511843901761979,-2.629974088180426
0.252478386451065,-2.5914448745981473
0.2583013696879668,-2.530514955444777
0.26768284268075304,-2.52155467321634
0.2741528240550884,-2.4597287258401255
0.2699473361617704,-2.3737100164471316
0.2553898780695159,-2.259914432145983
0.23662693208394342,-2.2169050774494865
0.22045197864810506,-2.1416387067306166
0.205247522418417,-2.0448676586634984
0.1874550736389948,-1.9023991712313524
0.16642763417240494,-1.8226526593982644
0.15057617980528334,-1.7222974984397714
0.14087120774378034,-1.6085019141386232
0.1324602319571444,-1.437360523575479
0.11984376827719048,-1.3163967134915813
0.10852130087210363,-1.1882646776249342
0.10172782042905151,-1.0699889522095676
0.10011032508546769,-0.8925753640865175
0.09687533439830001,-0.7536909895457461
0.09558133812343295,-0.616598671450662
0.09655183532958324,-0.5126593976007944
0.10399231391006888,-0.34779020459755605
0.10755080366595332,-0.19546540671412932
0.1117562915592713,-0.04224458060785889
0.1166087775900228,0.05004632634504084
0.1353717235755953,0.1871386444401249
0.15866365652320252,0.31885479319814686
0.18422008295182715,0.4559471112932309
0.2033065280061164,0.5231492280065074
0.23306844232805898,0.6423209816447177
0.27447632312380515,0.7910616666367697
0.33658814431742445,0.9765395087654128
0.40840493757254676,1.0742065850553746
0.49898467681324155,1.1691855766768056
0.5966813955657052,1.2489320885098936
0.7089355724104235,1.3537673905826049
0.8334827138663788,1.3833363219364465
1.005260719354982,1.416489366181663
1.233327562800303,1.439786099975599
1.519300739545925,1.5123643860259375
1.8120673967345995,1.5293889222599675
2.0841301135254007,1.5473094867168413
2.3021684858405016,1.5356611198198733
2.4775049810849894,1.5706062205107771
2.6094926011214303,1.567918135842246
2.7401862248830042,1.5697101922879335
2.89870076855422,1.522220696477218
3.1164156418006046,1.5123643860259375
3.3629219321627812,1.4792113417807211
3.5851657923712,1.4711470877751278
3.744003835111133,1.419177450850194
3.8776089504911577,1.4012568863933204
4.064267913140732,1.3627276728110418
4.32468466345773,1.3582475316968234
4.57377894636964,1.3098620076632643
4.716765534742452,1.2910454149835469
4.791170320547308,1.2489320885098936
4.952272856768258,1.2462440038413625
5.288388389164979,1.1942743669164286
5.696320714816823,1.1530570686656192
5.987469876661913,1.073310556832531
6.09584206468203,1.039261484364471
6.109105526499417,0.9908759603309119
6.096165563750747,0.9908759603309119
5.9437975023851495,0.967579226536976
5.458548899309998,0.9828117063253187
4.592218393286497,0.9684752547598197
3.536640932063685,0.9872918474395371
2.5383228060037415,0.9693712829826634
1.7085476947452338,0.984603762771006
1.006554715629849,0.9684752547598197
0.3990234645797605,0.9863958192166934
-0.08654863756410695,0.970267311205507
-0.4013132314255214,0.9872918474395371
-0.5656507583336391,0.9720593676511944
-0.6358500562451775,0.9863958192166934
-0.6804929277280914,0.9693712829826634
-0.7212538103864041,0.9890839038852245
-0.7620146930447168,0.9765395087654128
-0.7830421325113066,0.9783315652111002
-0.795011598053827,0.9281539847318537
-0.8060105663901971,0.91023342027498
-0.8322139909562553,0.8743922913612325
-0.8542119276289953,0.878872432475451
-0.8739453708207182,0.8528876140129841
-0.8875323317068224,0.8690161220241704
-0.9098537674482794,0.861847896241421
-0.9286167134338519,0.8699121502470142
-0.9467326612819907,0.8206305979906113
-0.9654956072675633,0.801814005310894
-0.9920225309023382,0.7677649328428339
-1.0211374470868473,0.7650768481743028
-1.0405473912098533,0.7122111830265253
-1.0567223446456917,0.6898104774554331
-1.0767792869061312,0.6530733203188419
-1.1133346816711258,0.6521772920959983
-1.1579775531540397,0.6037917680624392
-1.2110314004235896,0.5804950342685034
-1.2611737560746885,0.5383817077948501
-1.314551102412955,0.5374856795720064
-1.368898945957372,0.5079167482181647
-1.43812774666276,0.518669086892289
-1.5141500278112003,0.5106048328866958
-1.5979362866088431,0.5294214255664133
-1.675899562169584,0.49358029665266573
-1.7570978284174925,0.4765557604186357
-1.8363551002531004,0.43444243394498244
-1.9185238637071593,0.43085832105360766
-1.9893701597561313,0.386952938134267
-2.0573049641866525,0.3681363454545496
-2.1210342807238556,0.3224389060895216
-2.1951155674599954,0.3152706803067721
-2.2691968541961347,0.2758454385016499
-2.3471601297568756,0.25882090226761983
-2.417682926737131,0.20953935001121707
-2.491440714404554,0.19968303955993652
-2.5613165132473754,0.16294588242334535
-2.632162809296348,0.14950545908069005
-2.691363138871516,0.09843185037859992
-2.748298974965667,0.08499142703594462
-2.80005882596035,0.05004632634504084
-2.856994662054501,0.04108604411660397
-2.9061665204994496,-0.010883592808329859
-2.9466039040890455,-0.030596213710890965
-2.971836831448953,-0.06374925795610738
-2.996746259740144,-0.054788975727670504
-3.0168032020005837,-0.0745015966302316
-3.0320076582302717,-0.05658103217335788
-3.0320076582302717,-0.07002145551601317
-3.028772667543104,-0.07808570952160636
-3.0197146936190347,-0.15156002379478867
-3.006774730870364,-0.20173760427403511
-2.9770128165484215,-0.2617714952045621
-2.9391634255085597,-0.27162780565584266
-2.8919325614759117,-0.30567687812390276
-2.841790205824813,-0.2967165958954659
-2.7767668930127427,-0.30567687812390276
-2.701068110933019,-0.2922364547812475
-2.609517874486174,-0.33614183770058814
-2.506645170634242,-0.3612306279402113
-2.3859800180028876,-0.40244792619102093
-2.2585213849284815,-0.3997598415224899
-2.1268572639607575,-0.44097713977329944
-2.001016126229935,-0.4696500429042974
-1.8738809922242454,-0.525203792720606
-1.7477163554247062,-0.5180355669378565
-1.6121702456323808,-0.5171395387150128
-1.4717716498093039,-0.48309046624695273
-1.324256074474458,-0.48309046624695273
-1.1848279758575313,-0.4382890551047684
-1.0515463595462233,-0.4114082084194578
-0.9292637115712854,-0.36660679727727347
-0.808922058008648,-0.37108693839149187
-0.6999028718510975,-0.330765668363526
-0.60058865775505,-0.29044439833556007
-0.5168023989574072,-0.2160740558395341
-0.43722162805308257,-0.19277732204559825
-0.36411083852309317,-0.13363945933791493
-0.29132354806182054,-0.07987776596729373
-0.2259767361810336,0.007036971648543875
-0.1661294084684317,0.03570987477954185
-0.11857504536706691,0.08947156815016305
-0.07716716457132071,0.1414412050750969
-0.04352326142477693,0.2534447329305577
-0.01182035269053375,0.32691904720374
0.013412574669374087,0.4138337848195776
0.03379301599853042,0.46669944996735513
0.04705647781591787,0.5545102158060364
0.06064343870202209,0.6028957398395955
0.07390690051940954,0.6683058001071847
0.08975835488653114,0.69877075968387
0.10269831763520182,0.7740371304027397
0.1136972859715719,0.8251107391048298
0.12113776455205755,0.8994810816008558
0.12501975337665874,0.9272579565090101
0.12404925617050845,0.9801236216567876
0.12210826175820785,1.0052124118964108
0.12307875896435815,1.058974105267032
0.12696074778895935,1.0661423310497815
0.1276077459263929,1.0921271495122484
0.12210826175820785,1.0831668672838115
0.11499128224643897,1.1082556575234348
0.1127267887654216,1.093919205957936
0.11499128224643897,1.101983459963529
0.12049076641462401,1.0804787826152804
0.12954874033869349,1.10467154463206
0.14087120774378034,1.0983993470721543
0.14863518539298276,1.1010874317406854
0.1470176900493989,1.0500138230385951
0.13893021333147973,1.0356773714730962
0.134401226369445,1.0034203554507235
0.1382832151940462,0.9980441861136613
0.14442969749966478,0.9424904362973527
0.14507669563709832,0.9218817871719479
0.13990071053763004,0.8878327147038879
0.134401226369445,0.8860406582582004
0.13084273661356055,0.8340710213332667
0.12599025058280905,0.8116703157621745
0.11919677013975695,0.7749331586255833
0.11596177945258927,0.7740371304027397
0.11887327107104018,0.7256516063691806
0.12243176082692461,0.7032509007980884
0.12049076641462401,0.6620336025472788
0.11466778317772221,0.6602415461015915
0.11110929342183777,0.6145441067365635
0.11143279249055453,0.5939354576111586
0.11110929342183777,0.5491340464689743
0.10852130087210363,0.5455499335775995
0.10399231391006888,0.50433263532679
0.09784583160445032,0.48551604264707254
0.09040535302396467,0.4371305186135135
0.08393537164962933,0.429962292830764
0.07908288561887782,0.39232910747132915
0.07455389865684307,0.37709662768298646
0.06711342007635743,0.32423096253520894
0.059996440564588555,0.31079053919255367
0.059996440564588555,0.2794295513930246
0.07067190983224188,0.29018189006714884
0.08587636606192993,0.2731573538331188
0.0959048371921497,0.29018189006714884
0.0959048371921497,0.2722613256102751
0.0910523511613982,0.27046926916458774
0.08878785768038083,0.2202916886853413
0.0910523511613982,0.20326715245131124
0.09169934929883174,0.16921807998325117
0.0852293679244964,0.17817836221168804
0.07358340145069278,0.15756971308628323
0.06355493032047299,0.1736982210974696
0.059996440564588555,0.1602577977548143
0.0625844331143227,0.16473793886903274
0.06581942380149036,0.11724844305831733
0.0645254275266233,0.09574376571006886
0.05740844801485442,0.05811058035063402
0.04770347595335141,0.06438277791053983
0.03896900109799869,0.04377412878513503
0.03379301599853042,0.05452646745925927
0.03346951692981365,0.04108604411660397
0.038322002960565156,0.05811058035063402
0.04349798806003343,0.040190015893760284
0.043174488991316665,0.05452646745925927
0.036704507616981324,0.04198207233944765
0.03152852251751305,0.05721455212779033
0.03476351320468072,0.03660590300238554
0.04608598060976757,0.052734411013571895
0.05967294149587179,0.046462213453666086
0.07099540890095864,0.059902636796321386
0.07714189120657722,0.017789310322668114
0.07843588748144428,-0.0010272823570493049
0.07649489306914369,-0.03866046771648415
0.07681839213786044,-0.041348552385015204
0.08102388003117843,-0.08614996352719954
0.08619986513064669,-0.10855066909829171
0.087170362336797,-0.1542481084633197
0.08458236978706286,-0.15872824957753814
0.08264137537476225,-0.18740115270853613
0.08587636606192993,-0.1775448422572556
0.09266984650498204,-0.1891932091542235
0.09881632881060061,-0.17037661647450608
0.10172782042905151,-0.19815349138266036
0.10075732322290122,-0.21159391472531566
0.09622833626086648,-0.25997943875887475
0.0891113567490976,-0.270731777432999
0.08134737909989519,-0.30119673700968436
0.07552439586299338,-0.29313248300409117
0.07358340145069278,-0.3074689345695901
0.07455389865684307,-0.2895483701127164
0.07552439586299338,-0.3101570192381212
0.07714189120657722,-0.31732524502087067
0.08328837351219578,-0.36660679727727347
0.09525783905471617,-0.38183927706561616
0.1059333083223695,-0.41409629308798884
0.10819780180338687,-0.40692806730523934
0.10366881484135212,-0.42484863176211307
0.10237481856648505,-0.40692806730523934
0.10755080366595332,-0.42036849064789467
0.11143279249055453,-0.42126451887073835
0.10690380552851979,-0.4714420993499848
0.09784583160445032,-0.4884666355840149
0.0900818539552479,-0.5207236516063876
0.08393537164962933,-0.5269958491662934
0.07552439586299338,-0.5798615143140708
0.06905441448865804,-0.6031582481080068
0.06873091541994127,-0.6381033487989105
0.07196590610710894,-0.6318311512390047
0.07196590610710894,-0.6560239132557842
0.0693779135573748,-0.6434795181359726
0.06776041821379097,-0.6506477439187222
0.0703484107635251,-0.6416874616902852
0.07261290424454248,-0.6873849010553132
0.07358340145069278,-0.7097856066264054
0.06970141262609157,-0.7456267355401529
0.06614292287020714,-0.7474187919858403
0.06031993963330532,-0.7949082877965556
0.05870244428972149,-0.8208931062590226
0.05870244428972149,-0.8630064327326759
0.06581942380149036,-0.8621104045098322
0.07325990238197601,-0.885407138303768
0.08037688189374488,-0.8764468560753311
0.08425887071834609,-0.8889912511951428
0.08361187258091256,-0.8719667149611128
0.08264137537476225,-0.8889912511951428
0.08134737909989519,-0.8764468560753311
0.08619986513064669,-0.8845111100809243
0.10140432136033475,-0.868382602069738
0.1373127179878959,-0.8988475616464233
0.19780704383793135,-0.916768126103297
0.2893572802847765,-0.9633615936911688
0.4365493565509055,-0.9705298194739183
0.6807911534320648,-0.9983066943820725
1.0343756355394913,-0.9911384685993231
1.4313089928549645,-1.0045788919419785
1.751573070884564,-0.985762299262261
1.918175091273699,-1.0081630048333532
1.945996011183341,-1.019811371730321
1.8754732142030857,-1.0717810086552548
1.6668163148807709,-1.086117460220754
1.2152116149521641,-1.1138943351289081
0.49413219078249004,-1.103141996454784
-0.3272319446893817,-1.1237506455801887
-0.9674366016798639,-1.1121022786832209
-1.2472632961198675,-1.1246466738030323
-1.213295893904607,-1.1022459682319403
-1.0460468753780383,-1.1192705044659703
-0.8781508587140362,-1.1147903633517517
-0.7274002926920227,-1.1300228431400945
-0.564356762058772,-1.0888055448892848
-0.39096126122658487,-1.077157177992317
-0.24635717751018993,-1.057444557089756
-0.16709990567458197,-1.0565485288669123
-0.15448344199462805,-0.9436489727886077
-0.17486388332378439,-0.7805718362310567
-0.186509849797588,-0.5906138529881951
-0.17939287028581913,-0.479506353355578
-0.1677469038120155,-0.3352458094777444
-0.16968789822431612,-0.18829718093137982
-0.17389338611763408,-0.0350763548251094
-0.16968789822431612,0.02674959255110498
-0.15577743826949514,0.11993652772684839
-0.14283747552082443,0.23014799913662184
-0.129574013703437,0.3609681196718001
-0.11113456678658126,0.39949733325407866
-0.09463611428202613,0.4675954781901988
-0.08525464128923989,0.5733268084857539
-0.08946012918255786,0.7364039450433049
-0.10013559845021118,0.8206305979906113
-0.11663405095476631,0.9048572509379179
-0.13377950159675497,0.9792275934339439
-0.1502779541013101,1.0867509801751862
-0.16386491498741432,1.1208000526432464
-0.1797163693545359,1.1638094073397434
-0.20009681068369223,1.2059227338133967
-0.2220947473564324,1.3035898101033585
-0.23956369706713782,1.3492872494683865
-0.25315065795324204,1.3976727735019456
-0.26576712163319594,1.411113196844601
-0.28064807879416726,1.4550185797639414
-0.294882037817705,1.447850353981192
-0.3084689987038092,1.4541225515410978
-0.31817397076531223,1.4299297895243184
-0.3243204530709308,1.450538438649723
-0.3252909502770811,1.4433702128669736
-0.32561444934579786,1.45949872087816
-0.32884944003296557,1.4290337613014745
-0.3369369167508847,1.419177450850194
-0.34696538788110454,1.373480011485166
-0.35667035994260754,1.3645197292567293
-0.36637533200411054,1.3250944874516069
-0.3812562891650818,1.310758035886108
-0.40228372863167167,1.2596844271840177
-0.42719315692286275,1.2489320885098936
-0.4456326038397185,1.2139869878189897
-0.4530730824202041,1.2032346491448656
-0.44854409545816937,1.1485769275514006
-0.44239761315255083,1.1351365042087453
-0.4433681103587011,1.101983459963529
-0.4553375759012215,1.0957112624036232
-0.47248302654321017,1.0401575125873146
-0.48736398370418144,1.022236948130441
-0.49609845855953416,0.9881878756623808
-0.5009509445902857,0.984603762771006
-0.5015979427277192,0.9299460411775411
-0.49480446228466707,0.9084413638292926
-0.47636501536781134,0.8734962631383889
-0.45113208800790355,0.8743922913612325
-0.42848715319772984,0.8224226544362987
-0.4158706895177759,0.7964378359738318
-0.4090772090747238,0.756116565945866
-0.40098973235680463,0.7641808199514591
-0.38707927240198364,0.7399880579346796
-0.37122781803486204,0.7507403966088038
-0.35667035994260754,0.7381960014889922
-0.3417894027816362,0.7543245095001786
-0.32011496517761284,0.7148992676950563
-0.2919705461992541,0.6924985621239642
-0.25929714025886064,0.6441130380904051
-0.2259767361810336,0.6476971509817798
-0.18909784234732213,0.6270885018563751
-0.14736646248285917,0.6378408405304993
-0.10207659286251178,0.6163361631822508
-0.05937471579189852,0.6351527558619682
-0.020231328477169696,0.6333606994162808
0.016647565356541758,0.6736819694442467
0.05320296012153645,0.6853303363412147
0.08425887071834609,0.7274436628148679
0.10399231391006888,0.7310277757062427
0.1117562915592713,0.7570125941687096
0.11434428410900543,0.7390920297118359
0.1166087775900228,0.7507403966088038
0.1185497720023234,0.741780114380367
0.11693227665873958,0.7803093279626455
0.1136972859715719,0.7937497513053008
0.1127267887654216,0.8376551342246414
0.11531478131515574,0.8403432188931724
0.11887327107104018,0.8681200938013267
0.11822627293360664,0.8564717269043588
0.11790277386488987,0.8726002349155452
0.11628527852130605,0.8528876140129841
0.11628527852130605,0.8663280373556393
0.11143279249055453,0.8528876140129841
0.10560980925365272,0.8752883195840763
0.09978682601675092,0.8564717269043588
0.09881632881060061,0.8493035011216093
0.10108082229161798,0.7991259206423629
0.10755080366595332,0.7892696101910823
0.12049076641462401,0.7552205377230222
0.13472472543816177,0.7453642272717417
0.14992918166784983,0.6898104774554331
0.17192711834059,0.6736819694442467
0.21592299168607032,0.6423209816447177
