ECG,PPG
-0.02034318598666391,1.4113112678842406
0.0400727723959997,1.2233811328629844
0.003823197366400267,1.0012818823833176
0.06423915574906387,0.7791826319036507
0.0400727723959997,0.6425061700700083
0.16090468916132075,0.55281224199168
-0.15325829442851407,0.4460337561841486
0.06423915574906387,0.3477975492412207
0.12465511413172133,0.2794593183243993
0.2213206475439782,0.24529020286598857
0.2575702225735775,0.2282056451367854
0.19715426419091386,0.23674792400138941
0.16090468916132075,0.2794593183243993
0.2575702225735775,0.3477975492412207
0.2213206475439782,0.4332203378872448
0.12465511413172133,0.55281224199168
0.2575702225735775,0.7279289587160324
0.12465511413172133,0.962841627492607
0.12465511413172133,1.2105677145660811
0.0400727723959997,1.3942267101550332
0.06423915574906387,1.4881917776656612
-0.2982565945468993,1.5309031719886754
-0.35867255292955674,1.556530008582482
0.9946449148420331,1.569343426879386
2.662125366203451,1.5736145663116896
3.9308604922393195,1.5778857057439895
3.713363042061742,1.5778857057439895
2.8554564330279653,1.5778857057439895
0.9704785314889687,1.5778857057439895
-0.27409021119383514,1.5778857057439895
-0.7936674532847119,1.5778857057439895
-0.986998520109225,1.5778857057439895
-0.7695010699316478,1.5778857057439895
-0.7936674532847119,1.2233811328629844
-0.7936674532847119,0.6809464249607183
-0.7936674532847119,0.38196666469963136
-0.7695010699316478,0.19830766911067452
-0.8299170283143082,0.06590234670933638
-0.8540834116673727,-0.03660499966589572
-0.9265825617265646,-0.1305700671765238
-0.9507489450796288,-0.22453513468715144
-1.0111649034622887,-0.309957923333176
-0.986998520109225,-0.38256729368229675
-1.0715808618449492,-0.44236324573451463
-1.0111649034622887,-0.5149726160836398
-0.9265825617265646,-0.5875819864327605
-1.047414478491885,-0.6559202173495818
-1.0111649034622887,-0.7199873088340989
-1.0111649034622887,-0.7755121214540167
-1.047414478491885,-0.8267657946416306
-0.986998520109225,-0.8737483283969446
-0.7936674532847119,-0.907917443855355
-0.7936674532847119,-0.9463576987460653
-0.7936674532847119,-0.9762556747721765
-0.6728355365193915,-0.9933402325013794
-0.5157540447244773,-1.0061536507982873
-0.33450616957649254,-1.0232382085274905
-0.15325829442851407,-1.0445939056889977
0.0400727723959997,-1.0659496028505047
0.2213206475439782,-1.0958475788766113
0.3784021393388985,-1.1257455549027222
0.5958995895164705,-1.159914670361133
0.6200659728695345,-1.198354925251843
0.6200659728695345,-1.2410663195748577
0.5354836311338128,-1.2837777138978674
0.4388180977215561,-1.3307602476531815
0.2817366059266418,-1.3649293631115922
0.12465511413172133,-1.3862850602730994
0.0400727723959997,-1.4161830362992103
0.06423915574906387,-1.441809872893017
0.10048873077865715,-1.4631655700545243
0.06423915574906387,-1.4717078489191235
0.10048873077865715,-1.4717078489191235
0.12465511413172133,-1.4588944306222202
0.19715426419091386,-1.4332675940284134
0.2213206475439782,-1.394827339137703
0.2817366059266418,-1.347844805382389
-0.02034318598666391,-1.2923199927624711
0.2213206475439782,-1.2325240407102538
1.3329742817849257,-1.1727280886580362
2.7829572829687725,-1.1129321366058187
4.027526025651577,-1.0531361845536014
3.3146177167361843,-0.9976113719336835
1.8646347155523384,-0.9548999776106691
0.897979381429776,-0.9207308621522586
-0.02034318598666391,-0.8993751649907513
-0.6365859614897983,-0.8908328861261521
-0.8540834116673727,-0.8951040255584517
-0.9265825617265646,-0.9036463044230555
-1.0715808618449492,-0.9121885832876593
-1.0111649034622887,-0.9207308621522586
-1.0715808618449492,-0.9164597227199588
-1.1078304368745455,-0.8951040255584517
-1.0715808618449492,-0.8481214918031377
-1.131996820227609,-0.7712409820217171
-1.131996820227609,-0.6473779384849782
-1.0715808618449492,-0.4722612217606255
-1.0715808618449492,-0.25016197128095863
-1.0715808618449492,0.014648673521722515
-1.131996820227609,0.30508615491820645
-1.1078304368745455,0.6040659151792978
-1.047414478491885,0.8859611177111821
-1.0111649034622887,1.1379583442169554
-0.986998520109225,1.3344307581028156
-0.9507489450796288,1.4582938016395546
-0.8540834116673727,1.5180897536917721
-0.8903329866969683,1.5479877297178786
-0.7695010699316478,1.5650722874470862
-0.7332514949020521,1.5650722874470862
-0.6365859614897983,1.5437165902855787
-0.5157540447244773,1.4924629170979649
-0.39492212795915616,1.4283958256134437
-0.33450616957649254,1.3643287341289265
-0.15325829442851407,1.300261642644405
-0.11700871939891463,1.249007969456791
0.16090468916132075,1.2105677145660811
0.2575702225735775,1.1806697385399698
0.3421525643092991,1.1593140413784628
0.3179861809562351,1.1507717625138632
0.3179861809562351,1.1507717625138632
0.3421525643092991,1.1635851808107671
0.2213206475439782,1.1763985991076704
0.2213206475439782,1.1934831568368736
0.2213206475439782,1.2062965751337769
0.2213206475439782,1.2191099934306802
0.2817366059266418,1.2191099934306802
0.2817366059266418,1.2105677145660811
0.3784021393388985,1.1934831568368736
0.3179861809562351,1.1678563202430663
0.2575702225735775,1.1422294836492597
0.2817366059266418,1.108060368190849
0.3784021393388985,1.0696201133001388
0.40256852269196286,1.0226375795448248
0.3784021393388985,0.9756550457895109
0.4750676727511556,0.9244013726018926
0.3784021393388985,0.8688765599819789
0.3421525643092991,0.8090806079297571
0.19715426419091386,0.753555795309844
0.16090468916132075,0.6980309826899259
0.12465511413172133,0.6382350306377085
0.19715426419091386,0.5827102180177909
0.0400727723959997,0.5399988236947767
-0.05659276101625718,0.5015585688040661
-0.08075914436932136,0.4631183139133557
-0.11700871939891463,0.4246780590226456
-0.15325829442851407,0.3862378041319307
-0.02034318598666391,0.3477975492412207
0.06423915574906387,0.3093572943505102
0.003823197366400267,0.2623747605951961
0.06423915574906387,0.21539222683988204
-0.2136742528111715,0.16413855365226432
-0.05659276101625718,0.10861374103235061
0.0400727723959997,0.048817788980128854
-0.08075914436932136,-0.010978163072088544
-0.11700871939891463,-0.06650297569200224
-0.05659276101625718,-0.11775664887962
-0.05659276101625718,-0.1732814614995337
0.003823197366400267,-0.23734855298405527
0.12465511413172133,-0.309957923333176
-0.02034318598666391,-0.3868384331146009
-0.15325829442851407,-0.4722612217606255
0.19715426419091386,-0.5662262892712536
0.06423915574906387,-0.6644624962141813
0.003823197366400267,-0.7626987031571133
0.06423915574906387,-0.8566637706677415
-0.02034318598666391,-0.9506288381783695
-0.11700871939891463,-1.0146959296628868
-0.33450616957649254,-1.0702207422828045
-0.35867255292955674,-1.1214744154704182
1.0550608732246904,-1.1727280886580362
2.4808774910554723,-1.2111683435487468
3.7496126170913353,-1.2325240407102538
3.6166975086494846,-1.245337459007157
2.662125366203451,-1.2410663195748577
0.9342289564593693,-1.22398176184565
-0.11700871939891463,-1.1940837858195434
-0.6365859614897983,-1.151372391496529
-0.8903329866969683,-1.104389857741215
-0.9507489450796288,-1.0445939056889977
-1.0715808618449492,-0.9847979536367802
-0.8903329866969683,-0.9207308621522586
-0.7936674532847119,-0.8523926312354375
-0.7695010699316478,-0.7840544003186204
-0.9265825617265646,-0.7157161694017993
-0.8299170283143082,-0.6516490779172777
-0.7695010699316478,-0.5918531258650603
-0.9265825617265646,-0.5405994526774465
-0.7936674532847119,-0.4936169189221324
-0.8299170283143082,-0.4466343851668183
-0.8903329866969683,-0.4039229908438041
-0.7936674532847119,-0.35694045708849004
-0.9507489450796288,-0.309957923333176
-1.1078304368745455,-0.2544331107132584
-0.986998520109225,-0.1860948797964414
-1.1682463952572053,-0.10494323058271664
-1.2649119286694623,-0.0024358842074850193
-1.1078304368745455,0.10861374103235061
-1.0715808618449492,0.23674792400138941
-0.9507489450796288,0.36488210697042384
-0.9265825617265646,0.49301628993946267
-0.9507489450796288,0.6168793334762016
-0.6124195781367341,0.7279289587160324
-0.43117170298874946,0.8261651656589647
-0.27409021119383514,0.9073168148726894
0.0400727723959997,0.962841627492607
0.2817366059266418,1.0055530218156175
0.4750676727511556,1.0354509978417283
0.752981081311391,1.061077834435535
0.8133970396940482,1.078162392164738
0.9342289564593693,1.0867046710293415
0.9704785314889687,1.0909758104616414
0.873812998076712,1.0995180893262455
0.6804819312521982,1.108060368190849
0.49923405610421956,1.116602647055453
0.3421525643092991,1.125144925920052
0.3784021393388985,1.125144925920052
0.40256852269196286,1.1208737864877523
0.19715426419091386,1.1123315076231488
-0.05659276101625718,1.0909758104616414
0.16090468916132075,1.0696201133001388
0.10048873077865715,1.0397221372740275
0.19715426419091386,1.009824161247921
0.2213206475439782,0.9799261852218102
0.10048873077865715,0.9542993486280035
0.16090468916132075,0.9286725120341968
0.10048873077865715,0.8987745360080859
-0.05659276101625718,0.8688765599819789
0.2213206475439782,0.838978583955868
1.3329742817849257,0.8090806079297571
2.7829572829687725,0.7791826319036507
4.148357942416896,0.753555795309844
3.8704445338566553,0.7236578192837331
2.5412934494381303,0.6937598432576222
0.897979381429776,0.6638618672315156
-0.08075914436932136,0.6254216123408052
-0.7936674532847119,0.5827102180177909
-0.986998520109225,0.5357276842624769
-0.8903329866969683,0.484474011074863
-0.9507489450796288,0.42894919845494545
-1.047414478491885,0.37342438583502735
-0.986998520109225,0.31362843378280997
-0.8540834116673727,0.2581036211628924
-0.7936674532847119,0.20257880854297872
-0.9265825617265646,0.1299694381938536
-0.8540834116673727,0.04454664954782903
-0.8903329866969683,-0.06650297569200224
-0.8299170283143082,-0.20317943752564457
-0.7936674532847119,-0.36121159652079426
-0.9265825617265646,-0.5405994526774465
-0.9507489450796288,-0.7370718665633064
-0.986998520109225,-0.9335442804491619
-0.9265825617265646,-1.130016694335022
-1.0111649034622887,-1.3094045504916787
-0.9507489450796288,-1.4631655700545243
-1.0111649034622887,-1.5742151952943555
-1.0715808618449492,-1.6510957050757804
-1.0715808618449492,-1.7194339359925974
-0.9507489450796288,-1.7664164697479114
-0.9265825617265646,-1.800585585206322
-0.7936674532847119,-1.81339900350323
-0.6124195781367341,-1.804856724638626
-0.4553380863418136,-1.7749587486125151
-0.2982565945468993,-1.7194339359925974
-0.02034318598666391,-1.638282286778877
0.2817366059266418,-1.5229615221067418
0.4750676727511556,-1.3734716419761959
0.5354836311338128,-1.206897204116447
0.6200659728695345,-1.0189670690951906
0.5958995895164705,-0.7669698425894129
0.5354836311338128,-0.4551766640314223
0.40256852269196286,-0.08785867285350911
0.4388180977215561,0.3477975492412207
0.40256852269196286,0.8304363050912645
0.3784021393388985,1.2062965751337769
0.3784021393388985,1.3899555707227333
0.2817366059266418,1.4839206382333614
0.2213206475439782,1.5309031719886754
0.16090468916132075,1.556530008582482
0.19715426419091386,1.569343426879386
0.10048873077865715,1.5736145663116896
0.10048873077865715,1.5778857057439895
0.10048873077865715,1.5778857057439895
0.10048873077865715,1.5778857057439895
0.06423915574906387,1.5778857057439895
0.06423915574906387,1.5778857057439895
0.06423915574906387,1.5778857057439895
0.10048873077865715,1.5778857057439895
0.0400727723959997,1.5778857057439895
-0.02034318598666391,1.5778857057439895
-0.05659276101625718,1.3173462003736125
-0.05659276101625718,0.937214790898796
-0.05659276101625718,0.753555795309844
-0.02034318598666391,0.668133006663815
-0.02034318598666391,0.6382350306377085
0.003823197366400267,0.6382350306377085
0.003823197366400267,0.6595907277992159
0.0400727723959997,0.6937598432576222
0.003823197366400267,0.7450135164452399
0.06423915574906387,0.8176228867943611
0.10048873077865715,0.9030456754403853
0.0400727723959997,1.0055530218156175
0.10048873077865715,1.116602647055453
0.003823197366400267,1.2319234117275837
-0.02034318598666391,1.3130750609413084
0.0400727723959997,1.3771421524258298
0.10048873077865715,1.4454803833426508
0.0400727723959997,1.5052763353948688
0.06423915574906387,1.5437165902855787
0.06423915574906387,1.5608011480147863
0.06423915574906387,1.569343426879386
-0.05659276101625718,1.5736145663116896
-0.02034318598666391,1.5736145663116896
-0.08075914436932136,1.556530008582482
-0.02034318598666391,1.5180897536917721
-0.05659276101625718,1.4668360805041583
-0.02034318598666391,1.4027689890196366
-0.05659276101625718,1.3301596186705158
-0.08075914436932136,1.2447368300244912
-0.2982565945468993,1.1507717625138632
0.10048873077865715,1.0439932767063274
1.4900557735798463,0.9286725120341968
3.3750336751188432,0.800538329065158
4.1121083673872985,0.6595907277992159
3.8946109172097207,0.5015585688040661
2.263380040877895,0.33498413094431734
0.7167315062817915,0.15559627478766466
-0.11700871939891463,-0.028062720801291713
-0.5520036197540705,-0.2074505769579444
-0.8540834116673727,-0.36548273595309355
-0.8903329866969683,-0.49788805835443223
-0.8299170283143082,-0.6302933807557749
-0.8540834116673727,-0.7456141454279058
-0.8903329866969683,-0.8395792129385339
-0.9265825617265646,-0.9121885832876593
-0.9265825617265646,-0.9677133959075727
-0.986998520109225,-1.010424790230587
-0.9507489450796288,-1.0403227662566978
-0.986998520109225,-1.0659496028505047
-0.9507489450796288,-1.0915764394443117
-0.986998520109225,-1.1172032760381185
-0.9265825617265646,-1.1428301126319254
-0.986998520109225,-1.1641858097934326
-0.986998520109225,-1.1898126463872394
-1.0715808618449492,-1.2111683435487468
-1.0715808618449492,-1.2367951801425534
-0.986998520109225,-1.2581508773040608
-0.9265825617265646,-1.275235435033268
-0.8540834116673727,-1.2923199927624711
-0.7936674532847119,-1.3051334110593746
-0.7695010699316478,-1.3179468293562782
-0.6365859614897983,-1.322217968788582
-0.5761700031071347,-1.3264891082208818
-0.4553380863418136,-1.3264891082208818
-0.33450616957649254,-1.3307602476531815
-0.23784063616423567,-1.3307602476531815
0.0400727723959997,-1.3350313870854857
0.2575702225735775,-1.3393025265177854
0.49923405610421956,-1.347844805382389
0.6200659728695345,-1.3563870842469927
0.777147464664455,-1.3649293631115922
0.8133970396940482,-1.3734716419761959
0.873812998076712,-1.3820139208407998
0.8375634230471126,-1.3905561997053992
0.873812998076712,-1.3990984785700027
0.777147464664455,-1.4119118968669062
0.752981081311391,-1.4247253151638095
0.5354836311338128,-1.4375387334607133
0.5354836311338128,-1.450352151757621
0.3784021393388985,-1.4674367094868241
0.3421525643092991,-1.4845212672160273
0.2575702225735775,-1.5058769643775343
0.2213206475439782,-1.531503800971341
0.16090468916132075,-1.5528594981328483
0.2213206475439782,-1.5742151952943555
0.12465511413172133,-1.591299753023563
0.10048873077865715,-1.6083843107527662
0.12465511413172133,-1.6211977290496695
0.10048873077865715,-1.6254688684819691
0.2213206475439782,-1.6254688684819691
-0.05659276101625718,-1.6254688684819691
0.003823197366400267,-1.6211977290496695
-0.02034318598666391,-1.6083843107527662
-0.05659276101625718,-1.5870286135912588
-0.08075914436932136,-1.5571306375651524
0.06423915574906387,-1.5101481038098383
0.10048873077865715,-1.450352151757621
0.06423915574906387,-1.3692005025438962
0.10048873077865715,-1.275235435033268
0.10048873077865715,-1.1727280886580362
0.06423915574906387,-1.0616784634182008
0.10048873077865715,-0.9548999776106691
0.10048873077865715,-0.8694771889646448
0.0400727723959997,-0.7925966791832199
0.10048873077865715,-0.7157161694017993
0.0400727723959997,-0.6431067990526783
-0.05659276101625718,-0.5704974287035529
0.10048873077865715,-0.49788805835443223
-0.05659276101625718,-0.42527868800531143
-0.11700871939891463,-0.3483981782238865
0.003823197366400267,-0.2715176684424655
0.06423915574906387,-0.19463715866104056
0.10048873077865715,-0.12202778831191981
-0.05659276101625718,-0.06223183625970242
0.06423915574906387,-0.023791581368991892
0.16090468916132075,-0.006707023639784356
0.19715426419091386,-0.0024358842074850193
-0.2136742528111715,-0.010978163072088544
0.003823197366400267,-0.032333860233591534
1.1758927899900113,-0.05796069682740259
2.758790899615708,-0.06223183625970242
3.9912764506219767,-0.04087613909819506
4.027526025651577,0.02319095238632216
2.8554564330279653,0.1299694381938536
1.0308944898716264,0.27518817889209946
-0.2982565945468993,0.43749147731954896
-0.8299170283143082,0.5997947757469941
-0.9265825617265646,0.7236578192837331
-0.7332514949020521,0.8133517473620614
-0.7090851115489879,0.8987745360080859
-0.6728355365193915,0.962841627492607
-0.7332514949020521,1.009824161247921
-0.7090851115489879,1.0397221372740275
-0.7695010699316478,1.056806695003235
-0.6365859614897983,1.0696201133001388
-0.7936674532847119,1.0824335315970424
-0.7936674532847119,1.0952469498939457
-0.7695010699316478,1.1123315076231488
-0.8903329866969683,1.1294160653523564
-0.7936674532847119,1.1336872047846556
-0.7695010699316478,1.1294160653523564
-0.9265825617265646,1.1208737864877523
-0.9507489450796288,1.0995180893262455
-0.7695010699316478,1.0696201133001388
-0.7332514949020521,1.0226375795448248
-0.7332514949020521,0.9671127669249069
-0.6728355365193915,0.9073168148726894
-0.5761700031071347,0.8432497233881678
-0.6365859614897983,0.7791826319036507
-0.4915876613714131,0.7236578192837331
-0.39492212795915616,0.676675285528419
-0.27409021119383514,0.6339638912054043
-0.35867255292955674,0.5955236363146943
-0.27409021119383514,0.5613545208562836
0.003823197366400267,0.5357276842624769
0.40256852269196286,0.5143719871009695
0.4750676727511556,0.5015585688040661
0.5958995895164705,0.48874515050716283
0.9342289564593693,0.4802028716425588
1.0913104482542897,0.47166059277795963
0.9342289564593693,0.4631183139133557
0.8375634230471126,0.4503048956164523
0.6804819312521982,0.4332203378872448
0.7167315062817915,0.4075935012934381
0.5596500144868772,0.3776955252673316
0.5354836311338128,0.3392552703766167
0.4750676727511556,0.3008150154859066
0.40256852269196286,0.2623747605951961
0.5354836311338128,0.2196633662721819
0.3784021393388985,0.17695197194916765
0.3179861809562351,0.13851171705845713
0.40256852269196286,0.1000714621677471
0.5596500144868772,0.06163120727703656
0.3784021393388985,0.018919812954022338
0.2213206475439782,-0.01952044193668819
0.19715426419091386,-0.06223183625970242
0.2213206475439782,-0.10494323058271664
0.10048873077865715,-0.1476546249057265
0.19715426419091386,-0.19036601922874122
0.10048873077865715,-0.23734855298405527
0.12465511413172133,-0.2843310867393693
-0.05659276101625718,-0.3313136204946834
-0.11700871939891463,-0.37402501481769757
0.5596500144868772,-0.41246526970840763
2.045882590700317,-0.4466343851668183
3.9308604922393195,-0.4679900823283257
4.583352842772047,-0.4722612217606255
3.8946109172097207,-0.4637189428960215
1.828385140522739,-0.4380921063022148
0.2817366059266418,-0.4081941302761083
-0.35867255292955674,-0.37402501481769757
-0.6124195781367341,-0.32704248106238354
-0.7332514949020521,-0.26724652901016177
-0.6365859614897983,-0.2074505769579444
-0.6728355365193915,-0.15192576433803068
-0.6365859614897983,-0.10067209115041245
-0.7936674532847119,-0.06223183625970242
-0.6728355365193915,-0.04087613909819506
-0.7332514949020521,-0.028062720801291713
-0.7695010699316478,-0.032333860233591534
-0.6728355365193915,-0.053689557395098404
-0.6365859614897983,-0.08358753342120977
-0.7936674532847119,-0.12202778831191981
-0.8299170283143082,-0.16473918263493403
-0.986998520109225,-0.2117217163902481
-1.0715808618449492,-0.26297538957786193
-1.131996820227609,-0.309957923333176
-1.1078304368745455,-0.35694045708849004
-1.0715808618449492,-0.4039229908438041
-1.0715808618449492,-0.45090552459911815
-0.986998520109225,-0.5021591977867363
-0.9265825617265646,-0.5491417315420505
-0.8540834116673727,-0.5961242652973645
-0.7936674532847119,-0.6473779384849782
-0.6728355365193915,-0.6986316116725917
-0.5157540447244773,-0.7456141454279058
-0.35867255292955674,-0.8011389580478236
-0.17742467778157825,-0.8566637706677415
0.003823197366400267,-0.9207308621522586
0.2213206475439782,-0.9762556747721765
0.4388180977215561,-1.0317804873920944
0.5958995895164705,-1.0744918817151041
0.7167315062817915,-1.104389857741215
