ECG,PPG
-0.3086509498590997,0.1362003572705276
-0.3086509498590997,0.164375946330128
-0.2141358264572701,0.164375946330128
-0.2141358264572701,0.164375946330128
-0.02510557965361098,0.192551535389728
-0.11962070305544055,0.192551535389728
-0.2141358264572701,0.192551535389728
-0.2141358264572701,0.2207271244493284
-0.2141358264572701,0.2207271244493284
-0.2141358264572701,0.2207271244493284
-0.07236314135452576,0.2489027135089288
-0.02510557965361098,0.2489027135089288
-0.11962070305544055,0.2489027135089288
-0.2141358264572701,0.2489027135089288
-0.11962070305544055,0.2489027135089288
-0.16687826475635534,0.2489027135089288
-0.2141358264572701,0.2770783025685288
-0.2613933881581849,0.3052538916281292
-0.40316607326092924,0.3616050697473296
-0.40316607326092924,0.4743074259857304
1.4871363947756622,0.5870097822241316
4.464362781933294,0.7842389056413333
5.740316947857993,1.0096436181181276
4.2753325351296345,1.26322391965453
1.534393956476577,1.5168042211909325
0.16392466715004816,1.742208933667734
-0.45042363496184407,1.9394380570849357
-0.7339690051673328,2.108491591442537
-0.7812265668682475,2.221193947680938
-0.7339690051673328,2.2775451258001316
-0.7339690051673328,2.305720714859739
-0.7339690051673328,2.305720714859739
-0.7812265668682475,2.2775451258001316
-0.7812265668682475,2.2493695367405317
-0.7812265668682475,2.221193947680938
-0.7339690051673328,2.164842769561738
-0.6394538817655032,2.108491591442537
-0.686711443466418,2.0521404133233374
-0.7812265668682475,1.9957892352041364
-0.7812265668682475,1.9394380570849357
-0.7812265668682475,1.8830868789657356
-0.7339690051673328,1.8267357008465348
-0.686711443466418,1.742208933667734
-0.5921963200645884,1.6858577555485341
-0.49768119666275884,1.6013309883697333
-0.40316607326092924,1.5449798102505325
-0.35590851156001446,1.4604530430717317
-0.3086509498590997,1.375926275892931
-0.3086509498590997,1.2913995087141301
-0.3086509498590997,1.1786971524757293
-0.3086509498590997,1.0941703852969284
-0.2613933881581849,0.9814680290585276
-0.16687826475635534,0.8969412618797268
-0.16687826475635534,0.8124144947009336
-0.11962070305544055,0.7560633165817328
-0.2141358264572701,0.6997121384625324
-0.16687826475635534,0.643360960343332
-0.16687826475635534,0.6151853712837316
-0.16687826475635534,0.6151853712837316
-0.11962070305544055,0.5870097822241316
-0.2141358264572701,0.5870097822241316
-0.3086509498590997,0.5588341931645312
-0.2141358264572701,0.5588341931645312
-0.2613933881581849,0.5588341931645312
-0.2141358264572701,0.5588341931645312
-0.3086509498590997,0.5588341931645312
-0.2141358264572701,0.5306586041049312
-0.2613933881581849,0.5306586041049312
-0.2141358264572701,0.5024830150453308
-0.2141358264572701,0.4743074259857304
-0.2141358264572701,0.4743074259857304
-0.2141358264572701,0.4461318369261304
-0.2141358264572701,0.41795624786653
-0.2141358264572701,0.38978065880693
-0.16687826475635534,0.3616050697473296
-0.16687826475635534,0.3334294806877292
-0.2141358264572701,0.3052538916281292
-0.16687826475635534,0.2770783025685288
-0.16687826475635534,0.2489027135089288
-0.2141358264572701,0.2489027135089288
-0.35590851156001446,0.2770783025685288
-0.40316607326092924,0.3334294806877292
-0.40316607326092924,0.38978065880693
-0.3086509498590997,0.4743074259857304
-0.2141358264572701,0.6151853712837316
-0.11962070305544055,0.7842389056413333
-0.02510557965361098,0.9532924399989277
-0.02510557965361098,1.1223459743565292
-0.11962070305544055,1.26322391965453
-0.2141358264572701,1.375926275892931
-0.11962070305544055,1.4886286321313325
-0.02510557965361098,1.5449798102505325
-0.02510557965361098,1.5731553993101333
-0.02510557965361098,1.5731553993101333
-0.02510557965361098,1.5731553993101333
-0.02510557965361098,1.5449798102505325
-0.07236314135452576,1.5168042211909325
-0.02510557965361098,1.4604530430717317
-0.02510557965361098,1.4041018649525316
0.06940954374821859,1.375926275892931
-0.02510557965361098,1.23504833059493
-0.16687826475635534,1.0659947962373284
-0.2613933881581849,0.9251168509393276
-0.3086509498590997,0.8405900837605268
-0.3086509498590997,0.7560633165817328
-0.2141358264572701,0.6715365494029324
-0.11962070305544055,0.5870097822241316
-0.02510557965361098,0.5024830150453308
-0.02510557965361098,0.38978065880693
-0.02510557965361098,0.2770783025685288
-0.02510557965361098,0.192551535389728
-0.11962070305544055,0.0798491791513272
-0.11962070305544055,-0.0328531770870736
-0.07236314135452576,-0.1455555333254748
-0.02510557965361098,-0.2300823005042756
-0.11962070305544055,-0.286433478623476
-0.02510557965361098,-0.3427846567426764
0.022151982047303804,-0.3709602458022768
0.11666710544913338,-0.3991358348618768
0.06940954374821859,-0.3991358348618768
0.06940954374821859,-0.3991358348618768
-0.11962070305544055,-0.3991358348618768
-0.2141358264572701,-0.3991358348618768
-0.2141358264572701,-0.3991358348618768
-0.11962070305544055,-0.3991358348618768
-0.16687826475635534,-0.3709602458022768
-0.2141358264572701,-0.3709602458022768
-0.2141358264572701,-0.3991358348618768
0.49472759905645164,-0.3991358348618768
2.810348122401276,-0.3991358348618768
5.409514015951589,-0.4273114239214772
5.645801824456163,-0.4273114239214772
3.04663593090585,-0.4554870129810772
0.8727880926637699,-0.4554870129810772
-0.02510557965361098,-0.4836626020406776
-0.40316607326092924,-0.5118381911002781
-0.5921963200645884,-0.540013780159878
-0.6394538817655032,-0.5681893692194784
-0.5449387583636736,-0.5963649582790788
-0.45042363496184407,-0.6245405473386716
-0.5449387583636736,-0.6527161363982721
-0.6394538817655032,-0.680891725457872
-0.7812265668682475,-0.7090673145174724
-0.7812265668682475,-0.7372429035770729
-0.8757416902700771,-0.7654184926366728
-0.7812265668682475,-0.7654184926366728
-0.686711443466418,-0.7935940816962732
-0.6394538817655032,-0.7935940816962732
-0.6394538817655032,-0.8217696707558733
-0.49768119666275884,-0.8217696707558733
-0.40316607326092924,-0.8217696707558733
-0.35590851156001446,-0.8499452598154736
-0.35590851156001446,-0.8499452598154736
-0.3086509498590997,-0.8499452598154736
-0.2141358264572701,-0.8499452598154736
-0.2141358264572701,-0.8499452598154736
-0.16687826475635534,-0.8499452598154736
-0.2141358264572701,-0.8499452598154736
-0.07236314135452576,-0.8217696707558733
-0.02510557965361098,-0.8217696707558733
-0.02510557965361098,-0.8217696707558733
-0.07236314135452576,-0.7935940816962732
-0.2141358264572701,-0.7935940816962732
-0.2613933881581849,-0.7935940816962732
-0.2141358264572701,-0.7935940816962732
-0.2141358264572701,-0.7654184926366728
-0.16687826475635534,-0.7654184926366728
-0.2141358264572701,-0.7654184926366728
-0.16687826475635534,-0.7372429035770729
-0.11962070305544055,-0.7372429035770729
-0.11962070305544055,-0.7090673145174724
-0.16687826475635534,-0.7090673145174724
-0.16687826475635534,-0.680891725457872
-0.16687826475635534,-0.6527161363982721
-0.16687826475635534,-0.6527161363982721
-0.2141358264572701,-0.6245405473386716
-0.11962070305544055,-0.5963649582790788
-0.16687826475635534,-0.5963649582790788
-0.11962070305544055,-0.5681893692194784
-0.11962070305544055,-0.5681893692194784
-0.02510557965361098,-0.540013780159878
0.022151982047303804,-0.540013780159878
-0.11962070305544055,-0.5118381911002781
-0.2613933881581849,-0.5118381911002781
-0.2613933881581849,-0.5118381911002781
-0.2613933881581849,-0.4836626020406776
-0.2141358264572701,-0.4273114239214772
-0.16687826475635534,-0.3427846567426764
-0.2141358264572701,-0.2019067114446752
-0.11962070305544055,0.0516735900917268
-0.02510557965361098,0.3334294806877292
-0.07236314135452576,0.6715365494029324
-0.11962070305544055,1.0378192071777284
-0.11962070305544055,1.375926275892931
-0.16687826475635534,1.6295065774293334
-0.11962070305544055,1.8549112899061357
-0.11962070305544055,2.0239648242637363
-0.16687826475635534,2.164842769561738
-0.16687826475635534,2.2493695367405317
-0.11962070305544055,2.2775451258001316
-0.02510557965361098,2.2493695367405317
-0.02510557965361098,2.221193947680938
-0.02510557965361098,2.136667180502138
-0.11962070305544055,2.0521404133233374
-0.2141358264572701,1.9676136461445364
-0.2613933881581849,1.8549112899061357
-0.2141358264572701,1.770384522727335
-0.3086509498590997,1.6576821664889332
-0.11962070305544055,1.5449798102505325
-0.02510557965361098,1.4322774540121317
0.022151982047303804,1.3195750977737308
0.022151982047303804,1.20687274153533
0.022151982047303804,1.1223459743565292
-0.02510557965361098,1.0096436181181276
-0.07236314135452576,0.8969412618797268
-0.11962070305544055,0.7842389056413333
-0.02510557965361098,0.6715365494029324
-0.11962070305544055,0.5588341931645312
-0.11962070305544055,0.4461318369261304
-0.07236314135452576,0.3334294806877292
0.022151982047303804,0.2489027135089288
0.11666710544913338,0.164375946330128
-0.02510557965361098,0.0798491791513272
-0.11962070305544055,0.023498001032126795
-0.2141358264572701,-0.0328531770870736
-0.16687826475635534,-0.0892043552062744
-0.11962070305544055,-0.1173799442658744
-0.11962070305544055,-0.1455555333254748
-0.11962070305544055,-0.1455555333254748
-0.07236314135452576,-0.17373112238507482
-0.02510557965361098,-0.2019067114446752
-0.07236314135452576,-0.2019067114446752
-0.07236314135452576,-0.2019067114446752
0.022151982047303804,-0.2300823005042756
-0.02510557965361098,-0.2300823005042756
-0.02510557965361098,-0.25825788956387563
-0.02510557965361098,-0.25825788956387563
-0.02510557965361098,-0.286433478623476
-0.2141358264572701,-0.314609067683076
-0.3086509498590997,-0.314609067683076
1.061818339467429,-0.3427846567426764
4.086302288325975,-0.3709602458022768
5.787574509558907,-0.3709602458022768
4.842423275540612,-0.3991358348618768
2.1487422585884692,-0.4273114239214772
0.44747003735553686,-0.4273114239214772
-0.3086509498590997,-0.4554870129810772
-0.5449387583636736,-0.4836626020406776
-0.6394538817655032,-0.540013780159878
-0.686711443466418,-0.5681893692194784
-0.7812265668682475,-0.5963649582790788
-0.7339690051673328,-0.6245405473386716
-0.5921963200645884,-0.6527161363982721
-0.5449387583636736,-0.680891725457872
-0.6394538817655032,-0.7090673145174724
-0.686711443466418,-0.7090673145174724
-0.6394538817655032,-0.7372429035770729
-0.5449387583636736,-0.7372429035770729
-0.45042363496184407,-0.7654184926366728
-0.5449387583636736,-0.7654184926366728
-0.49768119666275884,-0.7935940816962732
-0.40316607326092924,-0.7935940816962732
-0.40316607326092924,-0.7935940816962732
-0.45042363496184407,-0.8217696707558733
-0.45042363496184407,-0.8217696707558733
-0.40316607326092924,-0.8217696707558733
-0.2613933881581849,-0.8217696707558733
-0.2141358264572701,-0.8217696707558733
-0.2141358264572701,-0.8217696707558733
-0.2141358264572701,-0.8217696707558733
-0.2613933881581849,-0.8217696707558733
-0.2141358264572701,-0.8217696707558733
-0.11962070305544055,-0.8217696707558733
-0.07236314135452576,-0.8217696707558733
-0.11962070305544055,-0.8217696707558733
-0.16687826475635534,-0.7935940816962732
-0.2141358264572701,-0.7935940816962732
-0.11962070305544055,-0.7935940816962732
-0.16687826475635534,-0.7935940816962732
-0.11962070305544055,-0.7654184926366728
-0.11962070305544055,-0.7654184926366728
-0.02510557965361098,-0.7654184926366728
-0.02510557965361098,-0.7372429035770729
-0.07236314135452576,-0.7372429035770729
-0.16687826475635534,-0.7090673145174724
-0.2141358264572701,-0.7090673145174724
-0.2141358264572701,-0.680891725457872
-0.2141358264572701,-0.6527161363982721
-0.11962070305544055,-0.6527161363982721
-0.02510557965361098,-0.6245405473386716
-0.02510557965361098,-0.5963649582790788
0.022151982047303804,-0.5963649582790788
0.3056973522527925,-0.5681893692194784
1.6289090798784065,-0.5681893692194784
4.13355985002689,-0.540013780159878
5.267741330848845,-0.540013780159878
4.322590096830549,-0.540013780159878
1.7706817649811508,-0.5118381911002781
0.3056973522527925,-0.4554870129810772
-0.35590851156001446,-0.3991358348618768
-0.6394538817655032,-0.25825788956387563
-0.686711443466418,-0.0892043552062744
-0.6394538817655032,0.164375946330128
-0.686711443466418,0.4461318369261304
-0.7812265668682475,0.7842389056413333
-0.8757416902700771,1.0941703852969284
-0.8757416902700771,1.3477506868333309
-0.9229992519709919,1.5731553993101333
-0.8757416902700771,1.770384522727335
-0.9229992519709919,1.9112624680253356
-0.7812265668682475,2.0239648242637363
-0.7812265668682475,2.0803160023829372
-0.7339690051673328,2.0803160023829372
-0.7812265668682475,2.0803160023829372
-0.5449387583636736,2.0239648242637363
-0.5921963200645884,1.9676136461445364
-0.45042363496184407,1.8830868789657356
-0.45042363496184407,1.7985601117869348
-0.35590851156001446,1.6858577555485341
-0.35590851156001446,1.6013309883697333
-0.3086509498590997,1.5168042211909325
-0.3086509498590997,1.4322774540121317
-0.2141358264572701,1.3195750977737308
-0.2141358264572701,1.23504833059493
-0.11962070305544055,1.1223459743565292
-0.07236314135452576,1.0378192071777284
-0.11962070305544055,0.9251168509393276
-0.16687826475635534,0.8405900837605268
-0.2141358264572701,0.7278877275221328
-0.16687826475635534,0.6151853712837316
-0.16687826475635534,0.5024830150453308
-0.07236314135452576,0.38978065880693
-0.07236314135452576,0.3052538916281292
-0.02510557965361098,0.192551535389728
0.022151982047303804,0.0798491791513272
0.06940954374821859,-0.004677588027473604
-0.02510557965361098,-0.0892043552062744
0.022151982047303804,-0.1455555333254748
0.022151982047303804,-0.2019067114446752
0.022151982047303804,-0.2300823005042756
0.06940954374821859,-0.286433478623476
0.022151982047303804,-0.314609067683076
-0.02510557965361098,-0.314609067683076
0.022151982047303804,-0.3427846567426764
0.022151982047303804,-0.3709602458022768
-0.02510557965361098,-0.3991358348618768
-0.02510557965361098,-0.4273114239214772
-0.07236314135452576,-0.4554870129810772
-0.02510557965361098,-0.4836626020406776
-0.02510557965361098,-0.540013780159878
-0.16687826475635534,-0.5963649582790788
-0.16687826475635534,-0.6245405473386716
0.022151982047303804,-0.680891725457872
0.06940954374821859,-0.7372429035770729
0.022151982047303804,-0.7935940816962732
0.022151982047303804,-0.8217696707558733
0.11666710544913338,-0.7935940816962732
0.11666710544913338,-0.7654184926366728
0.11666710544913338,-0.7090673145174724
0.06940954374821859,-0.6245405473386716
0.11666710544913338,-0.5118381911002781
0.06940954374821859,-0.3709602458022768
0.11666710544913338,-0.2300823005042756
0.11666710544913338,-0.0892043552062744
0.16392466715004816,0.0516735900917268
0.11666710544913338,0.164375946330128
0.06940954374821859,0.2207271244493284
0.11666710544913338,0.2770783025685288
0.022151982047303804,0.2770783025685288
-0.02510557965361098,0.2770783025685288
-0.02510557965361098,0.2207271244493284
-0.02510557965361098,0.164375946330128
-0.11962070305544055,0.0798491791513272
-0.2141358264572701,-0.004677588027473604
-0.11962070305544055,-0.1173799442658744
1.1090759011683438,-0.2300823005042756
4.086302288325975,-0.3427846567426764
5.740316947857993,-0.4554870129810772
4.417105220232378,-0.5963649582790788
1.7706817649811508,-0.7090673145174724
0.3056973522527925,-0.8499452598154736
-0.2613933881581849,-0.9626476160538745
-0.40316607326092924,-1.0471743832326752
-0.45042363496184407,-1.1598767394710763
-0.5449387583636736,-1.244403506649877
-0.5921963200645884,-1.3289302738286777
-0.49768119666275884,-1.4134570410074785
-0.5921963200645884,-1.4698082191266788
-0.49768119666275884,-1.4979838081862793
-0.5449387583636736,-1.5261593972458793
-0.45042363496184407,-1.5261593972458793
-0.49768119666275884,-1.4979838081862793
-0.6394538817655032,-1.4979838081862793
-0.6394538817655032,-1.4698082191266788
-0.6394538817655032,-1.4416326300670788
-0.5449387583636736,-1.4416326300670788
-0.49768119666275884,-1.4134570410074785
-0.45042363496184407,-1.4134570410074785
-0.35590851156001446,-1.3852814519478782
-0.3086509498590997,-1.3852814519478782
-0.3086509498590997,-1.3852814519478782
-0.2141358264572701,-1.3852814519478782
-0.2141358264572701,-1.4134570410074785
-0.2141358264572701,-1.4134570410074785
-0.2141358264572701,-1.4416326300670788
-0.11962070305544055,-1.4416326300670788
-0.02510557965361098,-1.4698082191266788
-0.02510557965361098,-1.4698082191266788
0.022151982047303804,-1.4979838081862793
0.06940954374821859,-1.4979838081862793
0.11666710544913338,-1.5261593972458793
-0.02510557965361098,-1.5543349863054796
-0.02510557965361098,-1.5543349863054796
-0.16687826475635534,-1.5825105753650799
-0.2141358264572701,-1.5825105753650799
-0.11962070305544055,-1.6106861644246802
-0.16687826475635534,-1.6106861644246802
-0.2141358264572701,-1.6106861644246802
-0.11962070305544055,-1.6106861644246802
-0.07236314135452576,-1.6106861644246802
-0.11962070305544055,-1.6106861644246802
-0.07236314135452576,-1.6106861644246802
-0.02510557965361098,-1.6388617534842804
-0.11962070305544055,-1.6388617534842804
-0.07236314135452576,-1.6388617534842804
-0.02510557965361098,-1.6388617534842804
-0.07236314135452576,-1.6388617534842804
-0.07236314135452576,-1.6106861644246802
0.022151982047303804,-1.6106861644246802
0.06940954374821859,-1.6106861644246802
-0.02510557965361098,-1.6106861644246802
0.022151982047303804,-1.6106861644246802
0.022151982047303804,-1.5825105753650799
-0.02510557965361098,-1.5543349863054796
-0.11962070305544055,-1.4979838081862793
-0.11962070305544055,-1.4134570410074785
-0.07236314135452576,-1.2162279175902768
-0.11962070305544055,-0.9908232051134749
-0.11962070305544055,-0.6527161363982721
-0.02510557965361098,-0.314609067683076
-0.11962070305544055,0.0798491791513272
-0.11962070305544055,0.4461318369261304
-0.07236314135452576,0.7560633165817328
-0.02510557965361098,1.0096436181181276
-0.07236314135452576,1.1786971524757293
-0.07236314135452576,1.2913995087141301
-0.07236314135452576,1.375926275892931
-0.07236314135452576,1.4322774540121317
-0.07236314135452576,1.4041018649525316
-0.02510557965361098,1.375926275892931
-0.02510557965361098,1.3477506868333309
-0.07236314135452576,1.26322391965453
-0.11962070305544055,1.1786971524757293
-0.11962070305544055,1.0941703852969284
-0.16687826475635534,1.0096436181181276
-0.2141358264572701,0.9251168509393276
-0.11962070305544055,0.8405900837605268
-0.02510557965361098,0.7560633165817328
-0.02510557965361098,0.6715365494029324
0.022151982047303804,0.5870097822241316
-0.02510557965361098,0.5024830150453308
-0.02510557965361098,0.38978065880693
0.022151982047303804,0.3052538916281292
0.022151982047303804,0.192551535389728
0.022151982047303804,0.0798491791513272
0.022151982047303804,-0.004677588027473604
0.022151982047303804,-0.0892043552062744
0.022151982047303804,-0.17373112238507482
0.022151982047303804,-0.2300823005042756
0.022151982047303804,-0.25825788956387563
0.022151982047303804,-0.286433478623476
0.11666710544913338,-0.314609067683076
0.11666710544913338,-0.314609067683076
0.022151982047303804,-0.314609067683076
-0.02510557965361098,-0.314609067683076
-0.11962070305544055,-0.286433478623476
-0.11962070305544055,-0.286433478623476
-0.2141358264572701,-0.286433478623476
-0.16687826475635534,-0.286433478623476
-0.11962070305544055,-0.286433478623476
-0.02510557965361098,-0.286433478623476
-0.02510557965361098,-0.286433478623476
-0.02510557965361098,-0.286433478623476
-0.02510557965361098,-0.314609067683076
-0.02510557965361098,-0.314609067683076
-0.02510557965361098,-0.3427846567426764
-0.2141358264572701,-0.3709602458022768
0.022151982047303804,-0.3709602458022768
1.723424203280236,-0.3991358348618768
4.889680837241527,-0.4273114239214772
5.882089632960737,-0.4554870129810772
4.13355985002689,-0.4836626020406776
1.534393956476577,-0.4836626020406776
0.3056973522527925,-0.5118381911002781
-0.2141358264572701,-0.5118381911002781
-0.45042363496184407,-0.540013780159878
-0.686711443466418,-0.5681893692194784
-0.7812265668682475,-0.5681893692194784
-0.8757416902700771,-0.5963649582790788
-0.8757416902700771,-0.6245405473386716
-0.7812265668682475,-0.6527161363982721
-0.7339690051673328,-0.680891725457872
-0.6394538817655032,-0.680891725457872
-0.6394538817655032,-0.7090673145174724
-0.6394538817655032,-0.7372429035770729
-0.5449387583636736,-0.7372429035770729
-0.5449387583636736,-0.7372429035770729
-0.49768119666275884,-0.7654184926366728
-0.45042363496184407,-0.7654184926366728
-0.40316607326092924,-0.7654184926366728
-0.40316607326092924,-0.7654184926366728
-0.35590851156001446,-0.7935940816962732
