ECG,PPG
-0.35261311867545825,0.16550476453865878
0.297705347374874,0.5329434916952457
-0.35261311867545825,0.16550476453865878
-0.6533532788647424,-0.027418975972414862
-0.2976059440767345,0.16550476453865878
-0.13515484900012975,0.28258443912362335
-0.35261311867545825,0.16550476453865878
-0.42715555154288765,0.0786154462932134
-0.24259876947801073,0.14267790974536382
-0.1891338521110269,0.18538621871346408
-0.2976059440767345,0.14267790974536382
-0.30223271577195426,0.11322390356046708
-0.18759159487928698,0.14267790974536382
-0.1973592240136398,0.15666856268318977
-0.2976059440767345,0.14267790974536382
-0.3233102312723998,0.13973250912687415
-0.24259876947801073,0.16550476453865878
-0.21175362484321236,0.18244081809497442
-0.24259876947801073,0.18759526917733135
-0.2811552002715087,0.19054066979582102
-0.2976059440767345,0.21042212397062632
-0.28372562899107523,0.23840342984627824
-0.18759159487928698,0.27890268835051124
-0.08323218886488584,0.30762034438078556
-0.07757724568183948,0.34664690257577374
-0.17885213723276078,0.39303696231698615
-0.18759159487928698,0.4600448263876262
-0.0369644719126883,0.5182164886027972
0.1974586273117793,0.5734427501994787
0.4827762151836642,0.6205691600953135
1.0225662462926357,0.6868406740113311
1.8872584675548165,0.7538485380819712
2.94833144299188,0.8223291024618561
4.038707305832003,0.8746099634400478
5.093611252342106,0.9357270262737086
5.686352115074149,1.0005258398804815
5.093611252342106,1.071951804878856
2.9838033593218984,1.1205509150839357
0.14245145271305554,1.1625228738974136
-2.1030750767002657,1.193449580391555
-2.938464410559388,1.2310034382772985
-2.639780593345757,1.2597210943075727
-1.947821182038447,1.298747652502561
-1.3787282635264173,1.3318834094605698
-0.9576920392614195,1.3664918667278234
-0.6435856497303895,1.3856369707480063
-0.46262746787290576,1.4121455763144133
-0.45388801022637953,1.4342360809530859
-0.46262746787290576,1.457062935746381
-0.4086484647620086,1.4636900871379828
-0.35261311867545825,1.479889790539676
-0.4081343790180953,1.499771244714481
-0.46262746787290576,1.5255435001262658
-0.43075415175028076,1.5262798502808883
-0.35261311867545825,1.5255435001262658
-0.3711202054563373,1.5255435001262658
-0.407620293274182,1.5476340047649384
-0.3993949213715691,1.5616246577027644
-0.35261311867545825,1.5704608595582334
-0.37780332012721024,1.5638337081666316
-0.407620293274182,1.5704608595582334
-0.3901413779811296,1.57856071125908
-0.35261311867545825,1.5932877143515283
-0.37831740587112356,1.5918150140422835
-0.407620293274182,1.5932877143515283
-0.39528223542026264,1.5881332632691714
-0.35261311867545825,1.5932877143515283
-0.3567258046267647,1.5888696134237938
-0.35261311867545825,1.5932877143515283
-0.31097217341848044,1.5969694651246404
-0.24259876947801073,1.6161145691448233
-0.231288883111918,1.6197963199179355
-0.24259876947801073,1.6161145691448233
-0.25493682733193007,1.596233114970018
-0.24259876947801073,1.5932877143515283
-0.23694382629496438,1.5918150140422835
-0.18759159487928698,1.5932877143515283
-0.10739421882881123,1.5756153106405903
-0.022570071083115727,1.5704608595582334
0.0036483018564628864,1.5689881592489885
0.03243710351560803,1.5704608595582334
0.09309922129737815,1.546897654610316
0.1974586273117793,1.5255435001262658
0.2653179455083357,1.5071347462607054
0.3074729765092268,1.5027166453329708
0.34037446411967837,1.4806261406942982
0.4174873257066743,1.457062935746381
0.4997410447328033,1.4276089295614842
0.5825088495028455,1.4121455763144133
0.6498540819554887,1.3871096710572512
0.7475303732990168,1.3664918667278234
0.840065807203412,1.339246911006794
0.9125518970951881,1.321574507295856
0.9485378991691196,1.2884387503378472
1.0225662462926357,1.2530939429159709
1.1176721089165973,1.208912933638626
1.187587770088807,1.1853497286907084
1.1819328269057605,1.1625228738974136
1.187587770088807,1.1396960191041186
1.234883658528831,1.0999331107545078
1.2976021192862544,1.071951804878856
1.302228890981474,1.047652249776316
1.2976021192862544,1.026298095292266
1.286806318664075,0.9865351869426555
1.2425949446875306,0.9585538810670036
1.1217847948679036,0.9408814773560655
1.0225662462926357,0.9357270262737086
0.969615414669565,0.9121638213257912
0.9125518970951881,0.890809666841741
0.7722064890068555,0.8724009129761806
0.6375160241015693,0.8679828120484461
0.5490932761484807,0.8458923074097735
0.4724945003053981,0.8223291024618561
0.32803640626575903,0.7995022476685612
0.1974586273117793,0.8002385978231836
0.11057813659043056,0.7995022476685612
0.03243710351560803,0.8002385978231836
-0.10122518990185156,0.7855115947307352
-0.18759159487928698,0.7774117430298886
-0.19376062380624667,0.7634210900920626
-0.18759159487928698,0.7545848882365936
-0.2868101434545551,0.7369124845256556
-0.407620293274182,0.7317580334432987
-0.4677683253120388,0.7280762826701865
-0.46262746787290576,0.7317580334432987
-0.5058106703616234,0.7199764309693399
-0.5726418170703532,0.7089311786500037
-0.609141904888198,0.6934678254029328
-0.5726418170703532,0.6868406740113311
-0.5541347302894742,0.6728500210735052
-0.5726418170703532,0.6640138192180361
-0.6060573904247182,0.6500231662802102
-0.5726418170703532,0.6411869644247412
-0.5248318428864158,0.6257236111776704
-0.5176346424716295,0.6183601096314462
-0.5695573026068734,0.6073148573121099
-0.5726418170703532,0.5962696049927736
-0.532029043301202,0.5763881508179683
-0.5176346424716295,0.5734427501994787
-0.5901207323634057,0.5741791003541011
-0.6276489916690771,0.5734427501994787
-0.582409446204706,0.5557703464885406
-0.5176346424716295,0.5506158954061837
-0.5407685009477283,0.5498795452515612
-0.5726418170703532,0.5277890406128887
-0.5551629017773009,0.42690906942961737
-0.5176346424716295,0.2560758335572163
-0.5474516156186012,0.049897790262939085
-0.5726418170703532,-0.12977164746493103
-0.5515643015699078,-0.2674691263793233
-0.5176346424716295,-0.3558311449340135
-0.5505361300820811,-0.4213663086954088
-0.5726418170703532,-0.469229068745866
-0.5484797871064279,-0.5200372294148129
-0.5176346424716295,-0.5598001377644235
-0.5556769875212142,-0.5929358947224324
-0.5726418170703532,-0.6054538473510134
-0.5258600143742425,-0.6172354498249721
-0.46262746787290576,-0.6282807021443084
-0.483190897629438,-0.6533166074014706
-0.5176346424716295,-0.6731980615762759
-0.50992335631293,-0.6916068154418364
-0.46262746787290576,-0.6960249163695709
-0.44514855257985336,-0.7070701686889072
-0.407620293274182,-0.7188517711628659
-0.345415918260672,-0.7372605250284263
-0.2976059440767345,-0.7416786259561609
-0.33102151743109937,-0.7446240265746505
-0.35261311867545825,-0.7416786259561609
-0.2991482013084744,-0.7460967268838954
-0.18759159487928698,-0.7416786259561609
-0.13618302048795639,-0.7350514745645591
-0.13258442028056322,-0.7188517711628659
-0.11407733349968421,-0.7048611182250399
-0.022570071083115727,-0.6731980615762759
0.04888784732083382,-0.6334351532266653
0.03243710351560803,-0.5826269925577184
-0.08323218886488584,-0.541391383898863
-0.18759159487928698,-0.49205592353916094
-0.24208468373409744,-0.4346206114786123
-0.24259876947801073,-0.3558311449340135
-0.23437339757539785,-0.2785143786986596
-0.18759159487928698,-0.19751586169019356
-0.14080979218317613,-0.12240814591870686
-0.13258442028056322,-0.03846422829175114
-0.18553525190363376,0.04621603948982699
-0.18759159487928698,0.14267790974536382
-0.12590130560969026,0.22809452768156438
-0.07757724568183948,0.3009931929891838
-0.16599999363492812,0.35401040412199797
-0.2976059440767345,0.41439111680103624
-0.39168363521286953,0.47992628056243153
-0.407620293274182,0.5506158954061837
-0.41893017964027474,0.6065785071574875
-0.407620293274182,0.6640138192180361
-0.40967663624983525,0.7192400808147176
-0.46262746787290576,0.7774117430298886
-0.5469375298746879,0.8157019510702543
-0.5176346424716295,0.8451559572551511
-0.4168738366646215,0.8650374114299564
-0.407620293274182,0.890809666841741
-0.5145501280081497,0.9033276194703221
-0.46262746787290576,0.9136365216350361
-0.17782396574493417,0.9173182724081481
0.14245145271305554,0.9357270262737086
0.41851549719450093,0.950454029366157
1.0225662462926357,0.9585538810670036
2.1689774552193084,0.9445632281291776
3.5534103635778416,0.9357270262737086
4.623736882405345,0.9313089253459741
5.093611252342106,0.9357270262737086
4.691082114857988,0.9254181241089947
3.1683601413867755,0.9136365216350361
0.7583261739211963,0.8967004680787204
-1.5077637852486572,0.890809666841741
-2.6922173392249142,0.8768190139039151
-2.718435712164493,0.8679828120484461
-2.20949082569032,0.8532558089559977
-1.6177781344461046,0.8451559572551511
-1.1042064762767119,0.8304289541627028
-0.7376633408665245,0.8223291024618561
-0.6178813625347243,0.8031839984416732
-0.6276489916690771,0.7774117430298886
-0.6075996476564581,0.7361761343710331
-0.5176346424716295,0.7089311786500037
-0.4996416414346638,0.6868406740113311
-0.5726418170703532,0.6640138192180361
-0.6569518790721355,0.6176237594768238
-0.6276489916690771,0.5734427501994787
-0.5371699007403351,0.5344161920044905
-0.46262746787290576,0.5049621858195937
-0.4837049833733513,0.4600448263876262
-0.5176346424716295,0.41439111680103624
-0.5371699007403351,0.3657920065959566
-0.5176346424716295,0.3238200477824788
-0.5052965846177102,0.2730118871135319
-0.46262746787290576,0.2332489787639213
-0.4158456651767949,0.1971678211874228
-0.407620293274182,0.16550476453865878
-0.4590288676655126,0.11690565433357918
-0.46262746787290576,0.07493369552010132
-0.40556395029852876,0.03664348747973555
-0.35261311867545825,0.0064531311402163906
-0.37060611971242396,-0.03330977720939421
-0.35261311867545825,-0.06129108308504611
-0.281669286015422,-0.08559063818758593
-0.24259876947801073,-0.10694479267163606
-0.3150848593697869,-0.14523500071200182
-0.35261311867545825,-0.17468900689689856
-0.28372562899107523,-0.19236141060783662
-0.18759159487928698,-0.19751586169019356
-0.19221836657450675,-0.2196063663288661
-0.18759159487928698,-0.24243322112216106
-0.09505616097489189,-0.2623146752969664
0.03243710351560803,-0.26526007591545603
0.06585267686997293,-0.2755689780801699
0.08744427811433178,-0.288086930708751
0.15993036800610794,-0.30502298426506663
0.25246580191050305,-0.310913785502046
0.2709728886913821,-0.3219590378213823
0.3074729765092268,-0.33374064029534095
0.4087478680601481,-0.35141304400627904
0.5275016749041218,-0.3558311449340135
0.5711989631367528,-0.35730384524325837
0.6375160241015693,-0.3558311449340135
0.7727205747507688,-0.36761274740797223
0.9125518970951881,-0.3786579997273085
0.945967470449553,-0.39264865266513443
0.9675590716939119,-0.4014848545206035
1.0570099911348272,-0.41621185761305185
1.187587770088807,-0.42431170931389844
1.236425915760571,-0.4338842613239899
1.2425949446875306,-0.44713856410719344
1.260073859980583,-0.4736471696736005
1.2976021192862544,-0.49205592353916094
1.280123203993202,-0.5045738761677421
1.2425949446875306,-0.5148827783324559
1.2086652855892523,-0.5391823334349958
1.187587770088807,-0.5598001377644235
1.1300101667705165,-0.5745271408568718
1.0775734208913594,-0.5826269925577184
1.0287352752195953,-0.6054538473510134
0.9675590716939119,-0.6282807021443084
0.836981292739932,-0.6459531058552465
0.6925231987002931,-0.6511075569376034
0.5645158484658799,-0.6621528092569396
0.4724945003053981,-0.6731980615762759
0.36042380813229735,-0.6879250646687243
0.25246580191050305,-0.6960249163695709
0.15324725333523495,-0.708542868998152
0.08744427811433178,-0.7188517711628659
0.005190559088202804,-0.7321060739460694
-0.07757724568183948,-0.7416786259561609
-0.15623236450057532,-0.7549329287393644
-0.18759159487928698,-0.7637691305948334
-0.22871845439235147,-0.7762870832234146
-0.2976059440767345,-0.7865959853881284
-0.38962729223721626,-0.8020593386351992
-0.407620293274182,-0.8094228401814234
-0.3736906341759038,-0.8131045909545355
-0.35261311867545825,-0.8094228401814234
-0.4122470649694018,-0.81752269188227
-0.46262746787290576,-0.8322496949747183
-0.47239509700725857,-0.8513947989949012
-0.46262746787290576,-0.8550765497680133
-0.501697984410317,-0.8536038494587684
-0.5176346424716295,-0.8550765497680133
-0.49347261250770413,-0.8698035528604616
-0.46262746787290576,-0.8771670544066859
-0.496557126971184,-0.8786397547159307
-0.5176346424716295,-0.8771670544066859
-0.49604304122727066,-0.889685007035267
-0.46262746787290576,-0.8999939091999808
-0.49347261250770413,-0.9044120101277153
-0.5176346424716295,-0.8999939091999808
-0.4996416414346638,-0.9022029596638481
-0.46262746787290576,-0.8999939091999808
-0.48833175506857107,-0.8992575590453584
-0.5176346424716295,-0.8999939091999808
-0.5073529275933634,-0.9139845621378068
-0.46262746787290576,-0.9228207639932758
-0.4754796114707384,-0.9242934643025207
-0.5176346424716295,-0.9228207639932758
-0.5304867860694622,-0.935338716621857
-0.46262746787290576,-0.9456476187865708
-0.40504986455461545,-0.9493293695596828
-0.407620293274182,-0.9456476187865708
-0.46211338212899244,-0.9544838206420398
-0.46262746787290576,-0.9684744735798657
-0.42509920856723443,-0.9832014766723142
-0.407620293274182,-0.9905649782185383
-0.45491618171420617,-1.0030829308471194
-0.46262746787290576,-1.0133918330118332
-0.4101907219937485,-1.0273824859496592
-0.35261311867545825,-1.0362186878051283
-0.363923005041551,-1.0509456908975767
-0.35261311867545825,-1.0590455425984233
-0.29246508663760146,-1.0641999936807802
-0.24259876947801073,-1.0590455425984233
-0.2806411145275954,-1.053154741361444
-0.2976059440767345,-1.0362186878051283
-0.2472255411732305,-1.0178099339395679
-0.18759159487928698,-0.9905649782185383
-0.20250008145277287,-0.9647927228067537
-0.18759159487928698,-0.9228207639932758
-0.11613367647533744,-0.8727489534789513
-0.07757724568183948,-0.8094228401814234
-0.15314785003709547,-0.7483057773477626
-0.18759159487928698,-0.6731980615762759
-0.10842239031663785,-0.590726844258565
-0.022570071083115727,-0.49205592353916094
-0.07397864547444634,-0.3948577031290017
-0.13258442028056322,-0.288086930708751
-0.0796335886574927,-0.18057980813387792
0.03243710351560803,-0.06129108308504611
0.04940193306474713,0.05210684072680634
0.03243710351560803,0.16550476453865878
0.06688084835779953,0.26712108587655253
0.14245145271305554,0.36947375736906873
0.15478951056697487,0.46078117654224865
0.14245145271305554,0.5506158954061837
0.11263447956608379,0.6294053619507824
0.03243710351560803,0.7089311786500037
-0.11973227668273058,0.772993642102154
-0.18759159487928698,0.8223291024618561
-0.11921819093881728,0.8525194588013753
-0.022570071083115727,0.890809666841741
-0.05547155869356732,0.9342543259644638
-0.13258442028056322,0.9813807358602985
-0.14440839239056927,1.0064166411174609
-0.07757724568183948,1.026298095292266
-0.05752790166922054,1.0432341488485817
-0.07757724568183948,1.071951804878856
-0.11253507626794429,1.0940423095175287
-0.13258442028056322,1.117605514465446
-0.2292325401362648,1.1286507667847823
-0.35261311867545825,1.1396960191041186
-0.4220146941037546,1.1374869686402513
-0.35261311867545825,1.1396960191041186
-0.25236639861236354,1.1433777698772307
-0.24259876947801073,1.1625228738974136
-0.34284548954110544,1.1750408265259946
-0.407620293274182,1.1853497286907084
-0.3906554637250429,1.1801952776083515
-0.35261311867545825,1.1853497286907084
-0.37985966310286345,1.1912405299276878
-0.35261311867545825,1.2081765834840035
-0.15674645024448863,1.208912933638626
0.1974586273117793,1.2081765834840035
0.544466504453261,1.2000767317831569
0.9125518970951881,1.2081765834840035
1.5243139323520223,1.2103856339478707
2.6177743096556245,1.2081765834840035
4.007862161197204,1.189767829618443
5.093611252342106,1.1853497286907084
5.1152028535864655,1.184613378536086
3.7734390619727365,1.1853497286907084
1.4549123569237261,1.1625228738974136
-0.9026848646626958,1.1396960191041186
-2.4891534703791582,1.1205509150839357
-2.9934715851581117,1.117605514465446
-2.6819356243466483,1.0991967605998856
-2.002828356637171,1.071951804878856
-1.3741014918311976,1.0321888965292454
-0.9576920392614195,1.0042075906535934
-0.7386915123543512,0.9703354835409622
-0.5726418170703532,0.9357270262737086
-0.4482330670433332,0.8878642662232514
-0.407620293274182,0.8451559572551511
-0.46057112489725255,0.7987658975139388
-0.46262746787290576,0.7545848882365936
-0.39579632116417596,0.6956768758668002
-0.35261311867545825,0.6411869644247412
-0.42150060835984127,0.588169753291927
-0.46262746787290576,0.5506158954061837
-0.41738792240853484,0.5049621858195937
-0.35261311867545825,0.4600448263876262
-0.4045357788107022,0.40702761525481207
-0.46262746787290576,0.36947375736906873
-0.43743726642115377,0.3326562496379478
-0.35261311867545825,0.3009931929891838
-0.33513420338240585,0.2553394834025939
-0.35261311867545825,0.21042212397062632
-0.3413032323093655,0.15961396330167946
-0.2976059440767345,0.11985105495206885
-0.3150848593697869,0.07935179644783583
-0.35261311867545825,0.05210684072680634
-0.34078914656545223,0.024861885005776855
-0.24259876947801073,0.0064531311402163906
-0.17525353702536764,-0.018582774116945838
-0.18759159487928698,-0.03846422829175114
-0.25133822712453696,-0.0642364837035358
-0.24259876947801073,-0.08411793787834108
-0.17988030872058738,-0.11062654344474816
-0.13258442028056322,-0.12977164746493103
-0.16908450809840797,-0.14670770102124667
-0.18759159487928698,-0.1518621521036036
-0.13464076325621646,-0.1636437545775623
-0.022570071083115727,-0.17468900689689856
0.04426107562561407,-0.19088871029859178
0.08744427811433178,-0.19751586169019356
0.12959930911522288,-0.20782476385490742
0.1974586273117793,-0.22034271648348852
0.24372634426397685,-0.24611497189527318
0.3074729765092268,-0.26526007591545603
0.3830435808644828,-0.2814597793171493
0.4724945003053981,-0.288086930708751
0.5388115612702146,-0.3013412334919546
0.6375160241015693,-0.310913785502046
0.7536994022259765,-0.3226953879760047
0.8575447224964643,-0.33374064029534095
0.9027842679608352,-0.35730384524325837
0.9675590716939119,-0.3786579997273085
1.0559818196470006,-0.39706675359286897
1.1325805954900832,-0.4014848545206035
1.1464609105757424,-0.4103210563760725
1.187587770088807,-0.42431170931389844
1.2749823465540688,-0.4493476145710607
1.352609293884978,-0.469229068745866
1.333588121360186,-0.4861651223021816
1.2976021192862544,-0.49205592353916094
1.2914330903592948,-0.5031011758584972
1.2976021192862544,-0.5148827783324559
1.2425949446875306,-0.5310824817341492
1.187587770088807,-0.5377096331257509
1.1454327390879158,-0.5458094848265975
1.0775734208913594,-0.5598001377644235
0.9279744694125873,-0.5877814436400753
0.8025375478977406,-0.6054538473510134
0.7413613443720571,-0.6172354498249721
0.6925231987002931,-0.6282807021443084
0.5578327337950069,-0.654052957556093
0.4174873257066743,-0.6731980615762759
0.3218673773387994,-0.6864523643594794
0.25246580191050305,-0.6960249163695709
0.1306274806030495,-0.7210608216267331
0.03243710351560803,-0.7416786259561609
-0.00868975599745646,-0.7549329287393644
-0.022570071083115727,-0.7637691305948334
-0.10328153287750479,-0.7880686856973732
-0.18759159487928698,-0.8094228401814234
-0.23385931183148453,-0.8234134931192493
-0.24259876947801073,-0.8322496949747183
-0.2970918583328212,-0.8550765497680133
-0.35261311867545825,-0.8771670544066859
-0.37420471991981713,-0.8941031079630015
-0.35261311867545825,-0.8999939091999808
-0.38602869202982315,-0.9139845621378068
-0.46262746787290576,-0.9228207639932758
-0.5191768997033694,-0.9265025147663879
-0.46262746787290576,-0.9228207639932758
-0.3752328914076437,-0.9316569658487448
-0.35261311867545825,-0.9456476187865708
-0.42664146579897433,-0.9611109720336416
-0.46262746787290576,-0.9684744735798657
-0.4343527519576739,-0.9787833757445796
-0.407620293274182,-0.9905649782185383
-0.46828241105595214,-1.0075010317748538
-0.5176346424716295,-1.0133918330118332
-0.5027261558981436,-1.0156008834757007
-0.46262746787290576,-1.0133918330118332
-0.4919303552759642,-1.0229643850219248
-0.5176346424716295,-1.0362186878051283
-0.49758529845901056,-1.0524183912068215
-0.46262746787290576,-1.0590455425984233
-0.4945007839955307,-1.0612545930622905
-0.5176346424716295,-1.0590455425984233
-0.49501486973944403,-1.06714539429927
-0.46262746787290576,-1.0811360472370959
-0.49758529845901056,-1.1002811512572788
-0.5176346424716295,-1.1039629020303907
-0.4909021837881376,-1.102490201721146
-0.46262746787290576,-1.1039629020303907
-0.5042684131298836,-1.1194262552774616
-0.5176346424716295,-1.1267897568236858
-0.4651978965924723,-1.1275261069783082
-0.407620293274182,-1.1267897568236858
-0.43897952365289367,-1.1407804097615117
-0.46262746787290576,-1.1496166116169808
-0.42047243687201463,-1.151825662080848
-0.35261311867545825,-1.1496166116169808
-0.35466946165111146,-1.1628709144001843
-0.35261311867545825,-1.1724434664102756
-0.30223271577195426,-1.169498065791786
-0.24259876947801073,-1.1496166116169808
-0.2672748851858494,-1.1370986589883996
-0.2976059440767345,-1.1267897568236858
-0.2677889709297627,-1.1142718041951045
-0.18759159487928698,-1.0811360472370959
-0.16805633661058136,-1.0406367887328627
-0.18759159487928698,-0.9905649782185383
-0.20404233868451277,-0.9412295178588362
-0.18759159487928698,-0.8771670544066859
-0.2066127674040793,-0.8057410894083112
-0.24259876947801073,-0.7188517711628659
-0.2533945701001902,-0.6312261027627981
-0.18759159487928698,-0.5377096331257509
-0.1284717343292568,-0.4486112644164383
-0.13258442028056322,-0.3558311449340135
-0.19273245231842004,-0.26894182668856814
-0.18759159487928698,-0.17468900689689856
-0.1217886196583838,-0.08559063818758593
-0.07757724568183948,0.0064531311402163906
-0.13464076325621646,0.09260609923103937
-0.18759159487928698,0.18759526917733135
-0.16497182214710152,0.2811117388143785
-0.07757724568183948,0.36947375736906873
-0.02205598533920242,0.43721797159433123
0.03243710351560803,0.5049621858195937
0.09566965001694468,0.5719700498902338
0.14245145271305554,0.6411869644247412
0.10132459319999104,0.6912587749390656
0.03243710351560803,0.7317580334432987
-0.0287391000100754,0.7626847399374402
-0.07757724568183948,0.8002385978231836
-0.1552041930127487,0.8319016544719475
-0.18759159487928698,0.8679828120484461
-0.16548590789101483,0.8922823671509859
-0.13258442028056322,0.9136365216350361
-0.1639436506592749,0.9210000231812602
-0.18759159487928698,0.9357270262737086
-0.17371127979362772,0.9467722785930449
-0.13258442028056322,0.9585538810670036
-0.12076044817055719,0.9556084804485139
-0.07757724568183948,0.9585538810670036
-0.04107715786399475,0.964444682303983
-0.07757724568183948,0.9813807358602985
-0.2400283407584442,0.9828534361695433
-0.35261311867545825,0.9813807358602985
-0.34695817549241187,0.9732808841594519
-0.2976059440767345,0.9813807358602985
-0.3423314037971921,0.9902169377157676
-0.407620293274182,1.0042075906535934
-0.4065921217863554,1.0034712404989712
-0.35261311867545825,1.0042075906535934
-0.34695817549241187,0.9990531395712365
-0.35261311867545825,1.0042075906535934
-0.32690883147979294,1.0027348903443487
-0.24259876947801073,1.0042075906535934
-0.11150690478011768,0.9909532878703899
0.14245145271305554,0.9813807358602985
0.49511427303758354,0.9651810324586053
0.9125518970951881,0.9585538810670036
1.471877186472865,0.9460359284384224
2.4527527858594533,0.9357270262737086
3.8454110661205996,0.9129001714804136
5.093611252342106,0.890809666841741
5.3033582358587354,0.8628283609660892
4.048474934966356,0.8451559572551511
1.7027016854899395,0.8223291024618561
-0.7376633408665245,0.8002385978231836
-2.3986743794504166,0.7641574402466851
-2.938464410559388,0.7317580334432987
-2.6454355365288036,0.6956768758668002
-2.002828356637171,0.6640138192180361
-1.4054607222099091,0.6183601096314462
-0.9576920392614195,0.5734427501994787
-0.6610645650234419,0.5226345895305318
-0.46262746787290576,0.48287168118092116
-0.3885991207493897,0.4364816214397088
-0.407620293274182,0.3923006121623637
-0.46982466828769204,0.340019751184172
-0.46262746787290576,0.3009931929891838
-0.40556395029852876,0.2649120354126853
-0.35261311867545825,0.2332489787639213
-0.36238074780981105,0.18685891902270893
-0.35261311867545825,0.14267790974536382
-0.3222820597845732,0.09923325062264113
-0.2976059440767345,0.07493369552010132
-0.34078914656545223,0.049897790262939085
-0.35261311867545825,0.029279985933511367
-0.3233102312723998,0.0020350302124818795
-0.2976059440767345,-0.016373723653078584
-0.3361623748702324,-0.039200578446373556
-0.35261311867545825,-0.06129108308504611
-0.32022571680892,-0.09074508926994286
-0.2976059440767345,-0.10694479267163606
-0.3485004327241518,-0.11946274530021718
-0.35261311867545825,-0.12977164746493103
-0.2713875711371559,-0.15480755272209326
-0.18759159487928698,-0.17468900689689856
-0.2148381393066922,-0.19015236014396936
-0.24259876947801073,-0.19751586169019356
-0.19941556698929302,-0.21887001617424368
-0.13258442028056322,-0.24243322112216106
-0.15777462173231524,-0.270414526997813
-0.18759159487928698,-0.288086930708751
-0.15366193578100878,-0.31165013565666844
-0.07757724568183948,-0.33374064029534095
-0.05752790166922054,-0.35951289570712563
-0.022570071083115727,-0.3786579997273085
0.056599133479533416,-0.4029575548298483
0.14245145271305554,-0.42431170931389844
0.15684585354262812,-0.4500839647256831
0.1974586273117793,-0.469229068745866
0.30181803332618046,-0.49279227369378337
0.4174873257066743,-0.5148827783324559
0.4437056986462529,-0.5421277340534855
0.4724945003053981,-0.5598001377644235
0.5640017627219666,-0.5737907907022495
0.6925231987002931,-0.5826269925577184
0.7526712307381499,-0.6039811470417685
0.8025375478977406,-0.6282807021443084
0.8935307245703957,-0.6555256578653379
1.0225662462926357,-0.6731980615762759
1.0919678217209319,-0.6952885662149485
1.1325805954900832,-0.7188517711628659
1.1922145417840266,-0.7468330770385178
1.2976021192862544,-0.7637691305948334
1.355693808348458,-0.7770234333780369
1.352609293884978,-0.7865959853881284
1.3217641492501797,-0.8086864900268009
1.352609293884978,-0.8322496949747183
1.402989696788482,-0.858021950386503
1.4076164684837018,-0.8771670544066859
1.308397919908434,-0.9022029596638481
1.187587770088807,-0.9228207639932758
1.0883692215135388,-0.9404931677042139
1.0225662462926357,-0.9456476187865708
0.9346575840834602,-0.9544838206420398
0.8575447224964643,-0.9684744735798657
0.7799177751655552,-0.9876195776000486
0.6925231987002931,-0.9905649782185383
0.5650299342097932,-0.9876195776000486
0.4724945003053981,-0.9905649782185383
0.4020647533892751,-1.0148645333210782
0.3074729765092268,-1.0362186878051283
0.14707822440827528,-1.0494729905883318
0.03243710351560803,-1.0590455425984233
-0.022570071083115727,-1.0826087475463406
-0.07757724568183948,-1.1039629020303907
-0.19324653806233336,-1.1179535549682167
-0.24259876947801073,-1.1267897568236858
-0.2055845959162527,-1.1488802614623583
-0.18759159487928698,-1.1724434664102756
-0.30223271577195426,-1.1886431698119688
-0.407620293274182,-1.1945339710489482
-0.4060780360424421,-1.206315573522907
-0.35261311867545825,-1.2173608258422433
-0.39373997818852274,-1.2298787784708243
-0.46262746787290576,-1.2401876806355383
-0.483190897629438,-1.255651033882609
-0.46262746787290576,-1.2630145354288331
-0.4945007839955307,-1.2637508855834556
-0.5176346424716295,-1.2630145354288331
-0.49758529845901056,-1.2740597877481694
-0.46262746787290576,-1.2858413902221282
-0.4945007839955307,-1.2902594911498626
-0.5176346424716295,-1.2858413902221282
-0.49552895548335735,-1.2851050400675057
-0.46262746787290576,-1.2858413902221282
-0.5119796992885831,-1.2880504406859954
-0.5726418170703532,-1.2858413902221282
-0.5757263315338331,-1.2865777403767507
-0.5176346424716295,-1.2858413902221282
-0.5166064709838029,-1.2865777403767507
-0.5726418170703532,-1.2858413902221282
-0.620965876998204,-1.2880504406859954
-0.5726418170703532,-1.2858413902221282
-0.49552895548335735,-1.2843686899128832
-0.46262746787290576,-1.2858413902221282
-0.5037543273859703,-1.2983593428507092
-0.5176346424716295,-1.3079318948608007
-0.4903880980442243,-1.3130863459431577
-0.46262746787290576,-1.3079318948608007
-0.496557126971184,-1.3079318948608007
-0.5176346424716295,-1.3079318948608007
-0.4986134699468372,-1.3123499957885352
-0.46262746787290576,-1.3079318948608007
-0.4734232684950852,-1.3079318948608007
-0.46262746787290576,-1.3079318948608007
-0.41121889348157514,-1.3138226960977801
-0.35261311867545825,-1.3079318948608007
-0.3567258046267647,-1.2983593428507092
-0.35261311867545825,-1.2858413902221282
-0.32073980255283324,-1.2806869391397713
-0.2976059440767345,-1.2630145354288331
-0.3423314037971921,-1.2350332295531812
-0.35261311867545825,-1.1945339710489482
-0.28423971473498855,-1.1577164633178274
-0.18759159487928698,-1.1039629020303907
-0.1726831083058011,-1.0347459874958835
-0.18759159487928698,-0.9456476187865708
-0.19119019508668014,-0.8587583005411253
-0.18759159487928698,-0.7637691305948334
-0.22974662588017808,-0.6621528092569396
-0.24259876947801073,-0.5377096331257509
-0.21226771058712568,-0.405902955448338
-0.18759159487928698,-0.26526007591545603
-0.24568328394149058,-0.13124434777417587
-0.2976059440767345,0.0064531311402163906
-0.2904087436619482,0.1382598088176293
-0.24259876947801073,0.27890268835051124
-0.24208468373409744,0.41439111680103624
-0.24259876947801073,0.5506158954061837
-0.2204930824897386,0.6676955699911482
-0.18759159487928698,0.7774117430298886
-0.2138099678188656,0.8701918625123133
-0.24259876947801073,0.9585538810670036
-0.23385931183148453,1.0292434959107557
-0.18759159487928698,1.094778659672151
-0.1968451382697265,1.1477958708049651
-0.24259876947801073,1.2081765834840035
-0.2636762849784563,1.263402845080685
-0.18759159487928698,1.321574507295856
-0.10173927564576486,1.3664918667278234
-0.07757724568183948,1.4121455763144133
-0.11202099052403099,1.4460176834270446
-0.07757724568183948,1.479889790539676
0.007246902063856029,1.499771244714481
0.03243710351560803,1.5255435001262658
-0.0796335886574927,1.5454249543010712
-0.18759159487928698,1.5704608595582334
-0.21072545335538576,1.587396913114549
-0.18759159487928698,1.6161145691448233
-0.2066127674040793,1.6389414239381184
-0.18759159487928698,1.661031928576791
-0.11613367647533744,1.6661863796591478
-0.07757724568183948,1.6838587833700858
-0.15160559280535557,1.7044765876995136
-0.18759159487928698,1.7295124929566759
-0.11202099052403099,1.7295124929566759
-0.022570071083115727,1.7295124929566759
-0.08426036035271246,1.7309851932659206
-0.18759159487928698,1.7523393477499707
-0.23848608352670428,1.763384600069307
-0.24259876947801073,1.7744298523886433
-0.3104580876745672,1.7714844517701536
-0.35261311867545825,1.7744298523886433
-0.3258806599919663,1.7692754013062864
-0.2976059440767345,1.7744298523886433
-0.34438774677284534,1.7729571520793985
-0.35261311867545825,1.7744298523886433
-0.3166271166015268,1.7604391994508173
-0.35261311867545825,1.7523393477499707
-0.4693105825437787,1.7376123446575225
-0.407620293274182,1.7295124929566759
-0.1546901072688354,1.7059492880087583
0.03243710351560803,1.6838587833700858
0.1054372791512975,1.6492503261028322
0.5275016749041218,1.6161145691448233
1.537166075949855,1.568251809094366
2.8378030080505194,1.5255435001262658
4.0453904205028755,1.4762080397665638
5.093611252342106,1.4349724311077083
5.593816681169754,1.3782734692017822
4.763568204749764,1.321574507295856
2.38540755340681,1.2575120438437055
-0.407620293274182,1.2081765834840035
-2.202807711019447,1.152950321887322
-2.607907277223132,1.094778659672151
-2.2758078866551363,1.0204072940552866
-1.7827996582422758,0.9585538810670036
-1.295960458756375,0.8989095185425877
-0.847677690063972,0.8451559572551511
-0.6045151331929782,0.7737299922567765
-0.5726418170703532,0.7089311786500037
-0.614282762327331,0.6470777656617205
-0.5726418170703532,0.5962696049927736
-0.4980993842029239,0.5351525421591129
-0.46262746787290576,0.48287168118092116
-0.5011838986664037,0.43206352051197433
-0.5176346424716295,0.3923006121623637
-0.49758529845901056,0.34149245149341684
-0.46262746787290576,0.3009931929891838
-0.476507782958565,0.26270298494881805
-0.46262746787290576,0.2332489787639213
-0.42921189451854086,0.1934860704143107
-0.407620293274182,0.16550476453865878
-0.4554302674581195,0.13973250912687415
-0.46262746787290576,0.11985105495206885
-0.40145126434722234,0.08376989737557033
-0.35261311867545825,0.05210684072680634
-0.40916255050592193,0.024125534851154436
-0.46262746787290576,0.0064531311402163906
-0.4322964089820207,-0.019319124271568257
-0.35261311867545825,-0.03846422829175114
-0.34335957528501876,-0.06129108308504611
-0.35261311867545825,-0.08411793787834108
-0.33564828912631917,-0.12167179576408443
-0.2976059440767345,-0.1518621521036036
-0.3073735732110873,-0.17763440751538825
-0.2976059440767345,-0.19751586169019356
-0.2472255411732305,-0.23212431895744723
-0.18759159487928698,-0.26526007591545603
-0.19530288103798657,-0.29397773194573035
-0.18759159487928698,-0.310913785502046
-0.12230270540229711,-0.3411041418415652
-0.022570071083115727,-0.3786579997273085
0.013415930990815702,-0.4213663086954088
0.03243710351560803,-0.44713856410719344
0.07047944856519268,-0.469229068745866
0.14245145271305554,-0.49205592353916094
0.18820508392133978,-0.5281370811156595
0.25246580191050305,-0.5598001377644235
0.3475716645344647,-0.5885177937946978
0.4724945003053981,-0.6054538473510134
0.5588609052828335,-0.6282807021443084
0.6375160241015693,-0.6511075569376034
0.7146288856885652,-0.676879812349388
0.8025375478977406,-0.6960249163695709
0.8554883795208111,-0.7195881213174883
0.9125518970951881,-0.7416786259561609
0.9819534725234844,-0.768187231522568
1.0775734208913594,-0.7865959853881284
1.1423482246244359,-0.8094228401814234
1.187587770088807,-0.8322496949747183
1.2086652855892523,-0.8609673510049927
1.2425949446875306,-0.8771670544066859
1.2688133176271092,-0.889685007035267
1.2976021192862544,-0.8999939091999808
1.286806318664075,-0.9242934643025207
1.2425949446875306,-0.9456476187865708
1.1546862824783553,-0.961847322188264
1.0775734208913594,-0.9684744735798657
1.0122845314143696,-0.9802560760538245
0.9675590716939119,-0.9905649782185383
0.8919884673386559,-1.003819281001742
0.8025375478977406,-1.0133918330118332
0.7043471708102991,-1.0281188361042817
0.6375160241015693,-1.0362186878051283
0.5470369331728274,-1.0399004385782404
0.4174873257066743,-1.0362186878051283
0.2653179455083357,-1.037691388114373
0.1974586273117793,-1.0362186878051283
0.18512056945785996,-1.0362186878051283
0.14245145271305554,-1.0362186878051283
-0.002006641326583481,-1.048000290279087
-0.13258442028056322,-1.0590455425984233
-0.18759159487928698,-1.0649363438354025
-0.18759159487928698,-1.0590455425984233
-0.22306351120930512,-1.0561001419799336
-0.24259876947801073,-1.0590455425984233
-0.2390001692706176,-1.0715634952270043
-0.24259876947801073,-1.0811360472370959
-0.31097217341848044,-1.087026848474075
-0.35261311867545825,-1.0811360472370959
-0.3495286042119784,-1.0789269967732285
-0.35261311867545825,-1.0811360472370959
-0.42869780877462754,-1.0951267001749216
-0.46262746787290576,-1.1039629020303907
-0.41327523645722836,-1.1083810029581254
-0.35261311867545825,-1.1039629020303907
-0.39785266413982917,-1.1046992521850132
-0.46262746787290576,-1.1039629020303907
-0.4770218687024783,-1.106171952494258
-0.46262746787290576,-1.1039629020303907
-0.5166064709838029,-1.1054356023396357
-0.5726418170703532,-1.1039629020303907
-0.5716136455825267,-1.106171952494258
-0.5176346424716295,-1.1039629020303907
-0.5088951848251033,-1.1054356023396357
-0.5176346424716295,-1.1039629020303907
-0.50683884184945,-1.106171952494258
-0.46262746787290576,-1.1039629020303907
-0.47033875403160535,-1.1054356023396357
-0.5176346424716295,-1.1039629020303907
-0.557219244752954,-1.106171952494258
-0.5176346424716295,-1.1039629020303907
-0.4677683253120388,-1.1054356023396357
-0.46262746787290576,-1.1039629020303907
-0.5140360422642364,-1.106171952494258
-0.5176346424716295,-1.1039629020303907
-0.4806204689098715,-1.1054356023396357
-0.46262746787290576,-1.1039629020303907
-0.5109515278007565,-1.1069083026488804
-0.5176346424716295,-1.1039629020303907
-0.46005703915333923,-1.1054356023396357
-0.407620293274182,-1.1039629020303907
-0.44309220960420015,-1.1091173531127476
-0.46262746787290576,-1.1039629020303907
-0.41533157943288157,-1.0965994004841666
-0.35261311867545825,-1.0811360472370959
-0.3634089192976377,-1.0730361955362493
-0.35261311867545825,-1.0590455425984233
-0.2734439141128091,-1.0435821893513524
-0.18759159487928698,-1.0133918330118332
-0.206098681660166,-0.9773106754353348
-0.24259876947801073,-0.9228207639932758
-0.22820436864843818,-0.8609673510049927
-0.18759159487928698,-0.7865959853881284
-0.21535222505060553,-0.7144336702351314
-0.24259876947801073,-0.6282807021443084
-0.22409168269713173,-0.5340278823526389
-0.18759159487928698,-0.42431170931389844
-0.21689448228234542,-0.3153318864297805
-0.24259876947801073,-0.19751586169019356
-0.22460576844104502,-0.07896348679598417
-0.18759159487928698,0.05210684072680634
-0.2148381393066922,0.17655001685799507
-0.24259876947801073,0.3009931929891838
-0.2292325401362648,0.4136547666464138
-0.18759159487928698,0.5277890406128887
-0.2050705101723394,0.6316144124146498
-0.24259876947801073,0.7317580334432987
-0.26264811349062966,0.8134929006063871
-0.24259876947801073,0.890809666841741
-0.24414102670975066,0.9570811807577587
-0.24259876947801073,1.026298095292266
-0.22820436864843818,1.0844697575074371
-0.18759159487928698,1.1396960191041186
-0.19376062380624667,1.1831406782268412
-0.24259876947801073,1.2310034382772985
-0.3042890587476075,1.2729753970907762
-0.2976059440767345,1.321574507295856
-0.2616199420028031,1.356919314717732
-0.24259876947801073,1.3893187215211185
-0.281669286015422,1.4092001756959238
-0.2976059440767345,1.4349724311077083
-0.27755660006411553,1.4548538852825137
-0.24259876947801073,1.479889790539676
-0.2503100556367103,1.4975621942506139
-0.24259876947801073,1.5255435001262658
-0.2148381393066922,1.5476340047649384
-0.18759159487928698,1.5704608595582334
-0.20352825294059948,1.5778243611044576
-0.18759159487928698,1.5932877143515283
-0.1464647353662225,1.610223767907844
-0.13258442028056322,1.6389414239381184
-0.1886197663671136,1.6521957267213219
-0.18759159487928698,1.661031928576791
-0.08888713204793221,1.6580865279583012
0.03243710351560803,1.661031928576791
0.06585267686997293,1.6580865279583012
0.08744427811433178,1.661031928576791
0.1321697378347894,1.6521957267213219
0.14245145271305554,1.6389414239381184
0.03243710351560803,1.611696468217089
-0.07757724568183948,1.5932877143515283
-0.08991530353575883,1.5726699100221007
-0.022570071083115727,1.5476340047649384
0.008789159295595947,1.4968258440959916
0.03243710351560803,1.4349724311077083
0.06533859112605962,1.3642828162639562
0.08744427811433178,1.298747652502561
0.04426107562561407,1.21627643518485
0.03243710351560803,1.117605514465446
0.08384567790693864,0.9946350386435021
0.14245145271305554,0.8679828120484461
0.08178933493128542,0.7332307337525434
-0.022570071083115727,0.5962696049927736
-0.10585196159707132,0.44089972236744335
-0.13258442028056322,0.27890268835051124
-0.17473945128145432,0.10512405185962048
-0.18759159487928698,-0.06129108308504611
-0.17782396574493417,-0.22034271648348852
-0.18759159487928698,-0.3558311449340135
-0.24465511245366398,-0.48763782261142646
-0.24259876947801073,-0.6282807021443084
-0.20969728186755915,-0.7902777361612404
-0.24259876947801073,-0.9456476187865708
-0.30994400193065386,-1.0877631986286975
-0.18759159487928698,-1.2173608258422433
0.03449344649126125,-1.3565310050658803
0.08744427811433178,-1.489810383052538
0.08230342067519872,-1.6120445087198596
0.6375160241015693,-1.7158698805216206
1.8949697537135162,-1.8219043027872488
3.278374490584223,-1.9198388733520304
4.296264263532569,-2.0096735922159654
5.093611252342106,-2.078890506750473
5.504365761728838,-2.140743919738756
4.70856103015104,-2.1922884305623254
2.3370834934789593,-2.2416238909220274
-0.46262746787290576,-2.2828594995808826
-2.14882870790855,-2.321149707621249
-2.3328714042295133,-2.3506037138061453
-1.8336941468896932,-2.3771123193725523
-1.3427422614524858,-2.3962574233927354
-0.9731146115788187,-2.4124571267944286
-0.6276489916690771,-2.4190842781860304
-0.4086484647620086,-2.420556978495275
-0.35261311867545825,-2.4190842781860304
-0.3911695494689562,-2.420556978495275
-0.407620293274182,-2.4190842781860304
-0.4281837230307142,-2.411720776639806
-0.46262746787290576,-2.3962574233927354
-0.5022120701542303,-2.382266770454909
-0.46262746787290576,-2.3734305685994403
-0.3885991207493897,-2.367539767362461
-0.35261311867545825,-2.3506037138061453
-0.42150060835984127,-2.3270405088582278
-0.46262746787290576,-2.3056863543741777
-0.42715555154288765,-2.293904751900219
