ECG,PPG
4.279458995155167,-0.5970565248182069
6.813798982880798,0.8447061500812345
7.425761778884522,0.9961789743499778
5.794830051767711,0.5768578632645541
3.1165843234141266,0.4059891285711546
0.9260191605219403,0.5491494198007596
-0.13146999409256882,0.6498234310525464
-0.3676789117899678,0.5408368867616212
-0.3240711115996788,0.4115308172639135
-0.2717417513713319,0.4133780468281665
-0.2775561247300371,0.47710746679489385
-0.35677696174239554,0.44385733463834043
-0.4781520056053667,0.3496486268614391
-0.5639140126462685,0.3099331912300003
-0.5835375227318985,0.33948886425804775
-0.5755427593636788,0.32840548687252996
-0.5806303360525459,0.269294140816435
-0.5980734561286616,0.2286550904028697
-0.6089754061762338,0.24066208257051397
-0.6104289995159101,0.238814853006261
-0.6169701695444535,0.20648833563183408
-0.6380472729697598,0.16862012956464822
-0.6591243763950662,0.16307844087188933
-0.6722067164521529,0.1519950634863715
-0.6605779697347425,0.13721722697234778
-0.6474956296776558,0.10489070959792084
-0.6285989162618638,0.09196010264815006
-0.6097022028460719,0.07718226613412632
-0.6017074394778523,0.06702250353073501
-0.6067950161667194,0.037466830502687516
-0.6097022028460719,0.019918149642284323
-0.5973466594588234,0.005140313128260578
-0.5769963527033551,-0.0022486051287512934
-0.5610068259669159,-0.032727892938925265
-0.5450172992304766,-0.05120018858145494
-0.5188526191163031,-0.06597802509547869
-0.48905395565293897,-0.07244332857036408
-0.4766984122656904,-0.10292261638053804
-0.48323958229423375,-0.1223185268051942
-0.48469317563391007,-0.13709636331921796
-0.4527141221610314,-0.14263805201197685
-0.40329194861203715,-0.17311733982215083
-0.37567367515818745,-0.192513250246807
-0.3851220318660834,-0.20636747197870425
-0.3916632018946268,-0.21283277545358964
-0.36113774176142444,-0.24515929282801657
-0.2986332281553435,-0.2737913510739376
-0.23976269789845328,-0.29872895019135265
-0.19615489770816424,-0.3125831719232499
-0.1540006908575515,-0.34768053364405627
-0.09440336393082314,-0.3707709031972184
-0.015909323588302878,-0.38554873971124215
0.07639385348114225,-0.39016681362187455
0.17596499724896889,-0.42434056056055447
0.2762629376866337,-0.4677504553204992
0.37220009810526955,-0.5167020387732029
0.47685881856196327,-0.5481049413655033
0.6062286257931541,-0.5887439917790686
0.7566755364496512,-0.621994123935622
0.9013080737474433,-0.6570914856564284
1.0146883542421947,-0.6746401665168316
1.0975431746037438,-0.7005013804163731
1.1767640116161022,-0.7217445204052823
1.2676135953458711,-0.7476057343048238
1.349014822367744,-0.7586891116903416
1.3839010625199752,-0.7762377925507449
1.3620971624248308,-0.7947100881932745
1.3032266321679404,-0.829807449914081
1.2298201685142873,-0.852897819467243
1.1396973814543567,-0.8769118038025315
1.0175955409215474,-0.8944604846629348
0.8686022236047265,-0.9240161576909822
0.7217892962974201,-0.9397176089871325
0.5953266757455818,-0.9544954455011563
0.4833999885905066,-0.9655788228866741
0.37001970809575513,-0.994210881132595
0.25809302094067993,-1.0117595619929982
0.15706828383317697,-1.0256137837248955
0.0756670568113041,-1.0357735463282869
0.01606972988457575,-1.0634819897920813
-0.013002136908950275,-1.0828779002167375
-0.02027010360733178,-1.0967321219486348
-0.028264866975551438,-1.1059682697698996
-0.06024392044843007,-1.139218401926453
-0.10457851730855726,-1.169697689736627
-0.13437718077192143,-1.1955589036361685
-0.13437718077192143,-1.2084895105859392
-0.12710921407353992,-1.2371215688318604
-0.13728436745127404,-1.2611355531671489
-0.16926342092415267,-1.2823786931560581
-0.19542810103832609,-1.2851495375024375
-0.20051567772719314,-1.3045454479270937
-0.19179411768913535,-1.3285594322623822
-0.18961372767962087,-1.3581151052904297
-0.19688169437800238,-1.3599623348546828
-0.20633005108589836,-1.3618095644189356
-0.2157784077937943,-1.3664276383295682
-0.22668035784136656,-1.3867471635363506
-0.23467512120958622,-1.3784346304972124
-0.2426698845778059,-1.3553442609440502
-0.2572058179745689,-1.3276358174802558
-0.27682932806019894,-1.3239413583517499
-0.2862776847680949,-1.2990037592343346
-0.2761025313903608,-1.251899405345884
-0.25938620798408335,-1.1909408297255362
-0.25066464794602555,-1.1567670827868561
-0.24557707125715847,-1.1133571880269115
-0.23540191787942438,-1.049627768060184
-0.2244999678318521,-0.9572662898475357
-0.22304637449217582,-0.8879951811880494
-0.22740715451120472,-0.8196476873106896
-0.2244999678318521,-0.7448348899584444
-0.2085104410954128,-0.6358483456675192
-0.1910673210192972,-0.536097949197859
-0.18597974433043013,-0.44650731533159005
-0.19324771102881164,-0.3680000588508389
-0.20414966107638388,-0.25808989977778735
-0.20487645774622204,-0.14725612592260928
-0.19324771102881164,-0.04842934423507549
-0.18016537097172491,0.02176537920653729
-0.18307255765107752,0.12151577567619755
-0.2012424743970313,0.238814853006261
-0.21941239114298505,0.3496486268614391
-0.22377317116201395,0.41430166161029297
-0.21941239114298505,0.498350606783803
-0.21941239114298505,0.6101079954211076
-0.228860747850881,0.7246362284047916
-0.23976269789845328,0.7837475744608865
-0.2426698845778059,0.8456297648633609
-0.24048949456829144,0.927831480472618
-0.23830910455877696,1.0201929586852665
-0.23612871454926251,1.0617556238809582
-0.228860747850881,1.1005474447302706
-0.21941239114298505,1.155040716875733
-0.21650520446363244,1.2280062846637254
-0.22522676450169027,1.2594091872560258
-0.23903590122861512,1.2843467863734408
-0.25066464794602555,1.3175969185299943
-0.2564790213047307,1.370242961111204
-0.25502542796505445,1.3905624863179864
-0.24339668124764402,1.4044167080498837
-0.23104113786039546,1.4173473149996545
-0.23249473120007177,1.4552155210668403
-0.24848425793651108,1.4709169723629907
-0.26374698800311225,1.4820003497485084
-0.26520058134278857,1.4838475793127615
-0.26156659799359777,1.5087851784301765
-0.25793261464440703,1.5217157853799472
-0.23104113786039546,1.5300283184190855
-0.1452791308194937,1.5161740966871884
-0.00718776355024507,1.5180213262514413
0.11782126366191684,1.5143268671229353
0.17087742056010183,1.5124796375586824
0.17233101389977815,1.479229505402129
0.21012444073136197,1.443208528899196
0.3365870612832002,1.3979514045749983
0.4972091253174315,1.3656248872005714
0.5858783190376858,1.3194441480942471
0.5626208256028651,1.2871176307198202
0.4826731919206685,1.2547911133453933
0.412900711616206,1.2418605063956225
0.3569373680386684,1.2076867594569427
0.2711753609977666,1.1688949386076304
0.15125391047447176,1.1134780516800413
0.04732198668761623,1.0793043047413613
-0.010821746899435823,1.038665254327796
-0.0391668170231237,1.0044915073891163
-0.10966609399742432,0.9518454648079067
-0.214324814454118,0.9204425622156062
-0.29936002482518165,0.8899632744054322
-0.3175299415711354,0.8696437491986495
-0.30372080484421055,0.8280810840029578
-0.32116392492032614,0.8040670996676692
-0.3691325051296441,0.7800531153323806
-0.38875601521527414,0.7634280492541039
-0.35677696174239554,0.7227889988405386
-0.34006063833611805,0.696927784940997
-0.4141938986596094,0.6729138006057085
-0.5719087760144881,0.6590595788738112
-0.7368916200677483,0.6174969136781194
-0.821926830438812,0.5897884702143249
-0.702005379915517,0.5666981006611628
-0.13219679076240698,0.553767493711392
1.1476921448225763,0.5131284432978267
3.094053626649144,0.48264915548765275
5.1116411821198495,0.4586351711523642
6.257799530454614,0.4475517937668464
5.872597295440394,0.41245443204604
4.118836931120936,0.39121129205713084
1.9064678681336056,0.37550984076098065
0.21157803407103828,0.3718153816324747
-0.5864447094112512,0.33856524947592126
-0.7528811468041876,0.3099331912300003
-0.7070929566043841,0.28222474776620576
-0.6344132896205691,0.2702177555985615
-0.547197689239991,0.238814853006261
-0.4926879390021297,0.21572448345309891
-0.5319349591733898,0.19540495824631626
-0.6220577462333206,0.19171049911781032
-0.658397579725228,0.1704673591289012
-0.6285989162618638,0.1584603669612569
-0.6046146261572048,0.14645337479361262
-0.6235113395729969,0.1473769895757391
-0.6482224263474939,0.1289046939332094
-0.6511296130268466,0.11412685741918568
-0.648949223017332,0.09288371743027656
-0.6554903930458754,0.08549479917326468
-0.6707531231124766,0.062404429620102585
-0.6700263264426385,0.04485574875969939
-0.667845936433124,0.02176537920653729
-0.6634851564140951,0.01252923138527245
-0.6722067164521529,-0.008713908603636682
-0.6874694465187541,-0.02441535989978691
-0.6925570232076211,-0.04935295901720197
-0.6794746831505344,-0.0595127216205933
-0.6554903930458754,-0.07890863204524946
-0.6395008663094361,-0.09276285377714671
-0.6336864929507309,-0.11954768245881475
-0.6256917295825113,-0.13155467462645903
-0.6031610328175286,-0.14910335548686224
-0.5697283860049737,-0.162033962436633
-0.5399297225416095,-0.18974240590042754
-0.5195794157861413,-0.20359662763232478
-0.5035898890497019,-0.21837446414634853
-0.4803323956148811,-0.23315230066037226
-0.4512605288213551,-0.26917327716330514
-0.42436905203734354,-0.2941108762807202
-0.40765272863106605,-0.3172012458338823
-0.388029218545436,-0.3347499266942855
-0.35677696174239554,-0.3744653623257243
-0.31026197487275387,-0.40217380578951883
-0.26229339466343593,-0.42434056056055447
-0.2186855944731469,-0.43911839707457817
-0.17507779428285786,-0.4732921440132581
-0.11766085736564397,-0.49361166922004074
-0.0435275970421526,-0.5056186613876851
0.042234409998749174,-0.5130075796446969
0.1316304003888417,-0.5481049413655033
0.22175318744877237,-0.5776606143935508
0.31696355119757014,-0.6007509839467129
0.42089547498442564,-0.6146052056786101
0.5328221621395008,-0.64877895261729
0.6476560359739286,-0.6718693221704521
0.7639435031480327,-0.6847999291202229
0.8787773769824606,-0.6903416178129819
0.9892504707978594,-0.7235917499695352
1.0851876312164954,-0.7522238082154562
1.160774484879663,-0.7753141777686183
1.213830641777848,-0.7891683995005156
1.2407221185618595,-0.8270366055677014
1.2356345418729926,-0.8584395081600019
1.1963875217017323,-0.881529877713164
1.1309758214162988,-0.8944604846629348
1.0481210010547497,-0.9360231498586266
0.9500034506265993,-0.9895928072219626
0.8351695767921715,-1.0487041532780577
0.7065265662308189,-1.0893432036916229
0.5669816056218939,-1.1346003280158206
0.4216222716542638,-1.166003230608121
0.28135051437550074,-1.192788059289789
0.16360945386172032,-1.2020242071110538
0.07857424349065671,-1.2195728879714571
0.021884103243280956,-1.2371215688318604
-0.02027010360733178,-1.2611355531671489
-0.05224915708021041,-1.2722189305526668
-0.07841383719438383,-1.2906912261951964
-0.10239812729904281,-1.3100871366198525
-0.12565562073386363,-1.3442608835585323
-0.1423719441401411,-1.3664276383295682
-0.15908826754641855,-1.3913652374469831
-0.17798498096221047,-1.4126083774358922
-0.19542810103832609,-1.448629353938825
-0.19470130436848793,-1.4754141826204932
-0.18234576098123936,-1.4994281669557818
-0.18089216764156307,-1.515129618251932
-0.20487645774622204,-1.5428380617157265
-0.23249473120007177,-1.5631575869225092
-0.2426698845778059,-1.5816298825650388
-0.23830910455877696,-1.5871715712577976
-0.24339668124764402,-1.6093383260288334
-0.25938620798408335,-1.6342759251462484
-0.2702881580316556,-1.6592135242636634
-0.26810776802214115,-1.656442679917284
-0.26374698800311225,-1.6573662946994105
-0.2717417513713319,-1.6647552129564225
-0.2884580747776094,-1.683227508598952
-0.3000868214950198,-1.6666024425206754
-0.296452838145829,-1.635199539928375
-0.28264370141890416,-1.6102619408109597
-0.2746489380506845,-1.6130327851573392
-0.2790097180697134,-1.5788590382186594
-0.28555088809825674,-1.5142060034698055
-0.27682932806019894,-1.4541710426315841
-0.25793261464440703,-1.4366223617711809
-0.24921105460634924,-1.3885943931006037
-0.2572058179745689,-1.2943856853237024
-0.2644737846729504,-1.1881699853791567
-0.2630201913332741,-1.1327530984515677
-0.26520058134278857,-1.0625583750099548
-0.2790097180697134,-0.9480301420262709
-0.28918487144744753,-0.8122587690536777
-0.27828292139987526,-0.7282098238801676
-0.25938620798408335,-0.6478553378351636
-0.2572058179745689,-0.5333271048514796
-0.27392214138084636,-0.3873959692754951
-0.29136526145696195,-0.2811802693309494
-0.2942724481363146,-0.18881879111830105
-0.2862776847680949,-0.0826030911737554
-0.27392214138084636,0.05501551136309071
-0.2630201913332741,0.16492567043614229
-0.2586594113142452,0.2572871486487907
-0.25284503795554,0.3431833233865537
-0.23903590122861512,0.4595587859344907
-0.22522676450169027,0.5685453302254158
-0.23322152786990993,0.6646012675665701
-0.26810776802214115,0.7357196057903094
-0.30226721150453423,0.8243866248744518
-0.3160763482314591,0.9102827996122148
-0.31680314490129724,0.9897136708750924
-0.320437128250488,1.0368180247635432
-0.3233443149298406,1.0977766003838911
-0.3131691615521065,1.1652004794791244
-0.3000868214950198,1.2344715881386108
-0.30953517820291576,1.2667981055130377
-0.3451482150249851,1.3083607707087295
-0.38003445517721635,1.3600831985078126
-0.3873024218755979,1.4238126184745399
-0.3691325051296441,1.4515210619383345
-0.349508995044014,1.4820003497485084
-0.35459657173288106,1.5161740966871884
-0.3909364052247886,1.563278450575639
-0.4323638154055632,1.5789799018717892
-0.43890498543410655,1.5946813531679394
-0.39457038857397936,1.6103828044640898
-0.3088083815330776,1.6454801661848961
-0.19542810103832609,1.658410773134667
-0.07768704052454568,1.6685705357380582
-0.002826983531216166,1.672264994866564
0.002987389827489039,1.6972025939839792
0.002987389827489039,1.7073623565873706
0.09965134691596307,1.7129040452801294
0.2937060577627493,1.6981262087661055
0.4485137484382754,1.7008970531124852
0.4594156984858476,1.6935081348554732
0.37801447146397477,1.6888900609448407
0.3198707378769227,1.6657996913916786
0.2951596511024256,1.6630288470452992
0.23192834082650648,1.6593343879167932
0.10546572027466827,1.6574871583525403
-0.022450493616846232,1.6242370261959869
-0.093676567260985,1.6039175009892042
-0.13437718077192143,1.5854452053466745
-0.17943857430188678,1.5725145983969038
-0.26665417468246483,1.5170977114693147
-0.3647717251106152,1.4496738323740814
-0.4272762387166961,1.3739374202397097
-0.43018342539604876,1.3203677628763737
-0.42000827201831464,1.2566383429096464
-0.4527141221610314,1.2067631446748162
-0.494141532341806,1.158735176004239
-0.47088403890698516,1.135644806451077
-0.40547233862155163,1.1005474447302706
-0.4250958487071817,1.0682209273558436
-0.5828107260620604,1.01926934390314
-0.7812262169278755,0.990637285657219
-0.8975136841019796,0.958310768282792
-0.865534630629101,0.9352203987296299
-0.5435637058908003,0.895504963098191
0.36493213140688807,0.8751854378914085
2.038744862044149,0.8502478387739933
4.123197711139965,0.8262338544387048
5.72069679144422,0.7763586562038747
5.975802422557411,0.7421849092651948
4.748242847200775,0.7107820066728943
2.7182997483428197,0.6913860962482381
0.8431643401603912,0.6498234310525464
-0.3073547881934013,0.6230386023708784
-0.7412524000867772,0.5999482328177163
-0.7710510635501414,0.5851703963036925
-0.6714799197823148,0.5445313458901272
-0.5784499460430315,0.5158992876442062
-0.5399297225416095,0.4928089180910441
-0.5660944026557829,0.47987831114127333
-0.6227845429031587,0.439239260727708
-0.658397579725228,0.40968358769966057
-0.6547635963760373,0.38474598858224546
-0.6431348496586269,0.37366261119672767
-0.6518564096966847,0.33948886425804775
-0.6714799197823148,0.31732210948701217
-0.6736603097918292,0.3016206581908619
-0.6634851564140951,0.297926199062356
-0.6707531231124766,0.269294140816435
-0.6940106165472975,0.24805100082752585
-0.7172681099821182,0.23142593474924913
-0.7092733466138986,0.22680786083861673
-0.6954642098869738,0.1990994173748222
-0.6889230398584304,0.17877989216803955
-0.69691780322665,0.16123121130763637
-0.706366159934546,0.15568952261487745
-0.7056393632647079,0.1289046939332094
-0.7005517865758408,0.10858516872642678
-0.6932838198774592,0.0901128730838971
-0.6809282764902107,0.0845711843911382
-0.6598511730649044,0.05778635570947016
-0.6395008663094361,0.031925141809928614
-0.6249649329126731,0.0023694687818811263
-0.6067950161667194,-0.014255597296395585
-0.5784499460430315,-0.04381127032444307
-0.5464708925701528,-0.06597802509547869
-0.5268473824845228,-0.08906839464864079
-0.513765042427436,-0.09645731290565265
-0.48905395565293897,-0.11862406767668827
-0.44181217211345913,-0.1398672076655974
-0.3829416418565689,-0.17311733982215083
-0.32915868828854583,-0.192513250246807
-0.28555088809825674,-0.21929807892847503
-0.24194308790796773,-0.24238844848163713
-0.18961372767962087,-0.2793330397666965
-0.13219679076240698,-0.30149979453773207
-0.08204782054357458,-0.3255137788730207
-0.0377132236834474,-0.34306245973342386
0.01461613654489945,-0.3735417475435978
0.09238338021758156,-0.38831958405762157
0.1934081173250845,-0.40217380578951883
0.30170082113096897,-0.4160280275214161
0.40635954158766263,-0.45297261880647544
0.5124718553840326,-0.478833832706017
0.6309397125676512,-0.5010005874770527
0.7595827231290039,-0.5185492683374558
0.8795041736522987,-0.5582647039688946
0.9732609440614202,-0.5859731474326891
1.0517549844039404,-0.6072162874215983
1.1353366014353277,-0.6229177387177485
1.2210986084762294,-0.6635567891313138
1.2777887487236053,-0.6931124621593613
1.2857835120918248,-0.7143556021482704
1.256711645298299,-0.7282098238801676
1.209469861758819,-0.7679252595116065
1.1455117548130618,-0.7993281621039069
1.0524817810737785,-0.8214949168749426
0.9361943138996744,-0.8344255238247134
0.8104584900176744,-0.8685992707633933
0.678181496107131,-0.8926132550986818
0.5379097388283679,-0.9055438620484526
0.4012719648987956,-0.910161935959085
0.2886184810738822,-0.9434120681156384
0.20867084739168568,-0.9729677411436859
0.14689313045544286,-0.996058110696848
0.08366182017952375,-1.0099123324287453
0.018250119894090203,-1.0468569237138046
-0.03189885032474219,-1.0791834410882315
-0.05733673376907746,-1.1022738106413936
-0.06315110712778267,-1.1152044175911644
-0.07259946383567863,-1.1549198532226033
-0.09076938058163239,-1.2029478218931804
-0.11184648400693877,-1.2528230201280106
-0.11838765403548211,-1.284225922720311
-0.11475367068629136,-1.3220941287874968
-0.11257328067677691,-1.3562678757261768
-0.12638241740370176,-1.393212467011236
-0.14600592748933183,-1.4116847626537659
-0.1627222508956093,-1.434775132206928
-0.16926342092415267,-1.4550946574137105
-0.17580459095269602,-1.4837267156596314
-0.19034052434945903,-1.4975809373915288
-0.2128712211144417,-1.5123587739055526
-0.23394832453974806,-1.5179004625983115
-0.24412347791748218,-1.5372963730229676
-0.24048949456829144,-1.5483797504084853
-0.23758230788893883,-1.5585395130118767
-0.24557707125715847,-1.5456089060621059
-0.25793261464440703,-1.5419144469336
-0.25502542796505445,-1.540067217369347
-0.23540191787942438,-1.5409908321514736
-0.2172320011334706,-1.5040462408664141
-0.214324814454118,-1.456018272195837
-0.21505161112395615,-1.4181500661286512
-0.20414966107638388,-1.3996777704861214
-0.1910673210192972,-1.3350247357372675
-0.18888693100978274,-1.2389687983961133
-0.19688169437800238,-1.1521490088762238
-0.20414966107638388,-1.110586343680532
-0.20923723776525094,-1.0330027019819075
-0.2128712211144417,-0.9110855507412114
-0.2114176277747654,-0.793786473411148
-0.2056032544160602,-0.7392932012656854
-0.2056032544160602,-0.6589387152206814
-0.21650520446363244,-0.5231673422480883
-0.22668035784136656,-0.3827778953648627
-0.22522676450169027,-0.31443040148750284
-0.22377317116201395,-0.2386939893531312
-0.23830910455877696,-0.10846430507329695
-0.26665417468246483,0.039314060066940486
-0.28700448143793306,0.11782131654769162
-0.2877312781077712,0.18986326955355737
-0.27828292139987526,0.3025442729729884
-0.2746489380506845,0.44293371985621394
-0.2840972947585805,0.5242118206833446
-0.29790643148550533,0.5907120849964514
-0.30808158486323944,0.6793791040805939
-0.3131691615521065,0.7902128779357719
-0.31244236488226834,0.8530186831203729
-0.2986332281553435,0.9019702665730764
-0.2797365147395516,0.9638524569755509
-0.2710149547014937,1.0552903204060728
-0.28264370141890416,1.1162488960264207
-0.2986332281553435,1.1670477090433773
-0.30590119485372497,1.2132284481497015
-0.30372080484421055,1.2797287124628085
-0.3044476015140487,1.3259094515691325
-0.310988771542592,1.366548501982698
-0.3233443149298406,1.395180560228619
-0.32988548495838393,1.4441321436813226
-0.2986332281553435,1.482923964530635
-0.1983352877176787,1.5235630149442
-0.03989361369296185,1.5438825401509828
0.10401212693499198,1.5734382131790303
0.15852187717285326,1.5928341236036865
0.13599118040787062,1.6196189522853546
0.14689313045544286,1.62608425576024
0.27771653102631,1.6417857070563902
0.47104444520325806,1.6482510105312755
0.5778835556694663,1.6694941505201846
0.5364561454886916,1.672264994866564
0.4361582050510268,1.6750358392129436
0.3751072847846222,1.6593343879167932
0.32786550124514235,1.6593343879167932
0.22538717079796314,1.6500982400955284
0.08366182017952375,1.6454801661848961
-0.023904086956522536,1.6233134114138605
-0.06533149713729712,1.622389796631734
-0.0965837539403376,1.6168481079389752
-0.13946475746078849,1.6094591896819632
-0.20778364442557465,1.5725145983969038
-0.2840972947585805,1.5512714584079947
-0.34805540170433774,1.5318755479833386
-0.37422008181851113,1.5134032523408087
-0.37567367515818745,1.4607572097595993
-0.39457038857397936,1.4238126184745399
-0.42436905203734354,1.395180560228619
-0.4141938986596094,1.3757846498039628
-0.3829416418565689,1.3231386072227531
-0.426549442046858,1.282499556809188
-0.5784499460430315,1.2520202689990139
-0.7470667734454824,1.2344715881386108
-0.8212000337689738,1.1845963899037806
-0.706366159934546,1.1430337247080888
-0.20414966107638388,1.1088599777694088
0.9812557074296399,1.0913112969090057
2.887643372415109,1.0469777873669344
4.945931541396751,1.015574884774634
6.168403540064521,0.9924845152214719
5.852973785354764,0.983248367400207
4.155176764612843,0.9342967839475034
1.9682455850698484,0.872414593545029
0.2450106808835932,0.8031434848855427
-0.6104289995159101,0.757886360561345
-0.788494183626257,0.7015458588516295
-0.6954642098869738,0.6562887345274317
-0.5915322861001182,0.6073371510747281
-0.5450172992304766,0.5823995519573131
-0.5537388592685344,0.5500730345828861
-0.6126093895254245,0.5242118206833446
-0.6860158531790778,0.4872672293982852
-0.7136341266329275,0.46694770419150256
-0.686742649848916,0.4401628755098345
-0.6642119530839332,0.4235378094315578
-0.6831086664997251,0.3939821364035103
-0.7121805332932512,0.38197514423586604
-0.7056393632647079,0.3653500781575893
-0.6802014798203726,0.3505722416435656
-0.6845622598394014,0.3145512651406327
-0.7041857699250316,0.28961366602321764
-0.7172681099821182,0.2646760669058026
-0.7092733466138986,0.24989823039177883
-0.7121805332932512,0.21757171301735187
-0.7201752966614708,0.20094664693907519
-0.720902093331309,0.18616881042505143
-0.7172681099821182,0.1778562773859131
-0.715814516642442,0.1483006043578656
-0.7049125665948697,0.1298283087153359
-0.6743871064616673,0.11505047220131216
-0.6409544596491125,0.1076615539443003
-0.624238136242835,0.07718226613412632
-0.6169701695444535,0.058709970491596646
-0.6009806428080141,0.0439321339775729
-0.57118197934465,0.037466830502687516
-0.542110112551124,0.006987542692513546
-0.518125822446465,-0.012408367732142617
-0.49341473567196786,-0.026262589464039875
-0.45998208885941294,-0.032727892938925265
-0.4272762387166961,-0.06597802509547869
-0.402565151942199,-0.09461008334139968
-0.3822148451867308,-0.11954768245881475
-0.3509625883836903,-0.13340190419071202
-0.3066279915235631,-0.16665203634726544
-0.2586594113142452,-0.18974240590042754
-0.2186855944731469,-0.20544385719657776
-0.17435099761301973,-0.21098554588933666
-0.11184648400693877,-0.24054121891738414
-0.03189885032474219,-0.2673260475990522
0.04659519001777808,-0.2959581058449732
0.11636767032224055,-0.31073594235899693
0.18977413397589377,-0.34213884495129737
0.2864380910643678,-0.364305599722333
0.4099935249368534,-0.38462512492911566
0.5473580955362639,-0.39109042840400104
0.6810886827864836,-0.4160280275214161
0.8017369299796165,-0.44004201185670466
0.9063956504363103,-0.47144491444900516
0.9994256241755936,-0.48899359530940834
1.0851876312164954,-0.5176256535553293
1.1680424515780445,-0.5434868674548708
1.2436293052412122,-0.5776606143935508
1.2930514787902063,-0.5970565248182069
1.3010462421584261,-0.6229177387177485
1.2647064086665185,-0.646931723053037
1.1949339283620561,-0.6829526995559699
1.1062647346418018,-0.7051194543270055
0.9979720308359172,-0.7291334386622942
0.8656950369253739,-0.7503765786512033
0.716701719608553,-0.7882447847183891
0.5713423856409229,-0.8131823838358042
0.44124578173989387,-0.8353491386068398
0.32350472122611346,-0.854745049031496
0.21375842408055273,-0.8935368698808083
0.12145524701110759,-0.9203216985624764
0.05313636004632143,-0.9424884533335119
0.002987389827489039,-0.9591135194117887
-0.038440020353285545,-0.997905340261101
-0.07187266716584048,-1.0274610132891484
-0.1009445339593665,-1.049627768060184
-0.12856280741321624,-1.0634819897920813
-0.1583614708765804,-1.0967321219486348
-0.17725818429237233,-1.1188988767196704
-0.18452615099075384,-1.1309058688873146
-0.18816013433994458,-1.1382947871443265
-0.20487645774622204,-1.1724685340830063
-0.2259535611715284,-1.2029478218931804
-0.23758230788893883,-1.226961806228469
-0.23249473120007177,-1.2398924131782398
-0.22522676450169027,-1.2712953157705402
-0.22304637449217582,-1.2962329148879552
-0.22813395118104288,-1.3119343661841054
-0.23394832453974806,-1.316552440094738
-0.2426698845778059,-1.3442608835585323
-0.25284503795554,-1.375663786150833
-0.26229339466343593,-1.4061430739610068
-0.26520058134278857,-1.4181500661286512
-0.26665417468246483,-1.4449348948103191
-0.2746489380506845,-1.4781850269668726
-0.28482409142841864,-1.516976847816185
-0.281916904749066,-1.5308310695480822
-0.2630201913332741,-1.5446852912799796
-0.24485027458732034,-1.5594631277940032
-0.23976269789845328,-1.5890188008220507
-0.24048949456829144,-1.595484104296936
-0.23249473120007177,-1.5825534973471653
-0.2215927811524995,-1.5502269799727384
-0.2201391878128232,-1.5317546843302088
-0.22813395118104288,-1.5021990113021613
-0.23467512120958622,-1.4606363461064695
-0.23394832453974806,-1.393212467011236
-0.22740715451120472,-1.337795580083647
-0.2215927811524995,-1.284225922720311
-0.22086598448266137,-1.230656265356975
-0.22668035784136656,-1.1382947871443265
-0.23540191787942438,-1.0431624645852986
-0.23612871454926251,-0.9591135194117887
-0.22668035784136656,-0.8944604846629348
-0.21650520446363244,-0.7882447847183891
-0.21941239114298505,-0.6617095595670608
-0.23612871454926251,-0.5490285561476298
-0.25357183462537813,-0.478833832706017
-0.2601130046539215,-0.3753889771078508
-0.2572058179745689,-0.23315230066037226
-0.2557522246348926,-0.09645731290565265
-0.26083980132375967,-0.01979728598915449
-0.2688345646919793,0.07164057744136743
-0.27682932806019894,0.2000230321569487
-0.2833704980887423,0.32840548687252996
-0.2899116681172857,0.39028767727500435
-0.29136526145696195,0.4595587859344907
-0.2840972947585805,0.5722397893539217
-0.2717417513713319,0.6996986292873765
-0.26520058134278857,0.7615808196898509
-0.27246854804117004,0.81699770661744
-0.2862776847680949,0.9001230370088235
-0.29136526145696195,0.9998734334784838
-0.2899116681172857,1.044206943020555
-0.29136526145696195,1.0811515343056144
-0.29354565146647643,1.1430337247080888
-0.281916904749066,1.2298535142279783
-0.25793261464440703,1.2723397942057966
-0.23031434119055733,1.3046663115802235
-0.17725818429237233,1.3453053619937887
-0.06169751378810637,1.4081111671783897
0.09747095690644862,1.4385904549885637
0.21230483074087642,1.4626044393238522
0.23265513749634464,1.4866184236591409
0.2232067807884487,1.534646392329718
0.29152566775323485,1.561431221011386
0.451420935117628,1.5826743610002951
0.5982338624249344,1.5909868940394334
0.6309397125676512,1.6159244931568486
0.5589868422536742,1.6242370261959869
0.46668366518422916,1.6362440183636313
0.3998183715591193,1.6325495592351253
0.3205975345467609,1.6427093218385167
0.1963153040044371,1.6417857070563902
0.06331151342405554,1.6482510105312755
-0.026084476966036985,1.6371676331457576
-0.060970717118268215,1.6343967887993782
-0.10748570398790985,1.620542567067481
-0.17871177763204862,1.6214661818496074
-0.26083980132375967,1.6057647305534573
-0.31680314490129724,1.5909868940394334
-0.3407874350059562,1.5568131471007536
-0.34369462168530884,1.5411116958046034
-0.3575037584122337,1.5143268671229353
-0.3952971852438175,1.4866184236591409
-0.41782788200880017,1.435819610642184
-0.38003445517721635,1.4053403228320103
-0.3407874350059562,1.3757846498039628
-0.417101085338962,1.3499234359044212
-0.614789779534939,1.2954301637589587
-0.7855869969469044,1.2612564168202787
-0.7804994202580373,1.2326243585743577
-0.4810591922847193,1.2113812185854487
0.3227779245562753,1.156887946439986
1.8432365578576864,1.1180961255906736
3.8717260633759647,1.0894640673447527
5.586966204194001,1.070991771702223
6.053569666230093,1.0164984995567605
4.993173324936231,0.9758594491431952
3.003204042919375,0.9463037761151477
1.0488477977245878,0.929678710036871
-0.21505161112395615,0.8779562822377879
-0.7107269399535749,0.8345463874778432
-0.7318040433788813,0.8022198701034162
-0.6082486095063957,0.7874420335893925
-0.5101310590782453,0.7440321388294477
-0.47742520893552853,0.7117056214550208
-0.5028630923798638,0.6876916371197322
-0.5660944026557829,0.6775318745163409
-0.624238136242835,0.637816438884902
-0.643861646328465,0.6073371510747281
-0.6300525096015401,0.5823995519573131
-0.6184237628841298,0.5713161745717952
-0.629325712931702,0.5325243537224829
-0.6511296130268466,0.5011214511301825
-0.6620315630744188,0.47710746679489385
-0.6591243763950662,0.46602408940937606
-0.6627583597442569,0.42261419464943134
-0.6692995297728003,0.36996815206822176
-0.6809282764902107,0.3099331912300003
-0.6736603097918292,0.2702177555985615
-0.6692995297728003,0.22403701649223728
-0.6809282764902107,0.1935577286820633
-0.7034589732551934,0.16584928521826878
-0.7121805332932512,0.1584603669612569
-0.6940106165472975,0.13906445653660074
-0.6642119530839332,0.12336300524045052
-0.6409544596491125,0.09750179134090897
-0.6235113395729969,0.08641841395539117
-0.6082486095063957,0.06794611831286149
-0.5988002527984997,0.05409189658096423
-0.595166269449309,0.027307067899296194
-0.5784499460430315,0.015300075731651902
-0.5413833158812857,-0.0022486051287512934
-0.4955951256814823,-0.014255597296395585
-0.45998208885941294,-0.042887655542316584
-0.4309102220658869,-0.05674187727421384
-0.40329194861203715,-0.07244332857036408
-0.38148804851689266,-0.08537393552013485
-0.36549852178045333,-0.1223185268051942
-0.33133907829806025,-0.14817974070473575
-0.2710149547014937,-0.17127011025789785
-0.20633005108589836,-0.1860479467719216
-0.1627222508956093,-0.21929807892847503
-0.12856280741321624,-0.2377703745710047
-0.07477985384519308,-0.25070098152077547
0.008074966516356094,-0.25993712934204033
0.09747095690644862,-0.2959581058449732
0.18032577726799778,-0.3245901640908942
0.26608778430889957,-0.34768053364405627
0.3707465047655933,-0.36153475537595353
0.4935751419682407,-0.39570850231463345
0.6185841691804026,-0.4178752570856691
0.7283304663259634,-0.43080586403543986
0.8257212200842756,-0.43634755272819875
0.924565567182264,-0.47052129966687867
1.0314046776484722,-0.5000769726949261
1.1353366014353277,-0.5231673422480883
1.218918218466715,-0.5370215639799855
1.2712475786950619,-0.5711953109186654
1.2930514787902063,-0.5952092952539539
1.2843299187521486,-0.6090635169858513
1.2407221185618595,-0.6136815908964837
1.1615012815495012,-0.6478553378351636
1.0553889677531312,-0.6857235439023494
0.9376479072393508,-0.7235917499695352
0.822814033404923,-0.7457585047405708
0.707253362900657,-0.7817794812435037
0.5807907423488188,-0.8131823838358042
0.43906539173037945,-0.8436616716459782
0.29588644777226375,-0.8593631229421284
0.17669179391880704,-0.8889187959701759
0.09819775357628677,-0.9175508542160968
0.048048783357454376,-0.9498773715905238
0.00371418649732719,-0.9683496672330535
-0.049341970400857804,-0.9951344959147215
-0.0980373472800139,-1.0163776359036307
-0.13146999409256882,-1.0413152350210457
-0.14600592748933183,-1.0523986124065636
-0.15618108086706595,-1.0699472932669667
-0.16708303091463822,-1.0893432036916229
-0.17871177763204862,-1.1235169506303029
-0.18525294766059197,-1.1466073201834648
-0.19324771102881164,-1.1706213045187535
-0.19906208438751685,-1.189093600161283
-0.20342286440654575,-1.2177256584072043
-0.19978888105735498,-1.2334271097033545
-0.20051567772719314,-1.248204946217378
-0.21650520446363244,-1.2620591679492754
-0.2470306645968348,-1.2962329148879552
-0.2710149547014937,-1.3239413583517499
-0.2746489380506845,-1.3488789574691649
-0.26083980132375967,-1.364580408765315
-0.24557707125715847,-1.398754155703995
-0.23394832453974806,-1.431080673078422
-0.22377317116201395,-1.459712731324343
-0.21359801778427986,-1.4698724939277343
-0.2099640344350891,-1.4929628634808965
-0.21214442444460355,-1.5206713069446909
-0.2157784077937943,-1.551150594754865
-0.2157784077937943,-1.5465325208442324
-0.2157784077937943,-1.5391436025872205
-0.21795879780330876,-1.5382199878050942
-0.21505161112395615,-1.5539214391012444
-0.1983352877176787,-1.5308310695480822
-0.17144381093366712,-1.486497560006011
-0.15182030084803705,-1.4514001982852045
-0.15036670750836076,-1.4514001982852045
-0.161268657555933,-1.4116847626537659
-0.17435099761301973,-1.335948350519394
-0.18743333767010642,-1.2639063975135283
-0.2012424743970313,-1.2426632575246193
-0.2099640344350891,-1.1909408297255362
-0.2114176277747654,-1.0847251297809906
-0.21650520446363244,-0.9655788228866741
-0.23758230788893883,-0.910161935959085
-0.26956136136181746,-0.8408908272995987
-0.2942724481363146,-0.6912652325951083
-0.30372080484421055,-0.4603615370634873
-0.30154041483469607,-0.24977736673864898
-0.2986332281553435,-0.06690163987760517
-0.3000868214950198,0.09750179134090897
-0.3088083815330776,0.267446911252182
-0.3262515016091932,0.39121129205713084
-0.35677696174239554,0.48449638505190573
-0.3938435919041412,0.5611564119684039
-0.42000827201831464,0.6646012675665701
-0.41782788200880017,0.7597335901255979
-0.3916632018946268,0.8410116909527285
-0.3720396918089967,0.895504963098191
-0.388029218545436,0.9675469161040569
-0.42582264537701986,1.0414360986741755
-0.44108537544362103,1.1153252812442942
-0.42218866202782906,1.1559643316578596
-0.4061991352913898,1.2067631446748162
-0.417101085338962,1.2603328020381523
-0.4294566287262106,1.3185205333121208
-0.42582264537701986,1.3462289767759152
-0.4294566287262106,1.3813263384967216
-0.44908013881184067,1.4228890036924133
-0.4548945121705459,1.475535046273623
-0.43309061207540134,1.4977018010446586
-0.40983311864058053,1.5235630149442
-0.3778540651677019,1.5531186879722476
-0.2840972947585805,1.5992994270785719
-0.1351039774417596,1.6168481079389752
-0.036259630343771096,1.6316259444529988
-0.04788837706118151,1.6380912479278842
-0.07623344718486938,1.6639524618274257
0.022610899913119105,1.6704177653023111
0.23628912084553538,1.6750358392129436
0.40781313492733895,1.6676469209559317
0.4201686783145875,1.681501142687829
0.3155099578578938,1.6842719870342084
0.21012444073136197,1.683348372252082
0.15561469049350068,1.6565635435704138
0.09819775357628677,1.647327395749149
-0.012275340239112125,1.6343967887993782
-0.1525470975178752,1.6251606409781134
-0.2564790213047307,1.588216049693054
-0.2986332281553435,1.5642020653577655
-0.34151423167579437,1.5411116958046034
-0.41201350865009495,1.5263338592905795
-0.49777551569099676,1.4856948088770143
-0.5530120625986962,1.45798636541322
-0.5675479959954592,1.4339723810779312
-0.57118197934465,1.421965388910287
-0.5988002527984997,1.3776318793682156
-0.6445884429983032,1.332374755044018
-0.6467688330078176,1.2843467863734408
-0.5806303360525459,1.2557147281275198
-0.5457440959003147,1.2095339890211956
-0.6692995297728003,1.1688949386076304
-0.9047816508003611,1.1227141995013061
-1.0595893414758872,1.0987002151660175
-1.0217959146443034,1.0645264682273377
-0.7528811468041876,1.0377416395456696
-0.04134720703263815,1.0007970482606103
1.4136997259833395,0.9841719821823336
3.4487304015301614,0.9564635387185391
5.179960069084636,0.927831480472618
5.6262132243652605,0.8788798970199144
4.570904459760266,0.8493242239918669
2.6921350682286462,0.8179213213995664
0.8969472937284143,0.7911364927178984
-0.3175299415711354,0.7394140649188153
-0.9360339076034015,0.7043167031980089
-1.1329958051295403,0.6738374153878349
-1.0719448848631357,0.6544415049631788
-0.899694074111494,0.612878839767487
-0.7761386402390085,0.5860940110858189
-0.7863137936167426,0.5630036415326569
-0.8778901740163495,0.5482258050186332
-0.928039144235182,0.5075867546050679
-0.9033280574606848,0.47987831114127333
-0.865534630629101,0.45586432680598477
-0.8691686139782917,0.44293371985621394
-0.8866117340544073,0.4032182842247752
-0.8858849373845692,0.3727389964146012
-0.8807973606957021,0.3487250120793126
-0.9084156341495518,0.33671801991166833
-0.9658325710667658,0.3025442729729884
-0.9941776411904536,0.28130113298407927
-0.9774613177841762,0.265599681687929
-0.9360339076034015,0.2619052225594231
-0.9265855508955056,0.23234954953137563
-0.947662654320812,0.21110640954246648
-0.9607449943778987,0.19540495824631626
-0.9483894509906502,0.19078688433568386
-0.928039144235182,0.16215482608976284
-0.9244051608859912,0.14183530088298021
-0.9229515675463149,0.1252102348047035
-0.8924261074131126,0.11966854611194458
-0.8299215938070316,0.09103648786602359
-0.7703242668803032,0.07071696265924093
-0.7477935701153205,0.05593912614521719
-0.7630563001819217,0.051321052234584774
-0.7826798102675518,0.016223690513778387
-0.7746850468993322,-0.026262589464039875
-0.7376184167375864,-0.07521417291674352
-0.6954642098869738,-0.10661707550904398
-0.6700263264426385,-0.14817974070473575
-0.6634851564140951,-0.18050625807916268
-0.6634851564140951,-0.2156036197999691
-0.6467688330078176,-0.23315230066037226
-0.5995270494683378,-0.25993712934204033
-0.5261205858146847,-0.280256654548823
-0.4585284955197366,-0.307041483230491
-0.42000827201831464,-0.3172012458338823
-0.39311679523430304,-0.335673541476412
-0.3320658749678984,-0.35414583711894165
-0.22668035784136656,-0.38924319883974806
-0.11984124737515842,-0.4114099536107837
-0.0435275970421526,-0.43542393794607226
0.029878866611500614,-0.4538962335886019
0.14689313045544286,-0.48345190661664944
0.30460800781032155,-0.49822974313067314
0.45360132512714246,-0.5130075796446969
0.5589868422536742,-0.5268618013765942
0.6353004925866801,-0.562882777879527
0.7181553129482293,-0.5887439917790686
0.8199068467255703,-0.6109107465501042
0.9238387705124259,-0.6284594274105074
1.0037864041946225,-0.6681748630419462
1.0408530343563682,-0.6968069212878673
1.030677880978634,-0.7180500612767764
0.9790753174201253,-0.7337515125729266
0.9071224471061484,-0.7734669482043653
0.8351695767921715,-0.8039462360145393
0.7588559264591657,-0.8251893760034484
0.6520168159929576,-0.8390435977353458
0.5066574820253275,-0.8778354185846581
0.3511229946799632,-0.9092383211769585
0.22538717079796314,-0.9323286907301206
0.13599118040787062,-0.9452592976798914
0.05967753007486479,-0.9785094298364448
-0.020996900277169932,-1.0025234141717334
-0.09440336393082314,-1.0163776359036307
-0.14164514747030293,-1.0219193245963896
-0.1685366242543145,-1.0523986124065636
-0.19688169437800238,-1.081954285434611
-0.24848425793651108,-1.1078154993341525
-0.31026197487275387,-1.1225933358481763
-0.3509625883836903,-1.1530726236583502
-0.34878219837417584,-1.1780102227757654
-0.3233443149298406,-1.196482518418295
-0.310988771542592,-1.2020242071110538
-0.33279267163773657,-1.226961806228469
-0.3676789117899678,-1.2546702496922635
-0.38148804851689266,-1.2851495375024375
-0.3604109450915863,-1.3008509887985877
-0.32697829827903135,-1.3285594322623822
-0.30808158486323944,-1.3571914905083031
-0.3088083815330776,-1.3922888522291097
-0.30590119485372497,-1.4116847626537659
-0.28555088809825674,-1.434775132206928
-0.2542986312952163,-1.4541710426315841
-0.22304637449217582,-1.4837267156596314
-0.19252091435897348,-1.4994281669557818
-0.16490264090512377,-1.5123587739055526
-0.14600592748933183,-1.5105115443412995
-0.13873796079095033,-1.5197476921625643
-0.12420202739418733,-1.5243657660731968
-0.09585695727049945,-1.5271366104195763
-0.06533149713729712,-1.5012753965200347
-0.04280080037231445,-1.4763377974026197
-0.021723696947008084,-1.456018272195837
0.002987389827489039,-1.4449348948103191
