ECG,PPG
-0.4525994950241316,0.09638334197936663
-0.5911275056296533,1.1973626136680657
-0.6568212013807255,1.3203584864110665
-0.7625023641107112,1.0065528002775725
-1.035988075770066,0.8769085019808961
-1.2216441724578786,0.9832833108397075
-0.8617569696476571,1.0577456770408757
0.037961037377896426,0.9719809873984588
1.034077402299045,0.8702600764272204
2.048759376888975,0.870924918982588
3.4147598113650734,0.9167990553029504
4.7950414840479265,0.8875459828667772
4.9035788944192635,0.8090945613334037
3.0191695130379648,0.7711985356774521
0.21576245305199393,0.7864899144509063
-1.6443688233778213,0.7711985356774521
-1.8635858298515078,0.714022075915841
-1.245208215499024,0.6661534119293758
-0.8024898310896247,0.6601698289310676
-0.7696429832140886,0.6482026629344513
-0.8439054218892137,0.6116363223892348
-0.812486697834353,0.5690863988457102
-0.7389383210695657,0.5544598626276237
-0.738224259159228,0.5404981689649047
-0.7953492119862473,0.5205528923038775
-0.812486697834353,0.48398655175866107
-0.7667867355727376,0.46337643254226635
-0.7282273924144996,0.4474202112134446
-0.7425086306212544,0.43013430477388775
-0.7653586117520621,0.3882492237857307
-0.7503633116349696,0.35899615134955754
-0.72180083522146,0.33971571724389793
-0.7082336589250429,0.3197704405828708
-0.713232092297407,0.27190177659640563
-0.7018071017320032,0.23334090838508645
-0.6810993063322087,0.20874173383648628
-0.6575352632910633,0.18746677206472398
-0.6403977774429574,0.1376035804121561
-0.6339712202499178,0.09638334197936663
-0.6275446630568782,0.07111932487539889
-0.613977486760461,0.051838890769739306
-0.5939837532710043,0.005299911894009268
-0.5682775244988456,-0.03193127120657476
-0.5411431719060115,-0.04921717764613163
-0.5132947574028396,-0.06384371386421822
-0.48616040481000544,-0.11836080340435912
-0.4504573092931184,-0.18418021638574875
-0.40475734703150296,-0.24002699103662478
-0.3526308275768479,-0.27792301669257635
-0.29836212239117954,-0.32645652323440916
-0.23124030281943192,-0.3650173914457283
-0.14840912122025396,-0.3876220383282257
-0.05415294905567215,-0.39692983410337174
0.045815718391611575,-0.42817743420564763
0.15863750022497464,-0.4654086173062317
0.2943092631891454,-0.4999804301853454
0.447118512001422,-0.5225850770678429
0.5992136989033608,-0.5598162601684269
0.7370276475985448,-0.5983771283797461
0.8584181723559607,-0.6369379965910652
0.965527458906622,-0.662202013695033
1.0583555072505282,-0.694779298908044
1.1376163792980174,-0.7313456394532605
1.2033100750490897,-0.7732307204414175
1.251866284952056,-0.8018189503222231
1.279714699455228,-0.8310720227583962
1.284713132827592,-0.8616547803053045
1.2704318946208373,-0.9002156485166237
1.238299108655639,-0.9268093507313266
1.1847444653803083,-0.9487491550584565
1.106197655243157,-0.9700241168302187
1.0105133592578996,-1.0039310871539648
0.9162571870933178,-1.0278654191471974
0.8262853863907624,-1.0438216404760192
0.7298870284951674,-1.0611075469155762
0.6227777419445063,-1.0943496746839547
0.5206668887662093,-1.1196136917879225
0.43569352143601814,-1.1349050705613766
0.36285920658156856,-1.1508612918901984
0.2814561488030661,-1.1847682622139446
0.19005622427983526,-1.2106971218732798
0.09937036166694214,-1.2246588155359988
0.025821984902154833,-1.2419447219755557
-0.03344515365587767,-1.2844946455190802
-0.07557480636580438,-1.3243851988411346
-0.10128103513796306,-1.3489843733897349
-0.10485134468965177,-1.3715890202722323
-0.09913884940694984,-1.4214522119248
-0.0984247874966121,-1.4733099312434708
-0.11127790188269143,-1.5078817441225845
-0.1248450781791085,-1.5298215484497144
-0.12555914008944624,-1.573701157103974
-0.1105638399723537,-1.62954793175485
-0.09771072558627435,-1.674757225519845
-0.09414041603458564,-1.6940376596255047
-0.0948544779449234,-1.7186368341741047
-0.0862857350208705,-1.7565328598300565
-0.07271855872445342,-1.7977530982628458
-0.06914824917276471,-1.8063960514826243
-0.0827154254691818,-1.7984179408182135
-0.09628260176559887,-1.7957585705967432
-0.09057010648289694,-1.8110499493701973
-0.07129043490377794,-1.7984179408182135
-0.06629200153141375,-1.7532086470532184
-0.0898560445725592,-1.6960321872916073
-0.12555914008944624,-1.6614603744124936
-0.145552873578903,-1.6169159232028663
-0.14626693548924075,-1.541123871890963
-0.14626693548924075,-1.4400678034750922
-0.16554660706835975,-1.3602866968309835
-0.1962512692128826,-1.286489173185183
-0.21981531225402806,-1.1954057430998257
-0.23124030281943192,-1.0650966022477815
-0.241951231474498,-0.9387765167279429
-0.261230903053617,-0.8310720227583962
-0.28051057463273604,-0.7340050096747307
-0.2855090080051002,-0.6036958688226867
-0.2747980793500341,-0.4620844045293938
-0.264087150694968,-0.34174790200786326
-0.26622933642598123,-0.25465352725471135
-0.2819386984534115,-0.14163029284222414
-0.30121837003253055,-1.882854893130819e-05
-0.31335742250827214,0.12962546974774522
-0.3140714844186099,0.20874173383648628
-0.3040746176738815,0.2958361085896382
-0.29264962710847764,0.4121835557789633
-0.28907931755678895,0.5238771050807154
-0.2962199366601663,0.5810535648423266
-0.30478867958421924,0.636235496937835
-0.3040746176738815,0.7213353440248842
-0.29479181283949085,0.8124187741102415
-0.2869371318257757,0.8536390125430311
-0.2883652556464512,0.8915350381989826
-0.2955058747498286,0.9573544511803723
-0.3005043081221928,1.0378004003798484
-0.3040746176738815,1.0750315834804325
-0.3119292986875966,1.1022901282505029
-0.32264022734266273,1.1494939496816006
-0.32549647498401374,1.2153133626629902
-0.31335742250827214,1.2492203329867364
-0.2940777509291531,1.2704952947584987
-0.2812246365430738,1.2970889969732016
-0.27694026508104735,1.341633448182829
-0.27194183170868313,1.3635732525099586
-0.25623246968125285,1.3762052610619426
-0.22552780753673,1.3841833717263534
-0.17768565954410134,1.4107770739410563
-0.11841852098606884,1.425403610159143
-0.05415294905567215,1.4333817208235538
0.00939856096438679,1.4247387676037753
0.06866569952241929,1.4240739250484078
0.11722190942538567,1.4154309718286293
0.14507032392855757,1.4087825462749537
0.15221094303193497,1.3861778993924563
0.14935469539058402,1.3668974652867967
0.14935469539058402,1.3409686056274612
0.14649844774923304,1.3250123842986397
0.12364846661842534,1.301078052305407
0.06795163761208155,1.2844569884212176
-0.0020264296010170657,1.2611874989833527
-0.049868577593645706,1.2505500180974716
-0.07271855872445342,1.2319344265471794
-0.09128416839323468,1.2173078903290928
-0.1491231831305917,1.1933735583358602
-0.22981217899875642,1.180076707228509
-0.3062168034048947,1.1634556433443195
-0.3390636512804308,1.1568072177906439
-0.32264022734266273,1.142845524127925
-0.3005043081221928,1.1415158390171898
-0.302646493853206,1.1342025709081465
-0.3147855463289476,1.130213515575941
-0.31335742250827214,1.1122627665810165
-0.31692773205996083,1.1049494984719732
-0.3533448894871856,1.0936471750307246
-0.4418885663690655,1.0869987494770488
-0.6289727868775536,1.0657237877052865
-0.873181960213061,1.0584105195962432
-0.8860350745991403,1.0504324089318324
-0.35620113712853657,1.0404597706013188
0.6277761753168705,1.0078824853883077
1.7445690030850973,0.9866075236165455
3.0120288939345876,0.9693216171769886
4.567255734650187,0.9533653958481668
5.739745391424758,0.9134748425261126
5.232761435084962,0.8822272424238367
2.7842431445368483,0.8602874380967068
-0.05986544433837408,0.844331216767885
-1.510125184234326,0.8064351911119334
-1.3873065356562344,0.7785118037864954
-0.8146288835653662,0.7612258973469386
-0.5904134437193156,0.7505884164610575
-0.6018384342847195,0.7126923908051058
-0.5382869242646605,0.6794502630367272
-0.42689326625197294,0.654851088488127
-0.40832765658319164,0.6408893948254081
-0.46402448558953546,0.6043230542801916
-0.49401508582372056,0.5750699818440184
-0.4633104236791977,0.5551247051829913
-0.4076135946728539,0.5451520668524776
-0.37476674679731786,0.5105802539733639
-0.3790511182593443,0.4780029687603529
-0.3919042326454236,0.45140926654565006
-0.38047924208001976,0.4354530452168283
-0.36762612769394043,0.40021638978234697
-0.363341756231914,0.36630941945860085
-0.36619800387326495,0.33705634702242765
-0.3390636512804308,0.3204352831382384
-0.30478867958421924,0.2871931553698598
-0.28265276036374926,0.25129165738001086
-0.2776543269913851,0.2127307891686917
-0.2697996459776699,0.18813161462009156
-0.244807479115849,0.1542246442963454
-0.206248135957611,0.1183231463064965
-0.17625753572342587,0.07643806531833947
-0.1576919260546446,0.04851467799290144
-0.13984037829620108,0.017931920445993135
-0.11127790188269143,-0.011985994545547603
-0.07771699209681761,-0.051211705312234346
-0.038443587028241855,-0.07581087986083451
0.011540746695400013,-0.09908036929869952
0.08294693772917411,-0.12301470129193212
0.16863436696970302,-0.163570097169354
0.25860616767225836,-0.19149348449479203
0.3392951635404231,-0.2134332888219219
0.42141228322926333,-0.2327137229275815
0.518524703035196,-0.2686152209174304
0.6413433516132875,-0.2932143954660305
0.7763010526671206,-0.30850577423948466
0.9084025060796026,-0.3257916806790416
1.0297930308370187,-0.3656822340010959
1.1490413698634214,-0.39692983410337174
1.2711459565311751,-0.41621026820903134
1.3961067908402798,-0.43549070231469095
1.5075004488529673,-0.48202968119042094
1.5974722495555227,-0.5219202345124753
1.6603096976652438,-0.5465194090610754
1.7017252884648328,-0.5684592133882053
1.7217190219542895,-0.6163278773746705
1.7238612076853028,-0.6588778009181951
1.709579969478548,-0.6841418180221628
1.687444050258078,-0.70408709468319
1.64888470709984,-0.7492963884481849
1.583191011348768,-0.7871924141041364
1.4867926534531728,-0.805143163099061
1.3825396145438626,-0.8204345418725151
1.2868553185586054,-0.870297733525083
1.2025960131387519,-0.9301335635081645
1.1126242124361965,-0.9786670700499972
1.0133696068992506,-1.013238882929111
0.9126868775416291,-1.0591130192494733
0.8291416340321134,-1.097009044905425
0.7577354429983393,-1.1189488492325548
0.6927558091576049,-1.1289214875630684
0.6284902372272082,-1.1581745599992417
0.5835043368759305,-1.1920815303229877
0.5570840461934341,-1.2206697602037935
0.540660622255666,-1.2379556666433502
0.5149543934835074,-1.2698681093009938
0.4899622266216864,-1.3077641349569453
0.4713966169529052,-1.3449953180575294
0.47068255504256745,-1.3695944926061294
0.47639505032526935,-1.4028366203745082
0.48853410280101095,-1.4447217013626652
0.5013872171870903,-1.4939200504598655
0.5163825173041828,-1.5291567058943467
0.5228090744972226,-1.5610691485519903
0.5263793840489113,-1.5936464337650011
0.527093445959249,-1.6388557275299962
0.5335200031522886,-1.6774165957413154
0.5378043746143151,-1.7053399830667533
0.5378043746143151,-1.7139829362865318
0.5320918793316132,-1.7292743150599859
0.5306637555109377,-1.7465602214995428
0.5306637555109377,-1.757197702385424
0.5299496936006,-1.7325985278368239
0.518524703035196,-1.7020157702899155
0.49924503145607707,-1.6853947064057262
0.47068255504256745,-1.679411123407418
0.4392638309877068,-1.624894033867277
0.40998729266385947,-1.5358051314480226
0.3978482401881179,-1.463337292912957
0.3949919925467669,-1.4274357949231082
0.38142481625034985,-1.3483195308343672
0.34500765882312506,-1.2146861772054853
0.3085905013959003,-1.0903606193517492
0.2971655108304964,-1.0265357340364625
0.309304563306238,-0.9374468316172078
0.3143029966786022,-0.7851978864380338
0.2964514489201587,-0.6322840987034922
0.2643186629549603,-0.551838149504016
0.24503899137584131,-0.4674031449723344
0.2414686818241526,-0.32047294023610096
0.2464671151965168,-0.15758651417104586
0.24575305328617905,-0.06317887130885064
0.24503899137584131,0.014607707669155274
0.24789523901719226,0.13627389530142095
0.25432179621023193,0.2778853595947138
0.251465548568881,0.3616555215710278
0.23861243418280165,0.423485879220212
0.22076088642435812,0.5132396241948343
0.2079077720382788,0.6255980160519539
0.20005309102456362,0.6960713269209166
0.19862496720388814,0.746599361128852
0.19933902911422588,0.8097594038887713
0.20219527675557686,0.894194408420453
0.2014812148452391,0.9527005532927992
0.1979109052935504,0.996580161947059
0.18862810045915976,1.0411246131566863
0.17934529562476914,1.1042846559166057
0.1736328003420672,1.1541478475691735
0.17648904798341816,1.195368086001963
0.1857718528178088,1.2259508435488713
0.19719684338321267,1.268500767092396
0.20576558630726555,1.3017428948607745
0.22004682451402038,1.3329904949630504
0.2536077342998942,1.3489467162918722
0.3164451824096154,1.37421073339584
0.3964201163674424,1.3954856951676022
0.4678263074012165,1.4200848697162023
0.5099559601111432,1.4273981378252456
0.5285215697799245,1.4380356187111267
0.5349481269729641,1.4426895165986997
0.540660622255666,1.4586457379275215
0.5428028079866792,1.4599754230382567
0.5349481269729641,1.457980895372154
0.5113840839318187,1.4420246740433322
0.469254431221892,1.4387004612664944
0.4128435403052104,1.4287278229359808
0.35643264938852887,1.4180903420500997
0.3085905013959003,1.3921614823907644
0.2800280249823906,1.3801943163941481
0.23932649609313938,1.366232622731429
0.17791717180409367,1.3536006141794452
0.09651411402559118,1.319693643855699
0.05224227558465125,1.2964241544178339
0.043673532660598355,1.2758140352014393
0.01868136579877742,1.2651765543155582
-0.02202016309047381,1.235923481879385
-0.017021729718109627,1.2173078903290928
0.01868136579877742,1.2013516690002712
-0.006310801063043511,1.1947032434465954
-0.07557480636580438,1.1707689114533628
-0.09628260176559887,1.1574720603460114
-0.16626066897869748,1.1481642645708654
-0.46973698087223736,1.1461697369047628
-0.8203413788480682,1.1235650900222653
-0.7053774112836919,1.1062791835827084
0.04224540883992287,1.0903229622538866
1.0762070550089717,1.0830096941448433
2.2122795543563174,1.0564159919301406
3.7089533184242227,1.0378004003798484
5.4341268938002045,1.0225090216063943
6.296713681488196,1.015195753497351
5.206341144402465,0.9866075236165455
2.489335575567361,0.9573544511803723
-0.184112216737141,0.926771693633464
-1.3865924737458968,0.9088209446385396
-1.157378600527482,0.8782381870916313
-0.558994719664455,0.8516444848769283
-0.3611995705009008,0.8237210975514904
-0.45545574266548255,0.8097594038887713
-0.43974638063805227,0.7844953867848036
-0.30121837003253055,0.7579016845701007
-0.2819386984534115,0.7226650291356194
-0.39404641837643684,0.7013900673638571
-0.43403388535535037,0.6747963651491542
-0.3526308275768479,0.6482026629344513
-0.2955058747498286,0.6096417947231322
-0.32335428925300047,0.585042620174532
-0.34977457993549693,0.5611082881812994
-0.32335428925300047,0.5404981689649047
-0.299790246211855,0.5052615135304234
-0.2955058747498286,0.48398655175866107
-0.29264962710847764,0.46603580276373663
-0.26480121260530576,0.4474202112134446
-0.24980591248821318,0.4075296578913903
-0.2398090457434848,0.37894142801058467
-0.22838405517808094,0.35833130879418995
-0.21481687888166387,0.33705634702242765
-0.2083903216886242,0.29051736814669765
-0.20696219786794873,0.252621342490746
-0.20410595022659775,0.22669248283141072
-0.184112216737141,0.20475267850428086
-0.15055130695126717,0.15954338473928595
-0.1141341495240424,0.12497157186017221
-0.08914198266222147,0.10502629519914505
-0.06272169197972505,0.0897349164256909
-0.027018596462838,0.04452562266069601
0.01868136579877742,0.0026405416725389795
0.06152508041904188,-0.02461800309753147
0.11008129032200827,-0.04389843720319105
0.17648904798341816,-0.08711320330208323
0.27502959161002644,-0.12500922895803485
0.39356386872609145,-0.14827871839589984
0.5178106411248583,-0.16157556950325128
0.6406292897029497,-0.1968122249377326
0.7705885573844187,-0.2280598250400085
0.9098306299002781,-0.24734025914566807
1.0497867643264753,-0.2579777400315492
1.1754616605459178,-0.2912198677999278
1.2861412566482675,-0.3244619955683064
1.3818255526335248,-0.35105569778300927
1.4632286104120273,-0.3676767616671986
1.524637934701073,-0.40158373199094477
1.5696238350523508,-0.4361555448700585
1.5989003733761982,-0.4654086173062317
1.6110394258519398,-0.48269452374578853
1.6010425591072113,-0.514606966403432
1.5710519588730263,-0.5511733069486484
1.521781687059722,-0.5897341751599676
1.4539458055776366,-0.615663034819303
1.3739708716198098,-0.6475754774769463
1.2947099995723206,-0.680817605245325
1.2140210037041557,-0.7167191032351738
1.1204788934499117,-0.7393237501176713
1.0062289877958732,-0.7639229246662714
0.8905509583211592,-0.7918463119917095
0.7920104146945509,-0.8290774950922936
0.7113214188263861,-0.8556711973069964
0.6299183610478837,-0.8776110016341263
0.5442309318073547,-0.8995508059612561
0.46068568829783907,-0.9334577762850023
0.3949919925467669,-0.9567272657228674
0.34429359691278727,-0.9733483296070566
0.30573425375454927,-0.9899693934912459
0.26860303441698674,-1.0232115212596244
0.23932649609313938,-1.0484755383635922
0.22147494833469586,-1.0637669171370465
0.22361713406570907,-1.081717666131971
0.23289993890009972,-1.12027853434329
0.23861243418280165,-1.1521909770009335
0.23289993890009972,-1.1728010962173283
0.23075775316908648,-1.1920815303229877
0.2414686818241526,-1.2352962964218799
0.2657467867756358,-1.277181377410037
0.2850264583547548,-1.305104764735475
0.28788270599610577,-1.3257148839518698
0.27717177734103965,-1.3709241777168646
0.2714592820583377,-1.424776424701638
0.27074522014799995,-1.466661505689795
0.26860303441698674,-1.4859419397954545
0.2571780438515829,-1.5238379654514063
0.24718117710685453,-1.5869980082113255
0.23861243418280165,-1.6548119488588178
0.2243311959760468,-1.674757225519845
0.19362653383152395,-1.6634549020785963
0.16434999550767657,-1.65148773608198
0.14292813819754435,-1.6548119488588178
0.12793283808045178,-1.6228995062011744
0.10436879503930634,-1.5530910378875793
0.08223287581883637,-1.479293514241779
0.060811018508704136,-1.4394029609197245
0.04510165648127384,-1.3848858713795837
0.021537613440128386,-1.2898133859620209
0.001543879950671639,-1.1714714111065931
-0.010595172525069956,-1.0850418789088088
-0.006310801063043511,-1.0039310871539648
-0.0005983057803415837,-0.8968914357397858
0.01725324197810194,-0.7566096565572282
0.05724070895701543,-0.63560831148033
0.13007502381146502,-0.533222557953724
0.22361713406570907,-0.4315016469824855
0.33001235870603246,-0.3025221912411765
0.4721106788632429,-0.1801911610535433
0.670619889937135,-0.07780540752693722
0.8862665868591327,0.005299911894009268
1.0440742690437734,0.11233956330818835
1.1590382366081498,0.229351853052881
1.36754431442677,0.33306729169022226
1.7945533368087392,0.40154607489308214
2.377227855644336,0.47933265387108803
2.9013492978322377,0.5697512414010778
3.183403752415645,0.654851088488127
3.2169646622015193,0.700060382253122
3.1669803284778775,0.7479290462395871
3.2226771574842212,0.8150781443317119
3.3676317252827825,0.8882108254221448
3.289798977055969,0.9234474808566261
2.6335760814555846,0.9520357107374318
1.4303817625364912,0.9905965789487509
0.15006875730092176,1.0384652429352161
-0.7239430209524732,1.0577456770408757
-1.0952552143280985,1.0723722132589621
-1.17380202446525,1.0969713878075624
-1.1645192196308594,1.1375267836849843
-1.1588067243481575,1.1561423752352762
-1.200936377058084,1.167444698676525
-1.2916222396709771,1.1780821795624061
-1.330895644739553,1.2040110392217416
-1.2102191818924748,1.2153133626629902
-0.9510147084398748,1.2206321031059308
-0.7153742780284202,1.213983677552255
-0.6211181058638384,1.218637575439828
-0.6418259012636329,1.2146485201076227
-0.6639618204841029,1.2099946222200497
-0.65539307756005,1.1927087157804928
-0.6732446253184936,1.1860602902268171
-0.7603601783796979,1.1760876518963035
-0.8560444743649552,1.1701040688979953
-0.8988881889852197,1.148829107126233
-0.9003163128058952,1.1342025709081465
-0.9217381701160274,1.116251821913222
-0.9638678228259542,1.106944026138076
-0.9852896801360863,1.0843393792555784
-0.9824334324947354,1.0677183153713892
-0.9874318658670995,1.046443353599627
-1.0159943422806093,1.037135557824481
-1.0502693139768209,1.0171902811634537
-1.0766896046593173,1.00455827261147
-1.1016817715211382,0.9879372087272806
-1.1302442479346477,0.9832833108397075
-1.1538082909757932,0.9693216171769886
-1.1659473434515348,0.9600138214018425
-1.1666614053618725,0.9427279149622857
-1.1609489100791706,0.93607948940861
-1.1495239195137668,0.9241123234119937
-1.1245317526519458,0.9194584255244207
-1.0781177284799928,0.9068264169724368
-1.0045693517152054,0.9061615744170692
-0.9060288080885971,0.8988483063080259
-0.7889226547932076,0.8915350381989826
-0.6653899443047784,0.8689303913164852
-0.5425712957266869,0.8562983827645013
-0.41689639950724455,0.8403421614356796
-0.2776543269913851,0.8277101528836958
-0.12770132582045948,0.8004516081136253
0.012254808605737754,0.7858250718955387
0.12793283808045178,0.7725282207881873
0.22361713406570907,0.7612258973469386
0.3114467490372512,0.7319728249107654
0.38713731153305175,0.7173462886926788
0.44426226436007105,0.7060439652514301
0.4821075456079713,0.6927471141440786
0.5092418982008055,0.6528565608220244
0.5263793840489113,0.622273803275116
0.5313778174212754,0.6023285266140889
0.5220950125868848,0.585042620174532
0.5056715886491168,0.5444872242971102
0.48067942178729584,0.5178935220824072
0.44640445009108426,0.505926356085791
0.39713417827778014,0.4926295049784395
0.3407232873610986,0.43944210054903377
0.2850264583547548,0.38226564078742253
0.23861243418280165,0.33639150446706007
0.20076715293490136,0.30381421925404906
0.1650640574180143,0.25195649993537844
0.12222034279774986,0.210736261502589
0.07009382334309477,0.18613708695398884
0.012968870516075494,0.17350507840200496
-0.03987171084891734,0.13494421019068578
-0.08128730164850631,0.0943888143132639
-0.11699039716539336,0.06048184398951774
-0.1541216165029559,0.03987172477312301
-0.1926809596611939,0.0019756991171714076
-0.21981531225402806,-0.03459064142804505
-0.23409655046078287,-0.06517339897495336
-0.24337935529517352,-0.08179446285914266
-0.2633730887846302,-0.11304206296141854
-0.2919355651981399,-0.14561934817442956
-0.3197839797013118,-0.17886147594280816
-0.3362074036390798,-0.19814191004846773
-0.344062084652795,-0.22673013992927335
-0.34977457993549693,-0.25664805492081405
-0.3583433228595498,-0.2918847103552954
-0.37191049915596686,-0.3138245146824253
-0.3911901707350859,-0.33975337434176056
-0.4118979661348804,-0.367011919111831
-0.4247510805209597,-0.40490794476778263
-0.4247510805209597,-0.4295071193163828
-0.42189483287960877,-0.4527766087542478
-0.4283213900726484,-0.47804062585821555
-0.44760106165176744,-0.5172663366249023
-0.46759479514122415,-0.5445248813949727
-0.47187916660325063,-0.5664646857221026
-0.4647385474998732,-0.5903990177153352
-0.45974011412750904,-0.63560831148033
-0.46545260941021094,-0.6728394945809141
-0.4754494761549393,-0.6987683542402494
-0.47973384761696575,-0.7220378436781144
-0.479019785706628,-0.7652526097770066
-0.4854463428996677,-0.7991595801007528
-0.501155704927098,-0.8191048567617799
-0.5168650669545283,-0.8363907632013368
-0.5218635003268924,-0.8776110016341263
-0.5197213145958792,-0.9135124996239752
-0.517579128864866,-0.9341226188403698
-0.5190072526855415,-0.9494139976138241
-0.520435376506217,-0.9853154956036729
-0.5232916241475679,-1.0165630957059488
-0.526147871788919,-1.0325193170347706
-0.5297181813406077,-1.0431567979206517
-0.5318603670716209,-1.0763989256890303
-0.5340025528026341,-1.106316840680571
-0.5354306766233096,-1.1222730620093928
-0.5325744289819586,-1.134240228006009
-0.5275759956095945,-1.1694768834404903
-0.5318603670716209,-1.2047135388749717
-0.5432853576370247,-1.227318185757469
-0.5504259767404022,-1.243274407086291
-0.5425712957266869,-1.2811704327422424
-0.5325744289819586,-1.3230555137303994
-0.5332884908922964,-1.354967956388043
-0.5404291099956737,-1.3762429181598053
-0.5411431719060115,-1.4148037863711245
-0.536858800443985,-1.463337292912957
-0.5375728623543228,-1.508546586677952
-0.5489978529197266,-1.53646997400339
-0.5575665958437795,-1.5697121017717686
-0.5511400386507399,-1.609602655093823
-0.5375728623543228,-1.6554767914141855
-0.5361447385336473,-1.6853947064057262
-0.5504259767404022,-1.7073345107328561
-0.5632790911264814,-1.7246204171724129
-0.5597087815747928,-1.7498844342763806
-0.5468556671887134,-1.7658406556052024
-0.5447134814577002,-1.767835183271305
-0.5604228434851305,-1.7485547491656455
-0.5747040816918854,-1.7339282129475588
-0.572561895960872,-1.7226258895063102
-0.5561384720231041,-1.704010297956018
-0.5475697290990511,-1.6441744679729366
-0.5539962862920909,-1.5697121017717686
-0.5647072149471569,-1.5105411143440548
-0.5654212768574947,-1.4673263482451626
-0.5597087815747928,-1.378237445825908
-0.5561384720231041,-1.2532470454168043
-0.5582806577541173,-1.1468722365579929
-0.561850967305806,-1.0850418789088088
-0.5689915864091833,-0.9846506530483053
-0.5797025150642495,-0.8310720227583962
-0.5875571960779646,-0.6907902435758385
-0.5847009484366137,-0.616992719930038
-0.572561895960872,-0.5212553919571077
-0.5625650292161437,-0.3603634935581553
-0.561850967305806,-0.19880675260383532
-0.5654212768574947,-0.11437174807215368
-0.5689915864091833,-0.02794221587436933
-0.5689915864091833,0.11433409097429106
-0.5697056483195211,0.25993461059978934
-0.5739900197815476,0.3270837086919141
-0.5804165769745873,0.3929031216733037
-0.583986886526276,0.5351794285219641
-0.5789884531539118,0.7253243993570897
-0.5704197102298588,0.8589577529859717
-0.5668494006781701,0.9513708681820642
-0.5668494006781701,1.0451136684888918
-0.5597087815747928,1.142845524127925
-0.5354306766233096,1.1867251327821846
-0.49829945728574704,1.2066704094432117
-0.45117137120345613,1.2385828521008553
-0.39404641837643684,1.2937647841963638
-0.3240683511633382,1.3230178566325368
-0.2505199743985509,1.339638920516726
-0.1891106501095052,1.3562599844009156
-0.15340755459261815,1.3914966398353967
-0.1419825640272143,1.4101122313856889
-0.1491231831305917,1.42340908249304
-0.16411848324768427,1.4293926654913485
-0.18268409291646553,1.4506676272631107
-0.2048200121369355,1.4619699507043593
-0.23909498383314706,1.4752668018117108
-0.28622306991543794,1.476596486922446
-0.33335115599772885,1.485904282697592
-0.3776229944386688,1.485904282697592
-0.4161823375969068,1.4918878656959
-0.4683088570515619,1.4845745975868567
-0.5232916241475679,1.4792558571439163
-0.5882712579883024,1.4639644783704622
-0.65539307756005,1.4593105804828892
-0.6953805445389635,1.4460137293755377
-0.6982367921803145,1.436041091045024
-0.6889539873459238,1.4114419164964238
-0.6968086683596391,1.39880990794444
-0.7089477208353806,1.381524001504883
-0.7210867733111223,1.3722162057297371
-0.7746414165864528,1.3502764014026074
-0.9331631606814312,1.3409686056274612
-1.1866551388513293,1.3296662821862126
-1.3623143687944135,1.3276717545201098
-1.1695176530032234,1.3123803757466557
-0.4661666713205487,1.3077264778590827
0.5570840461934341,1.3004132097500394
1.6660221929479457,1.302407737416142
2.9463351981835153,1.2891108863087908
4.374459018858997,1.2851218309765853
5.10065998167248,1.277808562867542
3.986723401545604,1.2791382479782771
1.2275881800005728,1.2658413968709257
-1.3594581211530625,1.2625171840940879
-2.2256152183927425,1.2565336010957797
-1.6957812809221386,1.2565336010957797
-1.113106762086542,1.2392476946562228
-1.0624083664525623,1.2306047414364443
-1.1466676718724158,1.2199672605505631
-1.052411499707834,1.2159782052183579
-0.9445881512468352,1.195368086001963
-0.9781490610327089,1.184730605116082
-1.0388443234114169,1.1740931242302006
-1.030275580487364,1.1714337540087305
-0.9995709183428412,1.1494939496816006
-0.9981427945221657,1.1335377283527788
-1.0045693517152054,1.116251821913222
-1.0088537231772319,1.1089385538041787
-1.0159943422806093,1.0823448515894758
-1.0088537231772319,1.0590753621516107
-0.9910021754187883,1.0331465024922755
-0.9731506276603448,1.019849651384924
-0.9710084419293316,0.9939207917255888
-0.956013141812239,0.9706513022877237
-0.9303069130400803,0.9413982298515505
-0.908885055729948,0.9254420085227288
-0.898174127074882,0.9028373616402314
-0.8917475698818423,0.886216297756042
-0.8781803935854252,0.862946808318177
-0.8574725981856307,0.8516444848769283
-0.8367648027858362,0.8336937358820039
-0.8160570073860417,0.8157429868870795
-0.7910648405242208,0.7844953867848036
-0.7632164260210489,0.7645501101237764
-0.7360820734282147,0.7446048334627493
-0.7010930398216655,0.7306431398000303
-0.6532508918290368,0.7040494375853273
-0.5932696913606665,0.6894229013672408
-0.5254338098785812,0.6741315225937866
-0.4440307521000787,0.6628291991525379
-0.3490605180251592,0.636235496937835
-0.2469496648468622,0.6202792756090133
-0.1419825640272143,0.6063175819462943
-0.02773265837317574,0.594350415949678
0.10222660930829311,0.561773130736667
0.24004055800347712,0.5371739561880668
0.37071388759528373,0.5178935220824072
0.4942465980837129,0.505926356085791
0.6156371228411288,0.47268422831741236
0.7348854618675316,0.4454256835473419
0.8362822531354908,0.423485879220212
0.9098306299002781,0.414178083445066
0.9619571493549333,0.3855898535642604
1.0083711735268863,0.35633678112808725
1.056213321519515,0.3284133938026492
1.0947726646777531,0.32110012569360596
1.10833984097417,0.30447906180941664
1.0912023551260643,0.2871931553698598
1.0512148881471508,0.2645885084873623
0.9976602448718203,0.2659181935980975
0.9326806110310858,0.27057209148567046
0.8569900485352853,0.2792150447054489
0.7763010526671206,0.275890831928611
0.6984683044403068,0.2911822107020652
0.6184933704824798,0.31511654269529776
0.5263793840489113,0.34902351301904394
0.4242685308706143,0.3643148917924981
0.3307264206163702,0.38957890889646585
0.2571780438515829,0.423485879220212
0.19148434810051074,0.4733490708727799
0.1157937856047102,0.5072560411965261
0.03439072782620772,0.5424926966310074
-0.036301401297228635,0.5763996669547535
-0.08342948737951954,0.626927701162689
-0.11627633525505562,0.6681479395954785
-0.1419825640272143,0.7067088078067977
-0.16697473088903522,0.7339673525768681
-0.18982471201984294,0.7725282207881873
-0.20981844550929968,0.8057703485565659
-0.2205293741643658,0.8383476337695769
-0.21767312652301482,0.8536390125430311
-0.20053564067490906,0.8702600764272204
-0.18696846437849196,0.8795678722023663
-0.19125283584051841,0.894194408420453
-0.20696219786794873,0.8935295658650854
-0.20696219786794873,0.8888756679775124
-0.19125283584051841,0.8749139743147933
-0.18982471201984294,0.8722546040933231
-0.21481687888166387,0.8616171232074419
-0.2398090457434848,0.8463257444339878
-0.24409341720551125,0.8144133017763443
-0.24552154102618673,0.7964625527814199
-0.2712277697983454,0.7785118037864954
-0.31050117486692114,0.7592313696808358
-0.33477927981840433,0.7193408163587816
-0.34549020847347045,0.6907525864779759
-0.36262769432157627,0.6681479395954785
-0.3919042326454236,0.6495323480451864
-0.41832452332792003,0.6089769521677646
-0.4333198234450126,0.5750699818440184
-0.44545887592075417,0.5498059647400507
-0.46188229985852225,0.5371739561880668
-0.47973384761696575,0.5072560411965261
-0.4947291477340583,0.48465139431402865
-0.5118666335821641,0.4680303304298393
-0.5382869242646605,0.46271158998689876
-0.5732759578712098,0.44210147077050405
-0.5989821866433686,0.4261452494416823
-0.6054087438364082,0.41351324088969843
-0.5996962485537063,0.41284839833433085
-0.5982681247330307,0.39888670467161186
-0.6061228057467459,0.390908594007201
-0.6204040439535007,0.3835953258981577
-0.6325430964292423,0.38492501100889287
-0.6339712202499178,0.3716281599015414
-0.6146915486707988,0.3616555215710278
-0.5761322055125608,0.3483586704636764
-0.5304322432509454,0.34436961513147096
-0.4811619714376412,0.3284133938026492
-0.4297495138933239,0.3171110703614005
-0.38833392309373493,0.30248453414331394
-0.37476674679731786,0.2978306362557409
-0.360485508590563,0.28320410003765434
-0.28622306991543794,0.27256661915177316
-0.13555600683417462,0.2566103978229515
0.022251675350466127,0.25129165738001086
0.11008129032200827,0.23799480627265945
0.1193640951563989,0.22802216794214586
0.10793910459099504,0.21140110405795656
0.10508285694964407,0.20408783594891328
0.09008755683255151,0.19278551250766454
0.01868136579877742,0.18746677206472398
-0.10984977806201594,0.1754996060681077
-0.26837152215699445,0.17416992095737255
-0.4261792043416352,0.16685665284832923
-0.5654212768574947,0.16020822729465353
-0.6875258635252484,0.13826842296752365
-0.7832101595105057,0.12364188674943707
-0.8524741648132665,0.10768566542061535
-0.8767522697647497,0.0970481845347342
-0.8803225793164384,0.0757732227629719
-0.9031725604472461,0.06646542698782588
-0.9238803558470406,0.05782247376804745
-0.9038866223575839,0.05050920565900416
-0.8774663316750875,0.025910031110404
-0.91459755101265,0.009288967226214698
-0.9710084419293316,-0.005337568991871884
-0.9660100085569674,-0.014645364767017891
-0.9967146707014902,-0.03791485420488291
-1.245922277409362,-0.049882020201499205
-1.600811046847219,-0.05719528831054249
-1.6457969471984968,-0.0618491861981155
-1.1495239195137668,-0.08711320330208323
-0.3112152367772589,-0.10506395229700767
0.648483970716665,-0.11636627573825639
1.8509642277254208,-0.12633891406877
3.3704879729241335,-0.16290525461398644
4.565113548919174,-0.20080128026993804
4.313049694569951,-0.23337856548294905
2.2258467306527345,-0.25398868469934377
-0.558994719664455,-0.28656596991235483
-2.276313614026722,-0.311165144460955
-2.2755995521163843,-0.32778620834514427
-1.4972720698482467,-0.33443463389882
-1.110250514445191,-0.3570392807813174
-1.2487785250507129,-0.3776493999977122
-1.3451768829463078,-0.3956001489926366
-1.200936377058084,-0.40424310221241505
-1.1016817715211382,-0.42485322142880977
-1.187369200761667,-0.4441336555344694
-1.2630597632574676,-0.4640789321954965
-1.2102191818924748,-0.4740515705260101
-1.1359567432173496,-0.4926671620763021
-1.1416692385000515,-0.5072936982943888
-1.1723739006445746,-0.5219202345124753
-1.168089529182548,-0.5272389749554158
-1.143097362320727,-0.5405358260627673
-1.1231036288312704,-0.5551623622808539
-1.118819257369244,-0.5757724814972486
-1.1081083287141777,-0.5884044900492325
-1.093827090507423,-0.6050255539334217
-1.0709771093766152,-0.6209817752622435
-1.0538396235285095,-0.6435864221447409
-1.0459849425147942,-0.6582129583628276
-1.027419332846013,-0.6735043371362817
-0.9960006087911525,-0.685471503132898
-0.9667240704673051,-0.7047519372385576
-0.9481584607985238,-0.7140597330137036
-0.9331631606814312,-0.722702686233482
-0.9110272414609613,-0.7320104820086281
-0.8810366412267762,-0.7559448140018606
-0.8446194837995514,-0.7719010353306823
-0.8039179549103002,-0.7845330438826662
-0.7582179926486847,-0.7984947375453852
-0.7039492874630164,-0.8304071802030286
-0.636113405980931,-0.856336039862364
-0.5554244101127663,-0.8736219463019208
-0.46402448558953546,-0.8869187974092723
-0.35977144668022526,-0.9141773421793428
-0.23838092192280932,-0.9341226188403698
-0.10128103513796306,-0.9460897848369861
0.04010322310890965,-0.9560624231674998
0.18291560517645783,-0.9859803381590405
0.328584234885357,-1.0145685680398462
0.47068255504256745,-1.0338490021455056
0.5913590178896456,-1.0458161681421219
0.6863292519645652,-1.0710801852460896
0.7713026192947564,-1.0936848321285872
0.8527056770732588,-1.1076465257913062
0.9134009394519669,-1.1162894790110847
0.9362509205827746,-1.137564440782847
0.9298243633897348,-1.1541855046670362
0.9119728156312914,-1.1614987727760795
0.8791259677557552,-1.165487828108285
0.8234291387494115,-1.1874276324354147
0.747738576253611,-1.2126916495393825
0.6684777042061217,-1.2346314538665124
0.5899308940689701,-1.2499228326399665
0.50781377438013,-1.273857164633199
0.4206982213189256,-1.2951321264049613
0.3292982967956947,-1.3117531902891508
0.23575618654145067,-1.3217258286196643
0.1386437667355179,-1.3430007903914267
0.0479579041226248,-1.3682648074953943
-0.029160782193851223,-1.393528824599362
-0.09128416839323468,-1.4094850459281838
-0.1491231831305917,-1.432754535366049
-0.206248135957611,-1.4606779226914868
-0.2626590268742925,-1.494584893015233
-0.30693086531523245,-1.5191840675638333
-0.3340652179080666,-1.5424535570016982
-0.341205837011444,-1.5670527315502985
-0.3447761465631327,-1.5983003316525743
-0.35620113712853657,-1.6209049785350718
-0.3726245610663046,-1.6381908849746285
-0.3740526848869801,-1.6534822637480828
-0.3569151990388743,-1.6780814382966829
-0.3340652179080666,-1.6960321872916073
-0.32121210352198726,-1.708664195843591
-0.3097871129565834,-1.7219610469509425
-0.2905074413774644,-1.7458953789441751
-0.26194496496395475,-1.7645109704944673
-0.24266529338483578,-1.777142979046451
-0.23552467428145835,-1.7891101450430673
-0.23695279810213385,-1.8137093195916676
-0.23623873619179608,-1.8336545962526947
-0.23338248855044513,-1.845621762249311
-0.23124030281943192,-1.8575889282459273
-0.23838092192280932,-1.8855123155713653
-0.2519480982192264,-1.9147653880075386
-0.26622933642598123,-1.9353755072239331
-0.2726558936190209,-1.9480075157759171
-0.2733699555293586,-1.975930903101355
-0.2762262031707096,-2.015156613868042
-0.27908245081206057,-2.049063584191788
-0.26694339833631897,-2.0610307501884044
-0.22909811708841868,-2.0743276012957557
-0.17482941190275036,-2.103580673731929
-0.1212747686274198,-2.1408118568325127
-0.08342948737951954,-2.142806384498616
-0.06557793962107601,-2.1195368950607505
-0.05629513478668538,-2.0995916183997236
-0.022734225000811552,-2.098926775844356
0.07080788525343251,-2.0703385459635504
0.22361713406570907,-2.0051839755375283
0.3799966924296743,-1.937370034890036
0.4699684931322297,-1.9008036943448194
0.4749669265045939,-1.851605345247619
0.4449763262704088,-1.7638461279390996
0.4364075833463559,-1.657471319080288
0.44283414053939557,-1.5823441103237526
0.40141854973980656,-1.51187079945479
0.27931396307205286,-1.4121444161496541
0.11008129032200827,-1.280505590186875
-0.047726391862632486,-1.1688120408851228
-0.17268722617173715,-1.0730747129121925
-0.2855090080051002,-0.9720186444963215
-0.38190736590069524,-0.8397149759781747
-0.4547416807551448,-0.7127300479029685
-0.479019785706628,-0.6063552390441569
-0.4811619714376412,-0.5179311791802699
-0.479019785706628,-0.4075673149892529
-0.4747354142446016,-0.2892253401338251
-0.47759166188595253,-0.18750442916258658
-0.48830259054101866,-0.11836080340435912
-0.4911588381823696,-0.03525548398341262
-0.4754494761549393,0.06646542698782588
-0.4668807332308864,0.16220275496075626
-0.501155704927098,0.21671984450089715
-0.613977486760461,0.27323146170714074
-0.8617569696476571,0.3503531981297791
-1.1830848292996405,0.4288046196631526
-1.2559191441540902,0.46736548787447174
-0.7482211259039564,0.5019373007535856
0.24218274373449034,0.5544598626276237
1.3632599429647436,0.6162902202768079
2.59715892402836,0.6448784501576135
4.074553016517146,0.6668182544847433
5.174208358437267,0.7007252248084895
4.669366587828484,0.7492587313503223
2.310820097982926,0.7711985356774521
-0.4090417184935294,0.7851602293401712
-1.7400531193630786,0.8011164506689928
-1.4951298841172334,0.8283749954390633
-0.8103445121033398,0.8356882635481067
-0.5504259767404022,0.8410070039910472
-0.6275446630568782,0.847655429544723
-0.661105572842752,0.870924918982588
-0.5868431341676269,0.8815623998684691
-0.5411431719060115,0.88954051053288
-0.5661353387678324,0.886216297756042
-0.594697815181342,0.88954051053288
-0.5711337721401966,0.8828920849792042
-0.5140088193131773,0.8789030296469988
-0.47830572379629027,0.86760070620575
-0.48473228098932997,0.866271021095015
-0.4933010239133828,0.8582929104306041
-0.4633104236791977,0.8562983827645013
-0.42689326625197294,0.8463257444339878
-0.4090417184935294,0.8436663742125174
-0.4126120280452181,0.8350234209927391
-0.3933323564660991,0.8336937358820039
-0.363341756231914,0.8230562549961228
-0.33763552745975534,0.8157429868870795
-0.321926165432325,0.7997867655582578
-0.3040746176738815,0.793138340004582
-0.2747980793500341,0.7811711740079658
-0.23838092192280932,0.7765172761203927
-0.20981844550929968,0.7645501101237764
-0.1819700310061278,0.7618907399023062
-0.14698099739957848,0.7545774717932628
-0.1055654065999895,0.7572368420147332
-0.06914824917276471,0.7532477866825277
-0.029160782193851223,0.7572368420147332
0.025821984902154833,0.7539126292378953
0.10079848548761763,0.7539126292378953
0.18434372899713333,0.7432751483520141
0.2764577154307019,0.7412806206859114
0.3799966924296743,0.7346321951322357
