ECG,PPG
0.17062143332076138,-2.027377504039334
0.34504910559438545,-1.711687358959818
0.4094604023638908,-1.6583613209396295
0.4056991587569124,-1.696045054473896
0.4118111796182523,-1.6704485562242055
0.4456623720810581,-1.5986361583570183
0.46399843466507784,-1.5289568020106388
0.44190112847407964,-1.4699426532682969
0.41745304502871994,-1.3895980893178794
0.4343786412601228,-1.296455276242617
0.4724612327807793,-1.1997573939660084
0.4588267247054825,-1.1087476224115533
0.3610343909240437,-0.9985404771698305
0.23362226373764985,-0.8805121796851466
0.16215863520505994,-0.7681719929226162
0.16639003426291066,-0.6736071521668152
0.18519625229780273,-0.5598449377237464
0.15698692524546462,-0.43044041879475564
0.09022485122159773,-0.3124121213100718
0.04273915068349522,-0.22709046047777018
0.04414961703611213,-0.12825953668035417
0.0596647469148981,-0.00880921151513192
0.04038837342913371,0.09784286452524507
-0.018851213380776347,0.16254512398974047
-0.07197877932934647,0.25497692322473386
-0.08561328740464323,0.40073476047991574
-0.07526986748545259,0.5543137499780586
-0.09172530826598316,0.6474565630533212
-0.14250209696019178,0.7192689609205084
-0.17682344487386983,0.8003245387111949
-0.13686023154972415,0.8756920057797279
-0.054112872196199,0.8998664763488801
-0.018851213380776347,0.9226189192374938
-0.07009815752585727,0.9738119157368749
-0.12510634527791661,1.037803161361101
-0.08044157744504792,1.0605556042497148
0.06201552416925961,1.0840190609785978
0.18284547504344123,1.1345010436377094
0.18049469778907973,1.2013363446230125
0.06953801138321644,1.2326209535948562
-0.03342603235781771,1.2610615072056235
-0.025433389692988573,1.3072774068231203
0.09398609482857614,1.369135610926539
0.2190474447606085,1.3989981922178445
0.25901065808475415,1.4245946904675348
0.23644319644288367,1.460856396321263
0.2505478599690527,1.51560446202199
0.32530257665774875,1.5440450156327572
0.37607936535195735,1.5675084723616401
0.3347056856751948,1.5923939567710614
0.25477925902690346,1.6364768148677507
0.22751024287630991,1.6649173684785177
0.2651226789460941,1.6883808252074006
0.3140188458368135,1.6990460328114385
0.34787003829961927,1.7203764480195138
0.37890029805719116,1.7274865864222055
0.4118111796182523,1.7345967248248975
0.43296817490750594,1.7296196279430132
0.44472206117931345,1.7367297663457049
0.45741625835286565,1.7381517940262434
0.46493874556682246,1.7438399047483968
0.44519221663018577,1.7324636833040898
0.3977065160920833,1.7232205033805905
0.34551926104525776,1.7047341435335919
0.3158994676403027,1.696912991290631
0.3173099339929196,1.6755825760825556
0.3431684837908962,1.6514081055134033
0.36667625633451134,1.6158574134999444
0.36714641178538365,1.5966600398126765
0.34928050465223615,1.5717745554032552
0.34504910559438545,1.5404899464314112
0.37137781084323435,1.487874922251492
0.4071096251095293,1.452324230238033
0.4099305578147631,1.421039621266189
0.36479563453102215,1.389043998454076
0.2848692078827308,1.3328739050728107
0.21340557935014087,1.2930571300177367
0.19130827315914267,1.2624835348861618
0.22468931017107613,1.2340429812753948
0.24960754906730812,1.1736068048525143
0.20353231488182252,1.1217027945128644
0.11702371192131894,1.0854410886591361
0.09633687208293766,1.0605556042497148
0.17203189967337829,1.009362607750334
0.25242848177254196,0.9659907634939139
0.23879397369724517,0.9361281822026083
0.16591987881203835,0.9226189192374938
0.1292477536439988,0.8842241718629581
0.15698692524546462,0.852228549050845
0.18096485323995204,0.8308981338427697
0.16121832430331534,0.824499009280347
0.12642682093876498,0.7981914971903874
0.12642682093876498,0.7761500681420428
0.146643505326274,0.7590857359755825
0.14758381622801858,0.7541086390936982
0.1268969763896373,0.7327782238856229
0.1306582199966157,0.7178469332399701
0.16215863520505994,0.705759697955394
0.16733034516465525,0.7043376702748556
0.11702371192131894,0.685851310427857
0.07282909953932255,0.6737640751432808
0.1071504474530006,0.662387853698974
0.21575635660450238,0.6602548121781665
0.3290638202647272,0.6403464246506294
0.4118111796182523,0.6239931063244383
0.4785732536421192,0.606928774157978
0.5495667267238369,0.599107621915017
0.6266722206668943,0.5749331513458649
0.7084792691186749,0.5521807084572511
0.7667785450268404,0.5265842102075606
0.7625471459689896,0.512363933402177
0.6981358491994842,0.48676743515248655
0.6360753296843404,0.46045992306252687
0.6309036197247451,0.42633125872960626
0.6769788539102307,0.4057118573618
0.7305765753096731,0.37940434527184036
0.7559649696567774,0.34954176398053477
0.7188226890378656,0.306880933564384
0.6050450699267684,0.2770183522730784
0.46258796831246096,0.24857779866231125
0.3812510753115527,0.2244033280931591
0.37607936535195735,0.18814162223943093
0.34881034920136383,0.1682332347118939
0.20917418029229015,0.15116890254543358
0.01688060088551861,0.129127473497089
-0.08279235469940942,0.0793565046782464
-0.01320934797030872,0.035984660421826416
0.09492640573032075,0.004700051449982499
0.0831725194585132,-0.01734137759836208
-0.08373266560115403,-0.05715815265343616
-0.2384138089381414,-0.08488769242393418
-0.27179484595007486,-0.10052999690985615
-0.23888396438901371,-0.11190621835416302
-0.22336883451022774,-0.14674589652735284
-0.22148821270673852,-0.17376442245758167
-0.23230178807680146,-0.18940672694350363
-0.2967130848463069,-0.2022049760683489
-0.34372862993353703,-0.2398887096026154
-0.24687660705384284,-0.2733063600952669
-0.12181525712181049,-0.29463677530334226
-0.19374904110527272,-0.3102790797892642
-0.27367546775356405,-0.3515178825248767
0.1960098276678657,-0.3927566852604891
1.3521220813628565,-0.42261926655179466
2.6765499864701314,-0.44181664023906253
3.805863379465401,-0.4780783460927907
4.993005892917964,-0.5100739689049039
6.30756053355692,-0.5314043841129792
6.883971116326363,-0.542069591717017
5.68460456115112,-0.5690881176472458
2.880127296697838,-0.5968176574177437
-0.06821753572236806,-0.6209921279868958
-1.7734713560362076,-0.6337903771117411
-2.0546243156578443,-0.6572538338406241
-1.665335602335578,-0.6771622213681611
-1.2530092719205692,-0.6956485812151598
-0.8876984865927905,-0.7056027749789283
-0.47913339978476005,-0.7255111625064653
-0.1909281084000389,-0.7439975223534641
-0.20785370463144176,-0.7631948960407319
-0.38322168780681043,-0.7731490898045004
-0.429296921992296,-0.7923464634917683
-0.3319747436617295,-0.8143878925401129
-0.3023549502567745,-0.8421174323106109
-0.3992069731364687,-0.8598927783173403
-0.4758423116286539,-0.8798011658448774
-0.4429314300675928,-0.9011315810529528
-0.38698293141378887,-0.9309941623442584
-0.3771096669454705,-0.9509025498717955
-0.4029682167434471,-0.9693889097187941
-0.3977965067838518,-0.9878752695657927
-0.36676624702627986,-1.0191598785376368
-0.329623966407368,-1.0419123214262505
-0.31739992468468814,-1.05968766743298
-0.33808676452306946,-1.076040985759171
-0.36488562522279067,-1.107325594731015
-0.3756992005928536,-1.1336331068209746
-0.36394531432104604,-1.1514084528277042
-0.33808676452306946,-1.1620736604317419
-0.3037654166093914,-1.1834040756398172
-0.2675634468922241,-1.1976243524452008
-0.239354119839886,-1.2054455046881618
-0.22430914541197233,-1.210422601570046
-0.2186672800015047,-1.2289089614170448
-0.2158463472962709,-1.242418224382159
-0.2139657254927817,-1.249528362784851
-0.2130254145910371,-1.2545054596667353
-0.20926417098405867,-1.273702833354003
-0.19751028471225113,-1.2872120963191176
-0.18387577663695437,-1.2936112208815402
-0.17400251216863602,-1.2985883177634243
-0.15143505052676554,-1.3213407606520382
-0.09031484191336625,-1.3405381343393061
-0.00615701620722419,-1.3512033419433438
0.04885117154483515,-1.3611575357071122
0.05308257060268587,-1.391731130838687
0.05167210425006896,-1.4251487813313384
0.08693376306549161,-1.450745279581029
0.13959117356318945,-1.4670985979072202
0.16874081151727216,-1.4990942207193332
0.17908423143646282,-1.5403330234549457
0.20353231488182252,-1.5794387846697506
0.24866723816556352,-1.601480213718095
0.28674982968622,-1.6256546842872472
0.2970932496054106,-1.6569392932590912
0.2796974979231355,-1.6946230267933577
0.2467866163620743,-1.7109763451195488
0.22421915472020382,-1.715953442001433
0.23926412914811748,-1.715953442001433
0.2872199851370923,-1.7266186496054707
0.32201148850164263,-1.7244856080846633
0.30602620317198437,-1.7052882343973954
0.2533687926742865,-1.6668934870228596
0.20682340303792865,-1.6384529334120925
0.18613656319954736,-1.6107233936415943
0.1772036096329736,-1.569484590905982
0.1532256816384862,-1.4891400269555646
0.09962796023904377,-1.4016853246024554
0.025343399001220047,-1.3277398852144608
-0.039067897768285335,-1.2630376257499654
-0.06492644756626195,-1.1592296050706652
-0.06492644756626195,-1.0383572522249045
-0.08091173289592021,-0.9437924114691036
-0.13591992064797956,-0.8769571104838007
-0.1956296629087619,-0.7439975223534641
-0.2153761918453986,-0.5257162733908258
-0.19374904110527272,-0.297480830664419
-0.18199515483346515,-0.14532386884681447
-0.21443588094365398,-0.02445151600105388
-0.2703843795974579,0.10353097524739852
-0.29859370664979606,0.21160507896831388
-0.2830785767710101,0.25142185402338796
-0.25110800611169354,0.28341747683550106
-0.23042116627331227,0.3538078470221499
-0.2139657254927817,0.4377074801739131
-0.1932788856544004,0.4711251306665646
-0.17917422212823134,0.49458858739544753
-0.17776375577561443,0.5457815838948284
-0.16553971405293458,0.6119058710398622
-0.12369587892529971,0.6382133831298219
-0.06868769117324036,0.6595437983378972
-0.032485721456073105,0.7014936149137789
-0.018851213380776347,0.7576637082950441
-0.016500436126414834,0.7789941235031195
-0.023082612438627064,0.7989025110306566
-0.04000820867002994,0.8387192860857307
-0.0545830276470713,0.8963114071475342
-0.05223225039270979,0.9261739884388398
-0.03342603235781771,0.9539035282093378
0.001835626457604945,0.9930092894241427
0.05402288150443047,1.049179382805408
0.10197873749340527,1.0833080471383285
0.10903106925648981,1.1138816422699034
0.07423956589193946,1.1465882789222857
0.04744070519221824,1.1970702615813973
0.06530661232536572,1.2304879120740488
0.09680702753380996,1.2596394795250851
0.08975469577072542,1.2809698947331605
0.04038837342913371,1.3150985590660813
-0.006627171658096492,1.3392730296352333
-0.02026167973339325,1.3634475002043855
-0.01320934797030872,1.3748237216486923
-0.012739192519436419,1.3947321091762295
-0.02919463329996699,1.4061083306205362
-0.050351628589220584,1.4224616489467274
-0.06539660301713425,1.4253057043078041
-0.07291909023109108,1.4324158427104958
-0.07997142199417562,1.4324158427104958
-0.09078499736423856,1.440948008793726
-0.10912105994825834,1.4359709119118418
-0.13262883249187343,1.4274387458286117
-0.15331567233025473,1.4061083306205362
-0.16318893679857308,1.3968651506970369
-0.1674203358564238,1.3819338600513842
-0.18152499938259287,1.3641585140446546
-0.20597308282795257,1.329318835871465
-0.22101805725586623,1.3122545037050044
-0.2153761918453986,1.2959011853788134
-0.20503277192620795,1.2759927978512764
-0.2125552591401648,1.2297768982337796
-0.24029443074163062,1.1970702615813973
-0.27884717771315937,1.1728957910122453
-0.32210147919341114,1.148010306602824
-0.36441546977191835,1.0918402132215588
-0.38604262051204424,1.0470463412846003
-0.3780499778472151,1.0164727461530256
-0.3583034489105784,0.9937203032644119
-0.35454220530360003,0.938972237563685
-0.3705274906332583,0.8906232964253807
-0.39168448592251187,0.8564946320924601
-0.4024980612925748,0.8365862445649231
-0.4020279058417025,0.7903703449474264
-0.4001472840382133,0.7469985006910064
-0.41378179211351007,0.7135808501983549
-0.4466926736745712,0.697938545712433
-0.47396168982516473,0.6630988675392432
-0.4612674926516126,0.6311032447271301
-0.41989381297485,0.6047957326371705
-0.3992069731364687,0.595552552713671
-0.4166027248187439,0.5749331513458649
-0.42506552293444533,0.5585798330196737
-0.37146780153500286,0.5429375285337518
-0.26709329144135185,0.5408044870129443
-0.15660676048636085,0.528006237888099
-0.060695048508411224,0.5216071133256763
0.03380619711692148,0.5116529195619078
0.1292477536439988,0.512363933402177
0.21152495754665165,0.5024097396384085
0.2646525234952218,0.49814365659679344
0.28016765337400773,0.49032250435383246
0.2505478599690527,0.4910335181941016
0.18848734045390886,0.47965729674979474
0.13159853089836032,0.46828107530548785
0.12501635458614807,0.44908370161822
0.1710915887716337,0.4391295078544515
0.21669666750624697,0.4199321341671836
0.1931888949626319,0.40002374663964657
0.0827023640076409,0.3708721791886102
-0.07103846842760188,0.3538078470221499
-0.20268199467184644,0.33318844565434363
-0.28589950947624393,0.3104360027657299
-0.3362061427195802,0.27275226923146334
-0.38369184325768274,0.24928881250258042
-0.4387000310097421,0.22653636961396664
-0.4871260424495892,0.19809581600319945
-0.5336714320859471,0.14192572262193423
-0.5773958890170712,0.09286576764336082
-0.6352250094743643,0.05589304794936346
-0.6902331972264236,0.032429591220480516
-0.7560549603485459,-0.0024100869527093004
-0.8204662571180513,-0.02445151600105388
-0.851026361424751,-0.03724976512589912
-0.8312798324881143,-0.04293787584805256
-0.7889658419096071,-0.0699564017782814
-0.7800328883430334,-0.09057580314608762
-0.8195259462163067,-0.10337405227093285
-0.866541491303537,-0.11048419067362467
-0.8632504031474308,-0.1375027166038535
-0.8270484334302636,-0.15741110413139053
-0.8425635633090496,-0.1694983394159666
-0.8571383822860908,-0.17731949165892757
-0.5336714320859471,-0.2078930867905023
0.4249755322426768,-0.23491161272073116
1.832620952154349,-0.25339797256772983
3.193250826978791,-0.2647741940120367
4.362527433298206,-0.29819184450468816
5.503124557114411,-0.33160949499733966
6.27088840838888,-0.35862802092756846
5.689306115659843,-0.3742703254134904
3.3526335248245016,-0.4048439205450652
0.2843990524318585,-0.43399548799610155
-1.9192195458066212,-0.45888097240552284
-2.6108182140397775,-0.4716792215303681
-2.320262145400695,-0.49372065057871267
-1.817665968418204,-0.5136290381062497
-1.414742747020641,-0.534248439474056
-1.1185448129710909,-0.5442026332378245
-0.9328334098765315,-0.561977979244554
-0.891459730199769,-0.5754872422096684
-0.9605725814779974,-0.5911295466955904
-1.059775381612053,-0.5968176574177437
-1.1223060565780691,-0.6089048927023198
-1.1439332073181951,-0.6195701003063575
-1.154746782688258,-0.6352124047922795
-1.171672378919661,-0.6423225431949713
-1.1754336225266393,-0.6536987646392781
-1.1519258499830243,-0.6636529584030467
-1.1340599428498768,-0.6800062767292379
-1.1326494764972599,-0.6871164151319297
-1.1458138291216844,-0.6977816227359673
-1.1444033627690675,-0.708446830340005
-1.1392316528094721,-0.7311992732286188
-1.135940564653366,-0.7461305638742716
-1.1232463674798139,-0.7603508406796552
-1.095507195878348,-0.7731490898045004
-1.0461408735367563,-0.7973235603736525
-0.9991253284495261,-0.8143878925401129
-0.9746772450041664,-0.8286081693454964
-0.9779683331602725,-0.8392733769495342
-0.985020664923357,-0.8634478475186863
-0.9817295767672509,-0.8826452212059541
-0.9732667786515495,-0.8975765118516069
-0.9742070895532942,-0.9046866502542987
-0.9657442914375927,-0.9203289547402207
-0.9234303008590855,-0.9288611208234508
-0.8571383822860908,-0.9331272038650659
-0.8138840808058391,-0.9324161900247967
-0.8035406608866484,-0.9437924114691036
-0.7894359973604794,-0.9501915360315262
-0.7522937167415675,-0.9537466052328721
-0.729726255099697,-0.9551686329134105
-0.7386592086662708,-0.9672558681979866
-0.7395995195680154,-0.97294397892014
-0.6921138190299129,-0.9743660066006784
-0.6324040767691306,-0.9757880342812167
-0.6037245942659201,-0.9949854079684846
-0.5929110188958572,-1.0113387262946758
-0.5567090491786899,-1.0227149477389825
-0.5078128822879705,-1.0326691415027511
-0.4800737106865047,-1.0625317227940567
-0.4730213789234201,-1.099504442488054
-0.4457523627728266,-1.1336331068209746
-0.38792324231553343,-1.1556745358693192
-0.32022085738992195,-1.1890921863619708
-0.27085453504833024,-1.229619975257314
-0.24687660705384284,-1.2722808056734647
-0.24828707340645975,-1.296455276242617
-0.25439909426779966,-1.3199187329714999
-0.24781691795558744,-1.3426711758601135
-0.23512272078203528,-1.3739557848319575
-0.24499598525035363,-1.3888870754776104
-0.27226500140094717,-1.3938641723594944
-0.28589950947624393,-1.3895980893178794
-0.2802576440657763,-1.3988412692413787
-0.3014146393550299,-1.4009743107621864
-0.3742887342402367,-1.3867540339568027
-0.4702004462181863,-1.3405381343393061
-0.5421342302016485,-1.2957442624023476
-0.5919707079941126,-1.257349515027812
-0.6375757867287258,-1.2175327399727378
-0.6714269791915316,-1.1336331068209746
-0.6681358910354255,-1.0390682660651738
-0.6436878075900657,-0.9686778958785249
-0.6479192066479165,-0.9146408440180672
-0.7043378607525927,-0.7802592282071922
-0.7678088466203535,-0.5555788546821313
-0.7852045983026287,-0.32023327355303277
-0.770159623874715,-0.15812211797165973
-0.7819135101465226,-0.02445151600105388
-0.8218767234706682,0.11561821053197457
-0.8242275007250297,0.23435752185692763
-0.7668685357186089,0.2827064629952319
-0.7226739233366125,0.32536729341138265
-0.7527638721924399,0.4085559127228767
-0.8087123708462438,0.5059648088397544
-0.8026003499849038,0.5514696946169819
-0.7339576541575478,0.5806212620680183
-0.6700165128389147,0.6325252724076684
-0.6512102948040226,0.6972275318721638
-0.6577924711162348,0.7192689609205084
-0.6620238701740856,0.733489237725892
-0.6516804502548948,0.7669068882185435
-0.6215905013990676,0.8159668431971169
-0.5792765108205604,0.8344532030441155
-0.553888116473456,0.8500955075300375
-0.5618807591382852,0.8806691026616122
-0.5835079098784111,0.9254629745985706
-0.5755152672135819,0.9446603482858384
-0.525678789421118,0.9638577219731063
-0.4626779590042295,0.9915872617436043
-0.42036396842572227,1.0349591060000243
-0.3982666622347241,1.0562895212080996
-0.3719379569858752,1.0769089225759059
-0.3282135000547511,1.1039274485061348
-0.28919059763235,1.1508543619639007
-0.2703843795974579,1.1828499847760137
-0.2619215814817565,1.2120015522270502
-0.24781691795558744,1.2340429812753948
-0.23888396438901371,1.2695936732888538
-0.25204831701343816,1.2930571300177367
-0.27884717771315937,1.3158095729063504
-0.284489043123627,1.3278968081909264
-0.2586304933256504,1.3520712787600786
-0.22948085537156768,1.3719796662876156
-0.23512272078203528,1.3947321091762295
-0.27132469049920255,1.4004202198983828
-0.29624292939543456,1.4046863029399979
-0.27179484595007486,1.3982871783775752
-0.2167866581980155,1.401131233738652
-0.1913982638509112,1.3918880538151526
-0.2370033425855245,1.3819338600513842
-0.3164596137829435,1.3591814171627703
-0.3550123607544723,1.3506492510795403
-0.3277433446038788,1.3357179604338874
-0.2821382658692655,1.3150985590660813
-0.2586304933256504,1.2759927978512764
-0.24828707340645975,1.2525293411223934
-0.23512272078203528,1.231198925914318
-0.23512272078203528,1.2084464830257042
-0.2581603378747781,1.1615195695679383
-0.275085934106181,1.1266798913947484
-0.2675634468922241,1.101083393145058
-0.26662313599047954,1.0783309502564442
-0.29765339574805144,1.029270995277871
-0.3319747436617295,0.9908762479033352
-0.3362061427195802,0.9638577219731063
-0.3291538109564957,0.9453713621261076
-0.33808676452306946,0.8977334348280726
-0.34043754177743096,0.8564946320924601
-0.3065863493146252,0.8266320508011545
-0.2619215814817565,0.8102787324749634
-0.2605111151291396,0.769039929739351
-0.3061161938637529,0.7320672100453536
-0.3521914280492385,0.7036266564345864
-0.3587736043614507,0.6922504349902795
-0.3286836555056234,0.6638098813795124
-0.29295184123932844,0.6403464246506294
-0.2830785767710101,0.6218600648036308
-0.3023549502567745,0.6161719540814773
-0.3282135000547511,0.5962635665539403
-0.329623966407368,0.5813322759082875
-0.3014146393550299,0.5671119991029039
-0.2609812705800119,0.5656899714223655
-0.22054790180499392,0.5493366530961744
-0.15895753774072235,0.5372494178115983
-0.047060540433114466,0.5237401548464838
0.1038593592968945,0.520185085645138
0.23221179738503295,0.504542781159216
0.2923916950966876,0.49316655971490914
0.32483242120687644,0.47894628290952557
0.41134102416738005,0.4746801998679105
0.5481562603712199,0.4597489092222577
0.6247915988634052,0.44552863241687407
0.5674326338569843,0.42562024488933703
0.4433115948266966,0.41566605112556854
0.3831316971150419,0.39646867743830067
0.4296770867513998,0.3765602899107636
0.5204170887697541,0.34740872245972726
0.5711938774639628,0.33034439029326695
0.5345217522959231,0.30972498892546074
0.4089902469130185,0.28697254603684696
0.24866723816556352,0.2499998263428496
0.1287775981931265,0.22582535577369747
0.06953801138321644,0.2037839267253529
0.018291067238135516,0.17463235927431653
-0.05975473760666662,0.1184622658930513
-0.1246361898270443,0.06940231091447788
-0.13686023154972415,0.032429591220480516
-0.11946447986744899,0.00896613449159758
-0.15895753774072235,-0.02587354368159224
-0.26944406869571336,-0.04791497272993682
-0.40531899399780863,-0.06000220801451288
-0.4678496689638248,-0.06640133257693549
-0.4532748499867834,-0.09341985850716433
-0.40908023760478707,-0.11403925987497056
-0.3705274906332583,-0.1268375089998158
-0.3507809616966216,-0.13394764740250759
-0.38463215415942736,-0.16096617333273644
-0.489946975154823,-0.18087456086027348
-0.569403246352242,-0.19296179614484954
-0.5111039704440766,-0.20078294838781052
-0.3977965067838518,-0.23135654351938525
-0.4142519475643824,-0.2583750694496141
-0.4904171306056953,-0.2768614292966128
-0.23512272078203528,-0.28823765074091967
0.6309036197247451,-0.3216553012335711
1.9064353579413005,-0.35507295172622255
3.157519012712496,-0.38138046381618224
4.2355854615626845,-0.3970227683021042
5.281681339753557,-0.42759636343367896
6.130311928578062,-0.4574589447249845
6.020765708524816,-0.4816334152941366
4.30798940099702,-0.49443166441898184
1.468250477728315,-0.5171841073075956
-1.0400288526754164,-0.5378035086754018
-2.111513125213393,-0.5570008823626696
-1.9215703230609826,-0.5662440622861691
-1.3573837820142203,-0.5854414359734369
-0.941296207992233,-0.6032167819801664
-0.640866874884832,-0.6238361833479726
-0.3977965067838518,-0.6352124047922795
-0.32304179009515577,-0.6522767369587398
-0.43023723289404064,-0.6664970137641234
-0.5473059401612439,-0.6821393182500454
-0.5543582719243284,-0.6878274289721988
-0.4998202396231413,-0.6999146642567748
-0.4730213789234201,-0.716267982582966
-0.4908872860565676,-0.7447085361937332
-0.5172159913054165,-0.7646169237212702
-0.528969877577224,-0.7838142974085381
-0.5096935040914596,-0.7994566018944601
-0.4800737106865047,-0.8243420863038814
-0.444812051871082,-0.8392733769495342
-0.4391701864606144,-0.8527826399146485
-0.46173764810248485,-0.8677139305603013
-0.48900666425307837,-0.8982875256918761
-0.4702004462181863,-0.9231730101012974
-0.4048488385469363,-0.9409483561080269
-0.36394531432104604,-0.9537466052328721
-0.3681767133788968,-0.9793431034825626
-0.35971391526319535,-0.9992514910100997
-0.3061161938637529,-1.0127607539752141
-0.26850375779396873,-1.0212929200584442
-0.29812355119892375,-1.0419123214262505
-0.34043754177743096,-1.0568436120719031
-0.3291538109564957,-1.0646647643148641
-0.2873099758288608,-1.06821983351621
-0.26944406869571336,-1.083151124161863
-0.2633320478343734,-1.090972276404824
-0.23136147717505687,-1.0923943040853623
-0.1909281084000389,-1.0938163317659007
-0.17917422212823134,-1.1130137054531684
-0.17635328942299752,-1.130789051459898
-0.14344240786193638,-1.1421652729042049
-0.08702375375726014,-1.1521194666679733
-0.03953805321915763,-1.1798490064384715
-0.0023957726002457737,-1.2075785462089694
0.03521666346953839,-1.2267759198962374
0.06389614597274881,-1.2388631551808134
0.08035158675327939,-1.269436750312388
0.10856091380561751,-1.3078314976869239
0.15839739159808153,-1.3448042173809212
0.2002412267257164,-1.3668456464292658
0.21575635660450238,-1.395997213880302
0.23127148648328835,-1.4322589197340303
0.2754660988652847,-1.4727867086293736
0.32577273210862107,-1.4926950961569105
0.34504910559438545,-1.5054933452817558
0.3389370847330455,-1.5175805805663318
0.34269832834002395,-1.5403330234549457
0.36667625633451134,-1.5474431618576374
0.3854824743694034,-1.538199981934138
0.3803107644098081,-1.5118924698441785
0.36761656723625596,-1.4969611791985256
0.36902703358887284,-1.4791858331917962
0.37890029805719116,-1.447190210379683
0.36714641178538365,-1.3810659232346494
0.32248164395251494,-1.3135196084090772
0.2660629898478387,-1.257349515027812
0.22186837746584231,-1.2054455046881618
0.18801718500303655,-1.110880663932361
0.14711366077714627,-1.000673518690638
0.09915780478817147,-0.9160628716986056
0.05214225970094127,-0.8534936537549177
0.008887958220689475,-0.716267982582966
-0.037187275964796124,-0.4930096367384435
-0.08091173289592021,-0.26050811097042165
-0.11852416896570438,-0.10408506611120204
-0.1476738069197871,0.02176438361644282
-0.16695018040555148,0.15543498558704866
-0.1707114240125299,0.26919720003011743
-0.17400251216863602,0.3132800581268066
-0.19798044016312344,0.35096379166107317
-0.2360630316837799,0.4270422725698754
-0.24452582979948134,0.5180520441243305
-0.2153761918453986,0.5564467914988662
-0.18575639844044356,0.5841763312693642
-0.17776375577561443,0.6382133831298219
-0.15331567233025473,0.705759697955394
-0.08843422010987705,0.7313561962050844
-0.016030280675542533,0.7519755975728907
0.020171689041624724,0.7967694695098491
0.034746508018666085,0.8586276736132676
0.056843814209664285,0.8870682272240349
0.0831725194585132,0.911242697793187
0.09774733843555457,0.9517704866885303
0.12172526643004197,1.005807538548988
0.1725020551242506,1.02998200911814
0.22986102013067145,1.0520234381664846
0.2637122125934772,1.0868631163396745
0.2872199851370923,1.1423221958806704
0.3187204003455365,1.176450860213591
0.3483401937504916,1.207024455345166
0.3530417482592146,1.2397310919975482
0.3483401937504916,1.29021307465666
0.36667625633451134,1.3229197113090423
0.41557242322523075,1.3520712787600786
0.46681936737031166,1.3741127078084232
0.49878993802962823,1.4089523859816129
0.5161856897119034,1.4324158427104958
0.5392233068046461,1.4551682855991097
0.5674326338569843,1.467966534723955
0.5881194736953655,1.492141005293107
0.5900000954988548,1.511338378980375
0.5805969864814088,1.5333798080287195
0.5613206129956444,1.5397789325911422
0.5359322186485401,1.5483110986743722
0.5190066224171372,1.5483110986743722
0.5354620631976678,1.5568432647576025
0.5726043438165797,1.5518661678757182
0.582477608284898,1.5454670433132955
0.5425143949607523,1.5291137249871043
0.4997302489313728,1.5262696696260276
0.5049019588909681,1.5163154758622592
0.5458054831168584,1.5020951990568756
0.5594399911921552,1.468677548564224
0.5157155342610311,1.452324230238033
0.43578910761273976,1.4359709119118418
0.37090765539236203,1.4153515105440355
0.3591537691205545,1.3684245970862696
0.406639469658657,1.3371399881144257
0.46399843466507784,1.313676531385543
0.4682298337229286,1.286658005455314
0.4047588478551678,1.2247998013518953
0.3285936648138549,1.175739846373322
0.2876901405879646,1.1423221958806704
0.2778168761196462,1.1138816422699034
0.27170485525830634,1.0506014104859462
0.26888392255307253,0.9951423309449502
0.2698242334548171,0.9581696112509529
0.2528986372234142,0.93470615452207
0.196479983118738,0.8799580888213431
0.1306582199966157,0.8273430646414237
0.10291904839514988,0.7903703449474264
0.12454619913527577,0.7718839851004277
0.14852412712976318,0.7285121408440077
0.13488961905446642,0.6844292827473186
0.09257562847595924,0.6481675768935904
0.07282909953932255,0.6311032447271301
0.09445625027944844,0.5998186357552862
0.1306582199966157,0.5749331513458649
0.13300899725097723,0.5536027361377894
0.09304578392683155,0.547914625415636
0.03380619711692148,0.5287172517283681
-0.009918259814202607,0.5144969749229845
-0.02637370059473318,0.4988546704370626
-0.011328726166819512,0.4960106150759859
0.022522466295986233,0.4825013521108715
0.061075213267515006,0.47539121370817966
0.09116516212334233,0.4668590476249495
0.11796402282306355,0.4675700614652187
0.14993459348238009,0.4561938400209118
0.1988307603730995,0.4448176185766049
0.27405563251266785,0.42562024488933703
0.37890029805719116,0.4163770649658377
0.4907972953647991,0.39646867743830067
0.5730744992674519,0.37229420686914855
0.612097401689853,0.33816554253622794
0.6384261069387019,0.31612411348788333
0.6840311856733152,0.2919496429187312
0.736688596171013,0.26493111698850236
0.7573754360093944,0.22582535577369747
0.73198704166229,0.20307291288508372
0.6859118074768045,0.1817424976770083
0.657232324973594,0.14903586102462604
0.6553517031701048,0.08077853235878475
0.6511203041122541,0.0189203282553661
0.5947016500075778,-0.0272955713621306
0.46681936737031166,-0.05786916649370534
0.31542931218943043,-0.1019520245903945
0.20729355848880093,-0.13323663356223842
0.14006132901406174,-0.14958995188842955
0.061545368718387304,-0.15741110413139053
-0.025903545143860875,-0.18585165774215773
-0.03577680961217922,-0.2078930867905023
0.038037596174772204,-0.21998032207507837
0.09022485122159773,-0.226379446637501
0.001365471006732643,-0.254108986407999
-0.17494282307038062,-0.27401737393553605
-0.33714645362132484,-0.28468258153957376
-0.41049070395740395,-0.2932147476228039
-0.3992069731364687,-0.32805442579599375
-0.3357359872687079,-0.3614720762886452
-0.2619215814817565,-0.3835135053369898
-0.23888396438901371,-0.3991558098229117
-0.3037654166093914,-0.4368395433571783
-0.41002054850653163,-0.4716792215303681
-0.43728956465712515,-0.4972757197800586
-0.34137785267917553,-0.5122070104257114
-0.2680336023430964,-0.546335674758632
-0.29577277394456225,-0.581886366772091
-0.11805401351483208,-0.6110379342231274
0.6750982321067415,-0.6273912525493185
1.9567419911846369,-0.6551207923198166
3.1692728989843038,-0.6842723597708529
4.149076858602181,-0.7112908857010818
5.205516156712244,-0.7255111625064653
6.111975865994042,-0.7461305638742716
5.807785289279663,-0.7660389514018087
3.71371291109443,-0.7866583527696148
0.7959281829809232,-0.7987455880541909
-1.341398496684562,-0.8150989063803821
-2.0786022436523317,-0.8286081693454964
-1.9535408937202994,-0.8442504738314184
-1.601394461016945,-0.8513606122341102
-1.1721425343705332,-0.8627368336784171
-0.6808300882089776,-0.8755350828032623
-0.3188103910373051,-0.8968654980113377
-0.2656828250887349,-0.9103747609764522
-0.44716282912544353,-0.9253060516221049
-0.6192397241447061,-0.9402373422677577
-0.6197098795955783,-0.9637007989966406
-0.4908872860565676,-0.9786320896422934
-0.38463215415942736,-0.9921413526074079
-0.3766395114945982,-1.0077836570933298
-0.4269461447379345,-1.0383572522249045
-0.4683198244146971,-1.0625317227940567
-0.49887992872139675,-1.079596054960517
-0.5026411723283751,-1.0945273456061697
-0.4607973372007403,-1.1258119545780136
-0.365355780673663,-1.1528304805082425
-0.30000417300241294,-1.1720278541955105
-0.3286836555056234,-1.1826930617995481
-0.43023723289404064,-1.2040234770076235
-0.5120442813458211,-1.2196657814935454
-0.4885365088022061,-1.2289089614170448
-0.3799305996507043,-1.2310420029378524
-0.2703843795974579,-1.2445512659029667
-0.22242852360848314,-1.253794445826466
-0.22383898996110005,-1.257349515027812
-0.2384138089381414,-1.257349515027812
-0.2633320478343734,-1.2680147226318497
-0.31928054648817733,-1.2751248610345416
-0.3982666622347241,-1.2779689163956183
-0.4415209637149759,-1.2786799302358873
-0.39591588498036256,-1.2957442624023476
-0.2779068668114148,-1.312808594568808
-0.1707114240125299,-1.3270288713741916
-0.14720365146891481,-1.3369830651379602
-0.20127152831922954,-1.3604465218668431
-0.254869249718672,-1.387465047797072
-0.2355928762329076,-1.4123505322064933
-0.13780054245146878,-1.4251487813313384
-0.02449307879124397,-1.446479196539414
0.038977907076516806,-1.4734977224696426
0.0385077516256445,-1.5047823314414865
0.003246092810221851,-1.5197136220871394
-0.04188883047351914,-1.533933898892523
-0.07856095564155871,-1.5517092448992524
-0.05787411580317742,-1.5822828400308273
0.07800080949891788,-1.5993471721972876
0.2966230941545383,-1.6021912275583643
0.456475947451121,-1.5901039922737883
0.44002050667059045,-1.585837909232173
0.28627967423534767,-1.577305743148943
0.15463614799110312,-1.5552643141005984
0.16309894610680456,-1.5054933452817558
0.29850371595802755,-1.4578554179837206
0.44707283843367496,-1.419460670609185
0.4931480726191606,-1.38035490939438
0.4052290033060401,-1.296455276242617
0.26653314529871097,-1.2011794216465468
0.18801718500303655,-1.1315000653001672
0.18002454233820742,-1.0781740272799787
0.15980785795069843,-0.9402373422677577
0.09351593937770385,-0.7098688580205433
0.059194591464025795,-0.4709682076900989
0.10950122470736211,-0.3067240105879183
0.17203189967337829,-0.16309921485354398
0.13959117356318945,-0.0038321146332476607
0.017820911787263215,0.13339355653870408
-0.1020687281851738,0.19382973296158437
-0.16036800409333926,0.24786678482204205
-0.169300957659913,0.3452756809389197
-0.15754707138810545,0.4519277569792967
-0.15143505052676554,0.49672162891625504
-0.17165173491427452,0.5308502932491757
-0.2186672800015047,0.6026626911163628
-0.2572200269730335,0.6922504349902795
-0.2619215814817565,0.7342002515661612
-0.25016769520994897,0.7640628328574667
-0.2553394051695443,0.816677857037386
-0.2647425141869903,0.8835131580226889
-0.2370033425855245,0.911242697793187
-0.15660676048636085,0.9332841268415316
-0.07432955658370799,0.9759449572576824
-0.05740396035230511,1.037092147520832
-0.11852416896570438,1.0662437149718682
-0.194219196556145,1.0925512270618278
-0.21443588094365398,1.132368002116902
-0.1636590922494454,1.1899601231787056
-0.08373266560115403,1.2226667598310879
-0.023082612438627064,1.2518183272821242
-0.010858570715947211,1.2880800331358524
-0.038127586866540726,1.3428280988365793
-0.060695048508411224,1.3790898046903075
-0.037187275964796124,1.4125074551829588
0.008887958220689475,1.4430810503145337
0.015940289983774007,1.4907189776125687
-0.01697059157728714,1.5255586557857586
-0.0033360835019903778,1.5582652924381408
0.10950122470736211,1.578884693805947
0.25242848177254196,1.6115913304583294
0.30508589227023974,1.6364768148677507
0.24255521730422358,1.6634953407979793
0.14852412712976318,1.6755825760825556
0.11373262376521283,1.693357922089285
0.1480539716788909,1.7047341435335919
0.20729355848880093,1.7246425310611289
0.2505478599690527,1.7289086141027439
0.2655928343969664,1.7317526694638208
0.2472567718129466,1.7232205033805905
0.1960098276678657,1.7267755725819365
0.13441946360359414,1.7196654341792446
0.1076206029038729,1.7111332680960145
0.13535977450533873,1.6862477836865932
0.18378578594518583,1.677004603763094
0.196479983118738,1.6649173684785177
0.1565167697945923,1.6485640501523267
0.1038593592968945,1.6115913304583294
0.08411283036025781,1.5931049706113305
0.09915780478817147,1.5803067214864854
0.11843417827393585,1.5603983339589482
0.12172526643004197,1.507783309779029
0.11373262376521283,1.4672555208836857
0.09633687208293766,1.4388149672729185
0.0601349023657704,1.4117964413426898
0.008417802769817174,1.349938237239271
-0.02731401149647778,1.29874524073989
-0.02637370059473318,1.2639055625667002
-0.0047465498546072835,1.2375980504767405
0.006067025515455664,1.176450860213591
0.002775937359349549,1.1202807668323258
-0.004276394403734981,1.0804639917772518
-0.014619814322925627,1.0570005350483689
-0.04235898592439145,1.0043855108684496
-0.08044157744504792,0.9524815005287994
-0.10112841728342921,0.9126647254737253
-0.08326251015028173,0.8920453241059191
-0.046120229531369863,0.8515175352105758
-0.02449307879124397,0.8138338016763094
-0.03530665416130692,0.7818381788641963
-0.055993493999688206,0.7683289158990818
-0.06586675846800655,0.7391773484480454
-0.06492644756626195,0.7121588225178166
-0.06774738027149575,0.6830072550667802
-0.07526986748545259,0.6694979921016658
-0.08796406465900475,0.6481675768935904
-0.10394934998866302,0.6339473000882068
-0.10441950543953532,0.6175939817620156
-0.05787411580317742,0.6133278987204006
0.030985264411687672,0.599107621915017
0.11232215741259592,0.5891534281512485
0.151345059834997,0.5735111236653265
0.1739125214768675,0.5692450406237114
0.2237489992693315,0.5557357776585969
0.30273511501587824,0.5386714454921366
0.3854824743694034,0.5102308918813695
0.46211781286158865,0.49316655971490914
0.5288798868854555,0.4732581721873721
0.562260923897389,0.4519277569792967
0.5411039286081354,0.4199321341671836
0.48139418634735304,0.40428982968126165
0.42544568769354907,0.38722549751480134
0.406639469658657,0.3523858193416115
0.43578910761273976,0.27630733843280925
0.48421511905258685,0.20449494056562206
0.4776329427403746,0.14832484718435685
0.35445221461183146,0.10779705828901359
0.15604661434372002,0.054471020268825096
0.007007336417200268,0.01678728673455856
-0.030134944201711596,-0.0031211007929784805
-0.025433389692988573,-0.01520833607755454
-0.0757400229363249,-0.05075902809101354
-0.17165173491427452,-0.08204363706285746
-0.2374734980363968,-0.10052999690985615
-0.23136147717505687,-0.10835114915281711
-0.22383898996110005,-0.13536967508304595
-0.2699142241465856,-0.15812211797165973
-0.374758889691109,-0.17163138093677413
-0.4532748499867834,-0.17731949165892757
-0.48618573154784456,-0.20362700374888723
-0.5143950586001828,-0.22424640511669347
-0.5355520538894363,-0.2370446542415387
-0.5092233486405874,-0.24415479264423048
-0.4800737106865047,-0.2733063600952669
-0.5473059401612439,-0.30032488602549573
-0.6465087402952996,-0.32023327355303277
-0.6145381696359831,-0.33232050883760883
-0.514865214051055,-0.360761062448376
-0.5642315363926467,-0.38849060221887405
-0.631463765867386,-0.40982101742694943
-0.22289867905935543,-0.42261926655179466
0.8452945053225148,-0.45105982016256185
2.1523266587475147,-0.4823444291344058
3.3244241977721636,-0.5122070104257114
4.5101562448721095,-0.5314043841129792
5.801203112967451,-0.5591339238834773
6.496563024807585,-0.5861524498137061
5.576468807450491,-0.6138819895842041
2.962404500600491,-0.6302353079103953
-0.08138188834679251,-0.6508547092782014
-2.040049496680803,-0.672896138326546
-2.46836111242547,-0.7027587196178516
-2.068728979184013,-0.7226671071453886
-1.6211409899535818,-0.7411534669923873
-1.2722856454063336,-0.7539517161172326
-0.8886387974945351,-0.7724380759642312
-0.6103067705781323,-0.7816812558877305
-0.6573223156653625,-0.7916354496514991
-0.8895791083962797,-0.7994566018944601
-0.9652741359867204,-0.8165209340609204
-0.8402127860546881,-0.8264751278246889
-0.749942939487206,-0.8357183077481882
-0.8054212826901377,-0.8435394599911492
-0.8820566211823229,-0.8620258198381479
-0.875944600320983,-0.8719800136019165
-0.8392724751529435,-0.8790901520046083
-0.8312798324881143,-0.8890443457683768
-0.8585488486387078,-0.9174848993791439
-0.8811163102805784,-0.9430813976288345
-0.9013329946680873,-0.960856743635564
-0.9112062591364056,-0.9743660066006784
-0.9088554818820441,-0.9999625048503689
-0.8942806629050027,-1.0198708923779058
-0.8627802476965585,-1.0333801553430202
-0.835511231545965,-1.0426233352665197
-0.8232871898232852,-1.0660867919954025
-0.8251678116267743,-1.0867061933632087
-0.826108122528519,-1.1016374840088616
-0.8270484334302636,-1.1101696500920917
-0.8279887443320082,-1.1293670237793596
-0.8223468789215406,-1.1450093282652816
-0.8030705054357762,-1.1556745358693192
-0.7856747537535009,-1.1592296050706652
-0.7776821110886718,-1.1720278541955105
-0.7659282248168643,-1.1805600202787405
-0.7330173432558031,-1.1855371171606248
-0.6916436635790406,-1.1862481310008939
-0.6690762019371701,-1.1962023247646625
-0.6728374455441485,-1.2033124631673544
-0.6756583782493824,-1.206156518528431
-0.6530909166075118,-1.2068675323687001
-0.6135978587342384,-1.221798823014353
-0.5900900861906233,-1.237441127500275
-0.5858586871327727,-1.2516614043056586
-0.5722241790574758,-1.261615598069427
-0.5322609657333301,-1.28507905479831
-0.49652915146703525,-1.3149416360896156
-0.4894768197039507,-1.3455152312211902
-0.4969993069179075,-1.3654236187487274
-0.4828946433917385,-1.391731130838687
-0.4438717409693374,-1.4251487813313384
-0.39027401956989494,-1.4670985979072202
-0.33479567636696334,-1.4969611791985256
-0.29154137488671156,-1.5246907189690238
-0.2877801312797331,-1.550287217218714
-0.31551930288119895,-1.5908150061140574
-0.33761660907219715,-1.6256546842872472
-0.3357359872687079,-1.6469850994953226
-0.3484301844422601,-1.6427190164537075
-0.4015577503908302,-1.6448520579745152
-0.4664392026112079,-1.6590723347798986
-0.49887992872139675,-1.6633384178215138
