ECG,PPG
-0.36157504871475143,0.15553059644977338
-0.19620382875086811,0.5746547066622708
-0.13169369340891982,0.12947900641828358
-0.08766296611203447,-0.1111150897548868
-0.0656476024635918,0.10419363962301409
-0.13988545662694502,0.23828270596156448
-0.29604094297055,0.10419363962301409
-0.4107256280229025,0.006117065386817239
-0.3943421015868522,0.07814204959152429
-0.3037207209874486,0.11798565787497926
-0.2627619048973227,0.0528566827962548
-0.3175443214178661,0.005350842150596951
-0.3943421015868522,0.02680509276476501
-0.417381435637548,0.03140243218208674
-0.3943421015868522,0.0015197259694955123
-0.3815424715586878,-0.021466971117113123
-0.3943421015868522,-0.024531864061994275
-0.41379753922966195,-0.044453668203721756
-0.42710915445895287,-0.07586882088875356
-0.42250128764881373,-0.1049853038651245
-0.36157504871475143,-0.12720577771551286
-0.23409073363423458,-0.1547898142194432
-0.09841465533569253,-0.17854273454227212
-0.03800040160275682,-0.20689299428242278
-0.0656476024635918,-0.22911346813281114
-0.13681354542018556,-0.25822995110918207
-0.19722779915312127,-0.2804504249595704
-0.22692294081846254,-0.30880068469972105
-0.229994852025222,-0.3317873817863297
-0.2433064672545129,-0.36090386476270064
-0.29604094297055,-0.383124338613089
-0.36771887112827034,-0.41070837511701935
-0.3943421015868522,-0.4344612954398483
-0.36157504871475143,-0.4658764481248801
-0.32880799584265075,-0.48579825226660756
-0.3564551967034857,-0.502655163463454
-0.42710915445895287,-0.5118498422980974
-0.4911073045997746,-0.5340703161484857
-0.5259222982763816,-0.5624205758886364
-0.5392339135056725,-0.5969006215185493
-0.5259222982763816,-0.6137575327153957
-0.4890593637952683,-0.6275495509673609
-0.46038819253218016,-0.6398091227468854
-0.4757477485659774,-0.6673931592508158
-0.5259222982763816,-0.6911460795736447
-0.573536921981153,-0.7103016604791519
-0.5914564040205831,-0.7164314463689142
-0.5837766260036844,-0.7294572413846592
-0.5586893511484824,-0.742483036400404
-0.5336020762932803,-0.7593399475972503
-0.5259222982763816,-0.7677684031956735
-0.5510095731315837,-0.7815604214476387
-0.5914564040205831,-0.7938199932271633
-0.6134717676690258,-0.8106769044240096
-0.5914564040205831,-0.8191053600224328
-0.5489616323270774,-0.8305987085657371
-0.5259222982763816,-0.8451569500539226
-0.5469136915225712,-0.8727409865578529
-0.5914564040205831,-0.8964939068806819
-0.6267833828983167,-0.9148832645499688
-0.6247354420938104,-0.9217792736759514
-0.5888964780149502,-0.934038845455476
-0.5259222982763816,-0.9470646404712209
-0.452196429314155,-0.9654539981405078
-0.3943421015868522,-0.9731162305027107
-0.4071417316150165,-0.9838433558097947
-0.4931552454042809,-0.9984015972979802
-0.5673930995676341,-1.027518080274351
-0.5259222982763816,-1.0497385541247395
-0.40099790920149764,-1.0688941350302466
-0.32880799584265075,-1.0757901441562292
-0.3564551967034857,-1.0895821624081945
-0.36157504871475143,-1.1010755109514987
-0.23972257084662688,-1.117932422148345
-0.0656476024635918,-1.1271271009829886
0.014222088912153702,-1.141685342471174
-0.00011349671939036352,-1.1524124677782581
0.031117600549330635,-1.1700356022113247
0.19700080571434053,-1.1784640578097478
0.4360978946404505,-1.1861262901719507
0.6245084486550296,-1.1784640578097478
0.7018182140251423,-1.1623733698491219
0.6900425543992311,-1.1271271009829886
0.6352601378786877,-1.0842185997546525
0.5589743429108281,-1.02445318732947
0.4576012730877666,-0.9577917657783049
0.32858100240387,-0.870442316849192
0.17191353085913844,-0.7754306355578764
-0.00011349671939036352,-0.6650944895421549
-0.19517985834861498,-0.556290789998874
-0.3943421015868522,-0.4344612954398483
-0.5771208183890391,-0.31263180088082254
-0.6902695478380118,-0.17854273454227212
-0.7358362307382769,-0.04981723085726378
-0.7230366007101126,0.07814204959152429
-0.6477747761445062,0.1854133026623646
-0.5259222982763816,0.2834898768985614
-0.4465645921017627,0.3677744328827931
-0.4931552454042809,0.4627861141741088
-0.601184122841988,0.5547329025205433
-0.6247354420938104,0.6420823514496562
-0.566369129165381,0.7064451032921604
-0.5914564040205831,0.7708078551346645
-0.760923505593479,0.8313394907960673
-0.8218497445275412,0.8987671355834526
-0.4368368732803578,0.9508703156464322
0.4601611990933995,1.0014410492369712
1.6070080496169248,1.0389859878117653
2.761022692956222,1.078063372859
3.8786863870155326,1.1094785255440318
4.799235778641112,1.155451919717249
4.908288626481072,1.1968279744731445
3.6155259936364734,1.2320742433392777
1.2455464976215636,1.2420351454101415
-0.9534299412170707,1.2573596101345474
-1.9835441658837372,1.2795800839849356
-1.9722804914589525,1.3086965669613067
-1.6599695187717425,1.312527683142408
-1.4131926518287339,1.3086965669613067
-1.1387685840248905,1.301800557835324
-0.8218497445275412,1.3086965669613067
-0.6549425689602782,1.3002681113628836
-0.6902695478380118,1.2834112001660372
-0.764507402001365,1.2519960474810052
-0.7558036535822132,1.2320742433392777
-0.7087010150785684,1.2075550997802287
-0.6902695478380118,1.1807372865125185
-0.7066530742740622,1.1301665529219795
-0.7230366007101126,1.078063372859
-0.7051171186706825,1.0213628533786987
-0.6247354420938104,0.9753894592054814
-0.5402578839079257,0.915624046780299
-0.5259222982763816,0.8474301787566934
-0.601184122841988,0.7631456227724617
-0.6575024949659111,0.6934193082764155
-0.6303672793062026,0.6259916634890301
-0.5586893511484824,0.5654600278276274
-0.5177305350583564,0.48653903449693775
-0.5259222982763816,0.41144915734734955
-0.5586893511484824,0.3371255034339816
-0.5914564040205831,0.2834898768985614
-0.5745608923834061,0.22755558065448042
-0.46038819253218016,0.18081596324504287
-0.3206162326246255,0.13254389936316474
-0.29604094297055,0.10419363962301409
-0.37898254555305494,0.07584337988286344
-0.3943421015868522,0.0528566827962548
-0.288873150154778,0.01990908363878242
-0.229994852025222,0.0015197259694955123
-0.3175443214178661,-0.01533718522735082
-0.3943421015868522,-0.024531864061994275
-0.3267600550381444,-0.043687444967501474
-0.229994852025222,-0.04981723085726378
-0.24842631926577866,-0.05211590056592464
-0.29604094297055,-0.04981723085726378
-0.24996227486915837,-0.06590791881788982
-0.19722779915312127,-0.07586882088875356
-0.2709536681153479,-0.08046616030607529
-0.3943421015868522,-0.07586882088875356
-0.4148215096319151,-0.08736216943205788
-0.36157504871475143,-0.10115418768402307
-0.38051850115643465,-0.11877732211708969
-0.4931552454042809,-0.12720577771551286
-0.604768019249874,-0.15019247480212147
-0.6575024949659111,-0.17854273454227212
-0.6523826429546453,-0.2122565569359648
-0.5914564040205831,-0.22911346813281114
-0.5305301650865208,-0.2436717096209966
-0.5586893511484824,-0.2551650581643009
-0.6605744061726705,-0.28121664819579073
-0.6902695478380118,-0.3065020149910602
-0.6016961080431146,-0.3363847212036514
-0.5259222982763816,-0.3578389718178195
-0.5540814843383431,-0.38542300832174986
-0.5914564040205831,-0.4091759286445788
-0.5576653807462292,-0.43752618838472945
-0.5259222982763816,-0.46051288547133806
-0.5612492771541152,-0.48809692197526844
-0.5586893511484824,-0.5118498422980974
-0.4353009176769781,-0.540200102038248
-0.29604094297055,-0.5624205758886364
-0.2704416829142213,-0.5915370588650073
-0.29604094297055,-0.6137575327153957
-0.24791433406465208,-0.6421077924555463
-0.16446074628102053,-0.6650944895421549
-0.18903603593509608,-0.6942109725185259
-0.32880799584265075,-0.7164314463689142
-0.4393967992859907,-0.7440154828728446
-0.42710915445895287,-0.7677684031956735
-0.36208703391587804,-0.798417332644485
-0.36157504871475143,-0.8191053600224328
-0.44707657730288924,-0.8367284944554995
-0.5259222982763816,-0.8451569500539226
-0.5059548754324452,-0.8589489683058877
-0.3943421015868522,-0.870442316849192
-0.29501697256829684,-0.8865330048098181
-0.29604094297055,-0.8964939068806819
-0.39690202759248505,-0.9102859251326471
-0.5259222982763816,-0.9217792736759514
-0.6231994864904307,-0.9378699616365774
-0.6575024949659111,-0.9470646404712209
-0.621663530887051,-0.9600904354869658
-0.5259222982763816,-0.9731162305027107
-0.42966908046458574,-0.9915055881719975
-0.3943421015868522,-0.9984015972979802
-0.4276211396600795,-1.000700267006641
-0.46038819253218016,-0.9984015972979802
-0.44144474009049695,-1.0106611690775047
-0.3943421015868522,-1.02445318732947
-0.38922224957558643,-1.040543875290096
-0.42710915445895287,-1.0497385541247395
-0.4368368732803578,-1.0635305723767046
-0.36157504871475143,-1.0757901441562292
-0.26224991969619615,-1.0903483856444147
-0.229994852025222,-1.1010755109514987
-0.264809845701829,-1.1163999756759044
-0.2627619048973227,-1.1271271009829886
-0.19210794714185553,-1.1401528959987335
-0.13169369340891982,-1.1524124677782581
-0.1455172938393373,-1.1838276204632898
-0.16446074628102053,-1.229801014636507
-0.11531016697286946,-1.2872677573530287
-0.03288054959149109,-1.3317087050538055
0.009614222102014538,-1.3638900809750574
0.03265355615271036,-1.3830456618805647
0.08692398747212718,-1.4098634751482748
0.16423375284223982,-1.4343826187073239
0.22823190298306154,-1.463499101683695
0.29581394953176926,-1.4857195755340833
0.3736357001030085,-1.514836058510454
0.42739414622129873,-1.5370565323608425
0.45862524349001976,-1.55697833650257
0.5589743429108281,-1.5631081223923322
0.7683762901715969,-1.5684716850458744
0.9859700006503908,-1.5631081223923322
1.079151307255427,-1.55697833650257
1.0520160915957186,-1.5370565323608425
0.9946737490695424,-1.511771165565573
0.95320294777829,-1.4604342087388138
0.8938126644476074,-1.3937727871876486
0.7888556982166598,-1.306423338258536
0.6270683746606625,-1.2144765499121013
0.42739414622129873,-1.1010755109514987
0.21492028775377062,-0.9784797931562527
0.06593259422593765,-0.8451569500539226
-0.00011349671939036352,-0.721028785786236
-0.00011349671939036352,-0.5884721659201262
-0.005745333931782675,-0.45361687634535547
-0.03288054959149109,-0.3065020149910602
-0.0600157652511995,-0.1678156092351881
-0.0656476024635918,-0.024531864061994275
-0.0482401056252883,0.11492076493009812
-0.00011349671939036352,0.25743828686707165
0.05876480141016562,0.38616379055208
0.06593259422593765,0.5141230710008681
-0.04158429801064284,0.6305890029063519
-0.229994852025222,0.7447562651031747
-0.3887102643744599,0.8374692766858296
-0.32880799584265075,0.9240525023787222
0.1683296344512524,0.9999086027645306
1.1830843030841216,1.078063372859
2.452295616676898,1.1439585711739448
3.6155259936364734,1.2067888765440082
4.598537579799495,1.256593386898327
5.4233457388144055,1.3086965669613067
5.585645047571529,1.3493063984809819
4.338961082828322,1.3860851138195558
1.8619766797779584,1.408305587669944
-0.46038819253218016,1.437422070646315
-1.4510795567121004,1.4611749909691438
-1.3148914932124318,1.4887590274730742
-0.9918288313015637,1.5010185992525988
-0.854616797399642,1.5140443942683437
-0.667230213787316,1.5148106175045641
-0.36157504871475143,1.5140443942683437
-0.19210794714185553,1.4979537063077177
-0.229994852025222,1.4887590274730742
-0.28119337213787937,1.4749670092211091
-0.229994852025222,1.4627074374415845
-0.16855662789003314,1.4274611685754512
-0.16446074628102053,1.3860851138195558
-0.1793083171136912,1.3316832640479153
-0.16446074628102053,1.2834112001660372
-0.13527758981680585,1.2205808947959735
-0.09841465533569253,1.155451919717249
-0.07793524729062958,1.0749984799141188
-0.0656476024635918,1.0014410492369712
-0.0717914248771107,0.920987609433841
-0.0656476024635918,0.8474301787566934
-0.052335987234300885,0.7662105157173428
-0.03288054959149109,0.6934193082764155
-0.012913126747554708,0.6137320917095055
-0.00011349671939036352,0.5394084377961376
0.00039848848173621023,0.4558901050481262
-0.00011349671939036352,0.38616379055208
0.01934194092341944,0.32256726194579616
0.06593259422593765,0.2834898768985614
0.10381949910930412,0.24977605450486878
0.09869964709803837,0.23215292007180216
0.06542060902481107,0.20686755327653267
0.06593259422593765,0.18081596324504287
0.11457118833296216,0.14480347114268935
0.16423375284223982,0.12947900641828358
0.17088956045688528,0.12488166700096186
0.16423375284223982,0.12947900641828358
0.17805735327265731,0.11492076493009812
0.19700080571434053,0.10419363962301409
0.18676110169180907,0.09576518402459092
0.16423375284223982,0.10419363962301409
0.15808993042872094,0.10266119315057351
0.16423375284223982,0.10419363962301409
0.15399404881970835,0.09883007696947207
0.1314666999701391,0.10419363962301409
0.10381949910930412,0.10266119315057351
0.06593259422593765,0.10419363962301409
0.010126207303141111,0.09270029107970977
-0.03288054959149109,0.07814204959152429
-0.05028804642979459,0.04902556661515336
-0.0656476024635918,0.02680509276476501
-0.11019031496160372,0.006883288623037527
-0.16446074628102053,0.0015197259694955123
-0.20593154757227303,-0.010739845810029094
-0.229994852025222,-0.024531864061994275
-0.24433043765676604,-0.05134967732970435
-0.229994852025222,-0.07586882088875356
-0.1931319175441087,-0.1049853038651245
-0.16446074628102053,-0.12720577771551286
-0.16650868708552685,-0.15402359098322294
-0.16446074628102053,-0.17854273454227212
-0.1265738413976541,-0.20842544075486336
-0.0656476024635918,-0.22911346813281114
-0.02366481597121276,-0.25593128140052124
-0.00011349671939036352,-0.2804504249595704
0.027021718940318046,-0.3133980241170428
0.06593259422593765,-0.3317873817863297
0.09101986908113976,-0.3463456232745152
0.09869964709803837,-0.3578389718178195
0.10484346951155726,-0.38542300832174986
0.1314666999701391,-0.4091759286445788
0.16116184163548036,-0.428331509550086
0.16423375284223982,-0.4344612954398483
0.13197868517126568,-0.4482533136918135
0.09869964709803837,-0.46051288547133806
0.08999589867888662,-0.47660357343196413
0.09869964709803837,-0.48579825226660756
0.09255582468451949,-0.5018889402272336
0.06593259422593765,-0.5118498422980974
0.02855767454369777,-0.5187458514240799
-0.00011349671939036352,-0.5118498422980974
-0.011377171144174986,-0.5095511725894365
-0.00011349671939036352,-0.5118498422980974
0.011662162906520833,-0.5271743070225031
-0.00011349671939036352,-0.5371352090933669
-0.02980863838473164,-0.5440312182193494
-0.03288054959149109,-0.5371352090933669
-0.008817245138542118,-0.5356027626209263
-0.00011349671939036352,-0.5371352090933669
-0.033904519993744234,-0.5516934505815523
-0.0656476024635918,-0.5624205758886364
-0.06871951367035124,-0.5708490314870596
-0.0656476024635918,-0.5624205758886364
-0.08817495131316105,-0.5593556829437553
-0.09841465533569253,-0.5624205758886364
-0.0717914248771107,-0.580043710321703
-0.03288054959149109,-0.5884721659201262
-0.027760697580225348,-0.590770835628787
-0.03288054959149109,-0.5884721659201262
-0.02110488996557989,-0.601497960935871
-0.00011349671939036352,-0.6137575327153957
-0.001137467121643511,-0.6221859883138188
-0.00011349671939036352,-0.6137575327153957
0.04135730457186211,-0.6114588630067348
0.1314666999701391,-0.6137575327153957
0.24307947381573217,-0.6290819974398014
0.3613480552759707,-0.6398091227468854
0.46220913989790574,-0.6543673642350709
0.5256953048376009,-0.6650944895421549
0.5676780913299799,-0.6827176239752215
0.6572755015271303,-0.6911460795736447
0.8257186326977731,-0.7034056513531693
1.0187370535224913,-0.7164314463689142
1.1446854129996287,-0.7455479293452851
1.1830843030841216,-0.7677684031956735
1.1882041550953875,-0.787690207337401
1.216363341157349,-0.7938199932271633
1.248618408828323,-0.8014822255893662
1.216363341157349,-0.7938199932271633
1.0668636624283894,-0.7846253143925198
0.8216227510887605,-0.7677684031956735
0.5384949348657653,-0.7570412778885894
0.29581394953176926,-0.7164314463689142
0.12225096634986077,-0.65206869452641
0.03265355615271036,-0.5624205758886364
-0.02315283077008618,-0.48043468961306557
-0.0656476024635918,-0.383124338613089
-0.10251053694470512,-0.27661930877846896
-0.09841465533569253,-0.15249114451078236
-0.0579678244466932,-0.04062255202262032
-0.03288054959149109,0.07814204959152429
-0.05540789844106033,0.2045688835678718
-0.0656476024635918,0.36011220052059023
-0.021616875166706462,0.5217853033630709
-0.00011349671939036352,0.6934193082764155
-0.13169369340891982,0.8497288484653542
-0.3943421015868522,1.0014410492369712
-0.5863365520093173,1.1370625620479622
-0.3943421015868522,1.2834112001660372
0.4320020130314379,1.4251624988667904
1.8404733013306422,1.5653813510951031
3.3272783254022125,1.6734188274021637
4.371728135700423,1.7707291784021402
4.983550451046678,1.855013734386372
5.4233457388144055,1.9500254156776875
5.326580535801483,2.0297126322445975
3.9114534398876333,2.1040362861579656
1.3448716266401188,2.161503028874487
-0.8873838502717427,2.2319955666067535
-1.5877796054128956,2.2986569881579184
-1.1505442436508015,2.3599548470555414
-0.7194527043022265,2.3890713300319124
-0.6575024949659111,2.411291803882301
-0.5924803744228362,2.4289149383153674
-0.3943421015868522,2.4626287607090602
-0.3160083658144864,2.4879141275043297
-0.3943421015868522,2.5139657175358194
-0.42250128764881373,2.523926619606683
-0.36157504871475143,2.540017307567309
-0.3528713002955997,2.546913316693292
-0.3943421015868522,2.5653026743625786
-0.3738626935417892,2.56913379054368
-0.29604094297055,2.5653026743625786
-0.2724896237187276,2.5369524146224283
-0.29604094297055,2.5139657175358194
-0.3037207209874486,2.4863816810318893
-0.2627619048973227,2.4626287607090602
-0.23511470403648774,2.4135904735909617
-0.229994852025222,2.3599548470555414
-0.23665065963986745,2.292527202268156
-0.229994852025222,2.2319955666067535
-0.2125873551869185,2.1546070197485045
-0.19722779915312127,2.077984696126476
-0.18647610992946323,1.9852716845438207
-0.16446074628102053,1.8986884588509283
-0.13066972300666668,1.8013781078509516
-0.09841465533569253,1.719392221575381
-0.08049517329626245,1.6351076655911492
-0.0656476024635918,1.5653813510951031
-0.0482401056252883,1.4833954648195322
-0.03288054959149109,1.4113704806148253
-0.02315283077008618,1.3370468267014572
-0.00011349671939036352,1.2834112001660372
0.037261422962849525,1.2274769039219562
0.06593259422593765,1.1807372865125185
0.06746854982931737,1.123270543795997
0.06593259422593765,1.078063372859
0.08026817985748172,1.0313237554495625
0.09869964709803837,1.0014410492369712
0.09153185428226635,0.9677272268432785
0.06593259422593765,0.9501040924102119
0.04289326017524183,0.9309485115047047
0.03265355615271036,0.9240525023787222
0.020365911325672587,0.9079618144180961
-0.00011349671939036352,0.8987671355834526
-0.030320623585858218,0.8819102243866063
-0.0656476024635918,0.8734817687881831
-0.10455847774921141,0.8558586343551164
-0.13169369340891982,0.8474301787566934
-0.14910119024722332,0.8321057140322876
-0.16446074628102053,0.8221448119614239
-0.17674839110805832,0.7953269986937137
-0.16446074628102053,0.7708078551346645
-0.12964575260441352,0.7386264792134124
-0.09841465533569253,0.7194708983079052
-0.09534274412893308,0.6934193082764155
-0.09841465533569253,0.6681339414811459
-0.08817495131316105,0.6267578867252505
-0.0656476024635918,0.5907453946228969
-0.049264076027541445,0.5493693398670013
-0.03288054959149109,0.5141230710008681
-0.013937097149807856,0.4704483465363117
-0.00011349671939036352,0.4375007473788393
-0.0006254819205169373,0.3991895855678249
-0.00011349671939036352,0.36011220052059023
0.005006355291875374,0.30494412751272953
-0.00011349671939036352,0.25743828686707165
-0.030320623585858218,0.21376356240251526
-0.0656476024635918,0.18081596324504287
-0.08766296611203447,0.13714123878048645
-0.09841465533569253,0.10419363962301409
-0.11582215217399604,0.07354471017420257
-0.13169369340891982,0.0528566827962548
-0.1357895750179324,0.015311744221460694
-0.13169369340891982,-0.024531864061994275
-0.14039744182807157,-0.06973903499899126
-0.16446074628102053,-0.10115418768402307
-0.18852405073396952,-0.13333556360527515
-0.19722779915312127,-0.15249114451078236
-0.20746750317565274,-0.16934805570762868
-0.229994852025222,-0.17854273454227212
-0.24996227486915837,-0.20152943162888076
-0.229994852025222,-0.22911346813281114
-0.1849401543260835,-0.2643597369989444
-0.16446074628102053,-0.2804504249595704
-0.1946678731474884,-0.2942424432115356
-0.229994852025222,-0.3065020149910602
-0.23613867443874087,-0.3348522747312109
-0.229994852025222,-0.3578389718178195
-0.24689036366239892,-0.3762283294871064
-0.2627619048973227,-0.383124338613089
-0.2535461712770444,-0.40534481246347737
-0.229994852025222,-0.4344612954398483
-0.22641095561733596,-0.46970756430598154
-0.229994852025222,-0.48579825226660756
-0.2294828668240954,-0.4980578240461322
-0.229994852025222,-0.5118498422980974
-0.24023455604775346,-0.540200102038248
-0.229994852025222,-0.5624205758886364
-0.20388360676776673,-0.580043710321703
-0.19722779915312127,-0.5884721659201262
-0.20900345877903245,-0.6045628538807521
-0.16446074628102053,-0.6137575327153957
-0.03800040160275682,-0.6267833277311405
0.09869964709803837,-0.6398091227468854
0.17652139766927757,-0.6689256057232563
0.23027984378756783,-0.6911460795736447
0.30758960915768047,-0.708002990770491
0.394627093349198,-0.7164314463689142
0.4734728143226904,-0.742483036400404
0.591741395782929,-0.7677684031956735
0.7581365861490654,-0.7976511094082648
0.8876688420340886,-0.8191053600224328
0.911220161285911,-0.8505205127074646
0.8876688420340886,-0.870442316849192
0.8892047976374683,-0.8811694421562761
0.8876688420340886,-0.870442316849192
0.8083111358594697,-0.8635463077232095
0.6572755015271303,-0.8451569500539226
0.4704009031159309,-0.8206378064948734
0.26304689665966857,-0.7677684031956735
0.037261422962849525,-0.7034056513531693
-0.13169369340891982,-0.6137575327153957
-0.2125873551869185,-0.5202782978965206
-0.229994852025222,-0.4091759286445788
-0.261225949293943,-0.29270999673909504
-0.29604094297055,-0.15249114451078236
-0.28375329814351224,-0.011506069046249382
-0.229994852025222,0.12947900641828358
-0.2043955919688933,0.25207472421352967
-0.229994852025222,0.38616379055208
-0.2586660232883101,0.5225515265992913
-0.2627619048973227,0.6681339414811459
-0.31088851380322063,0.8022230078196964
-0.46038819253218016,0.9501040924102119
-0.6354871313174684,1.0949202840558463
-0.5914564040205831,1.2320742433392777
-0.08766296611203447,1.3355143802290168
0.8876688420340886,1.437422070646315
2.0468033373846515,1.538563537827393
3.1552512978236837,1.6420036747171318
4.285202636710032,1.7132624356856185
5.4233457388144055,1.7707291784021402
5.881572493822689,1.8243648049375603
4.765956740567884,1.8986884588509283
2.252621388237534,1.9584538712761108
-0.19722779915312127,2.0013623725044467
-1.332810975251862,2.0197517301737338
-1.3148914932124318,2.0526993293312064
-1.0614588186547778,2.08947804466978
-0.9534299412170707,2.129321652953235
-0.7880587212531874,2.1431136712052
-0.5259222982763816,2.1553732429847248
-0.4056057760116368,2.1630354753469274
-0.46038819253218016,2.1806586097799943
-0.4890593637952683,2.179892386543774
-0.42710915445895287,2.1806586097799943
-0.4030458500060039,2.1752950471264523
-0.46038819253218016,2.1806586097799943
-0.511074727443711,2.16916526123669
-0.4931552454042809,2.1553732429847248
-0.4363248880792312,2.1262567600083537
-0.36157504871475143,2.1040362861579656
-0.30679263219420805,2.0672575708193914
-0.29604094297055,2.026647739299716
-0.3467274778820808,1.964583657165873
-0.3943421015868522,1.8986884588509283
-0.4015098944026242,1.818235019047798
-0.36157504871475143,1.7446775883706505
-0.29706491337280316,1.6642241485675202
-0.229994852025222,1.5914329411265928
-0.18903603593509608,1.501784822488819
-0.19722779915312127,1.4113704806148253
-0.24279448205338633,1.3040992275439849
-0.2627619048973227,1.2067888765440082
-0.21668323679593107,1.1079460790715912
-0.13169369340891982,1.0267264160322407
-0.08100715849738901,0.9432080832842293
-0.09841465533569253,0.8734817687881831
-0.15524501266074223,0.7999243381110355
-0.19722779915312127,0.7447562651031747
-0.1982517695553744,0.6880557456228734
-0.16446074628102053,0.6420823514496562
-0.1265738413976541,0.5861480552055751
-0.09841465533569253,0.5394084377961376
-0.06411164686021209,0.49113637391425946
-0.00011349671939036352,0.4627861141741088
0.06183671261692506,0.4329034079615176
0.06593259422593765,0.41144915734734955
0.011662162906520833,0.38003400466231774
-0.03288054959149109,0.36011220052059023
-0.04363223881514913,0.34095661961508306
-0.0656476024635918,0.33482683372532074
-0.12503788579427436,0.31873614576469467
-0.16446074628102053,0.30877524369383097
-0.15831692386750165,0.2926845557332049
-0.16446074628102053,0.2834898768985614
-0.23204279282972828,0.26663296570171513
-0.29604094297055,0.25743828686707165
-0.2765855053277402,0.2428800453788862
-0.19722779915312127,0.23215292007180216
-0.15268508665510935,0.20610133004031236
-0.16446074628102053,0.18081596324504287
-0.18186824311932406,0.15016703379623136
-0.16446074628102053,0.12947900641828358
-0.12913376740328694,0.1034274163867938
-0.09841465533569253,0.07814204959152429
-0.07895921769288272,0.03983088778050991
-0.0656476024635918,0.0015197259694955123
-0.06359966165908551,-0.042921221731281184
-0.0656476024635918,-0.07586882088875356
-0.06820752846922468,-0.11417998269976795
-0.0656476024635918,-0.15249114451078236
-0.06206370605570579,-0.19846453868399963
-0.0656476024635918,-0.22911346813281114
-0.09943862573794568,-0.25593128140052124
-0.16446074628102053,-0.2804504249595704
-0.22180308880719682,-0.32182647971546596
-0.229994852025222,-0.3578389718178195
-0.21361132558917162,-0.388487901266631
-0.229994852025222,-0.4091759286445788
-0.2801694017356262,-0.4459546439831526
-0.29604094297055,-0.48579825226660756
-0.26224991969619615,-0.5233431908414017
-0.2627619048973227,-0.5371352090933669
-0.3728387231395361,-0.5478623344004508
-0.5259222982763816,-0.5624205758886364
-0.5894084632160768,-0.5930695053374478
-0.5259222982763816,-0.6137575327153957
-0.448612532906269,-0.6298482206760216
-0.46038819253218016,-0.6398091227468854
-0.5254103130752551,-0.6658607127783752
-0.5259222982763816,-0.6911460795736447
-0.4465645921017627,-0.7118341069515925
-0.3943421015868522,-0.7164314463689142
-0.44554062169950953,-0.726392348439778
-0.5259222982763816,-0.742483036400404
-0.528994209483141,-0.7708332961405546
-0.46038819253218016,-0.7938199932271633
-0.4219893024476872,-0.8122093508964502
-0.46038819253218016,-0.8191053600224328
-0.5279702390808879,-0.8305987085657371
-0.5586893511484824,-0.8451569500539226
-0.5499856027293306,-0.8727409865578529
-0.5259222982763816,-0.8964939068806819
-0.49981105301892637,-0.915649487786189
-0.46038819253218016,-0.9217792736759514
-0.42864511006233263,-0.9325063989830354
-0.42710915445895287,-0.9470646404712209
-0.4347889324758515,-0.9754149002113716
-0.3943421015868522,-0.9984015972979802
-0.3221521882280053,-1.0175571782034873
-0.29604094297055,-1.02445318732947
-0.3313679218482836,-1.0374789823452149
-0.32880799584265075,-1.0497385541247395
-0.22897088162296883,-1.0681279117940263
-0.09841465533569253,-1.0757901441562292
-0.009329230339668692,-1.0872834926995336
0.06593259422593765,-1.1010755109514987
0.1355625815791517,-1.1301919939278697
0.1314666999701391,-1.1524124677782581
0.05364494939889988,-1.1715680486837652
0.06593259422593765,-1.1784640578097478
0.2850622603081112,-1.1930222992979334
0.591741395782929,-1.2037494246050173
0.7673523197693437,-1.2152427731483215
0.7560886453445591,-1.2037494246050173
0.65881145713051,-1.1784640578097478
0.5589743429108281,-1.1271271009829886
0.4616971546967792,-1.069660358266467
0.3613480552759707,-0.9984015972979802
0.24000756260897274,-0.9233117201483919
0.06593259422593765,-0.8191053600224328
-0.18186824311932406,-0.6980420886996274
-0.42710915445895287,-0.5624205758886364
-0.5929923596239628,-0.4451884207469323
-0.6247354420938104,-0.3317873817863297
-0.5499856027293306,-0.2183863428257271
-0.42710915445895287,-0.07586882088875356
-0.34775144828433396,0.07584337988286344
-0.3943421015868522,0.23215292007180216
-0.5540814843383431,0.37083932582767426
-0.6902695478380118,0.5141230710008681
-0.6851496958267461,0.6535756999929605
-0.5914564040205831,0.796093221929934
-0.5894084632160768,0.915624046780299
-0.7558036535822132,1.0267264160322407
-0.9488220744069316,1.1263354367408782
-0.8873838502717427,1.2320742433392777
-0.3738626935417892,1.3240210316857124
0.5589743429108281,1.4113704806148253
1.6648623773442275,1.4780319021659902
2.761022692956222,1.5400959842998336
3.8535991121603304,1.5876018249454915
4.799235778641112,1.6420036747171318
4.924160167715996,1.6918081850714506
3.549991887892272,1.7446775883706505
1.033584624355162,1.783754973417885
-1.2160783493950031,1.8220661352288996
-2.122804140590165,1.847351502024169
-1.9395134385868518,1.8734030920556588
-1.5780518865914908,1.8833639941265226
-1.4131926518287339,1.8986884588509283
-1.2252940830152814,1.9078831376855718
-0.9201509031438434,1.924740048882418
-0.7179167486988468,1.9262724953548587
-0.7230366007101126,1.924740048882418
-0.7880587212531874,1.9009871285595892
-0.7890826916554405,1.8734030920556588
-0.7624594611968587,1.8381568231895256
-0.7558036535822132,1.8220661352288996
-0.7419800531517957,1.7960145451974097
-0.6902695478380118,1.7446775883706505
-0.6385590425242279,1.632042772646268
-0.6247354420938104,1.4887590274730742
-0.6626223469771768,1.3270859246305935
-0.6902695478380118,1.1807372865125185
-0.667230213787316,1.0389859878117653
-0.5914564040205831,0.9240525023787222
-0.5397458987067991,0.8236772584338644
-0.5586893511484824,0.7447562651031747
-0.6201275752836712,0.655108146465401
-0.6575024949659111,0.5654600278276274
-0.6211515456859243,0.46661723035521024
-0.5259222982763816,0.38616379055208
-0.44912451810739557,0.3118401366387121
-0.46038819253218016,0.25743828686707165
-0.5412818543101788,0.20227021385921093
-0.5914564040205831,0.15553059644977338
-0.5423058247124319,0.09883007696947207
-0.42710915445895287,0.0528566827962548
-0.330855936647157,0.005350842150596951
-0.29604094297055,-0.024531864061994275
-0.3149843954122332,-0.0544145702745855
-0.36157504871475143,-0.07586882088875356
-0.3994619535981179,-0.10575152710134479
-0.3943421015868522,-0.12720577771551286
-0.3646469599215109,-0.14712758185724034
-0.36157504871475143,-0.15249114451078236
-0.3902462199778396,-0.16551693952652724
-0.3943421015868522,-0.17854273454227212
-0.3646469599215109,-0.1992307619202199
-0.36157504871475143,-0.20382810133754165
-0.40662974641388994,-0.20536054780998222
-0.42710915445895287,-0.20382810133754165
-0.39485408678797873,-0.2183863428257271
-0.3943421015868522,-0.22911346813281114
-0.4957151714099138,-0.24290548638477633
-0.6247354420938104,-0.2551650581643009
-0.6841257254244929,-0.28351531790445156
-0.6902695478380118,-0.3065020149910602
-0.7107489558830747,-0.32412514942412685
-0.7230366007101126,-0.3317873817863297
-0.6569905097647845,-0.3547740788729383
-0.5259222982763816,-0.383124338613089
-0.43888481408486407,-0.4160719377705614
-0.46038819253218016,-0.4344612954398483
-0.5540814843383431,-0.45821421576267723
-0.6247354420938104,-0.48579825226660756
-0.6027200784453677,-0.5279405302587235
-0.4931552454042809,-0.5624205758886364
-0.3841023975643207,-0.5938357285736682
-0.36157504871475143,-0.6137575327153957
-0.40970165762064936,-0.6405753459831057
-0.42710915445895287,-0.6650944895421549
-0.3682308563293969,-0.6949771957547461
-0.29604094297055,-0.7164314463689142
-0.2858012389480185,-0.7440154828728446
-0.32880799584265075,-0.7677684031956735
-0.38103048635756126,-0.7968848861720444
-0.42710915445895287,-0.8191053600224328
-0.4655080445434459,-0.8459231732901429
-0.46038819253218016,-0.870442316849192
-0.3958780571902319,-0.9010912462980036
-0.32880799584265075,-0.9217792736759514
-0.34007167026743534,-0.939402408109018
-0.42710915445895287,-0.9470646404712209
-0.5090267866392046,-0.960856658723186
-0.5259222982763816,-0.9731162305027107
-0.5105627422425845,-0.9892069184633367
-0.5259222982763816,-0.9984015972979802
-0.573536921981153,-1.0121936155499454
-0.5914564040205831,-1.02445318732947
-0.5576653807462292,-1.0413100985263162
-0.5259222982763816,-1.0497385541247395
-0.5504975879304572,-1.0612319026680437
-0.5914564040205831,-1.0757901441562292
-0.5827526556014313,-1.1033741806601596
-0.5259222982763816,-1.1271271009829886
-0.4844514969851291,-1.1455164586522755
-0.4931552454042809,-1.1524124677782581
-0.5438417803158118,-1.1646720395577825
-0.5914564040205831,-1.1784640578097478
-0.5725129515788998,-1.1953209690065942
-0.46038819253218016,-1.2037494246050173
-0.36771887112827034,-1.2152427731483215
-0.42710915445895287,-1.229801014636507
-0.569953025573267,-1.2489565955420143
-0.5586893511484824,-1.2550863814317765
-0.36208703391587804,-1.2550863814317765
-0.229994852025222,-1.2550863814317765
-0.3267600550381444,-1.269644622919962
-0.46038819253218016,-1.280371748227046
-0.4035578352071305,-1.2849690876443678
-0.229994852025222,-1.280371748227046
-0.16292479067764082,-1.2903326502979098
-0.229994852025222,-1.306423338258536
-0.30679263219420805,-1.3248126959278228
-0.32880799584265075,-1.3317087050538055
-0.29604094297055,-1.3432020535971096
-0.16446074628102053,-1.3577602950852952
0.05825281620903905,-1.3853443315892255
0.23027984378756783,-1.4090972519120544
0.23232778459207412,-1.4297852792900023
0.16423375284223982,-1.4343826187073239
0.22515999177630208,-1.4374475116522052
0.4601611990933995,-1.4343826187073239
0.7125699032488003,-1.4382137348884254
0.8216227510887605,-1.4343826187073239
0.7781040089930018,-1.4297852792900023
0.6900425543992311,-1.4090972519120544
0.6362841082809408,-1.3807469921719038
0.591741395782929,-1.3317087050538055
0.48576045914972815,-1.2757744088097245
0.29581394953176926,-1.2037494246050173
0.033677526554963505,-1.1317244404003102
-0.229994852025222,-1.0497385541247395
-0.393318131184599,-0.9692851143216092
-0.36157504871475143,-0.870442316849192
-0.25047426007028495,-0.7631710637783518
-0.2627619048973227,-0.6398091227468854
-0.44349268089500327,-0.516447181715419
-0.5914564040205831,-0.383124338613089
-0.5709769959755201,-0.25593128140052124
-0.4931552454042809,-0.12720577771551286
-0.49776311221442004,-0.011506069046249382
-0.5259222982763816,0.10419363962301409
-0.4859874525885089,0.20763377651275294
-0.46038819253218016,0.30877524369383097
-0.5668811143665076,0.39765713909538436
-0.6902695478380118,0.4888377042055986
-0.5776328035901656,0.5685249207725085
-0.09841465533569253,0.6420823514496562
0.6905545396003576,0.6941855315126357
1.7421721427143402,0.7447562651031747
3.0308388939499262,0.7922621057488326
4.371728135700423,0.8474301787566934
5.28971760132037,0.8888062335125889
5.226231436380675,0.9240525023787222
3.938076670346215,0.947805422701551
1.8077062484585416,0.9753894592054814
-0.29501697256829684,0.9991423795283103
-1.5775399013903642,1.0267264160322407
-1.8770512440494098,1.0420508807566464
-1.6108189394635914,1.0527780060637304
-1.2503813578704834,1.048946889882629
-0.9534299412170707,1.0527780060637304
-0.6999972666594168,1.0520117828275102
-0.5259222982763816,1.0527780060637304
-0.472675837359218,1.0374535413393247
-0.46038819253218016,1.0267264160322407
-0.4071417316150165,1.0121681745440552
-0.36157504871475143,1.0014410492369712
-0.3994619535981179,0.9677272268432785
-0.46038819253218016,0.9240525023787222
-0.452196429314155,0.8673519828984209
-0.3943421015868522,0.8221448119614239
-0.3820544567598144,0.7708078551346645
-0.3943421015868522,0.7194708983079052
-0.3723267379384095,0.65204325352052
-0.29604094297055,0.5907453946228969
-0.24074654124888004,0.5248501963079522
-0.229994852025222,0.4627861141741088
-0.24637837846127233,0.38386512084341917
-0.2627619048973227,0.30877524369383097
-0.26224991969619615,0.23521781301668332
-0.229994852025222,0.18081596324504287
-0.1670206722866534,0.12564789023718215
-0.09841465533569253,0.07814204959152429
-0.05489591323993376,0.022207753347443286
-0.03288054959149109,-0.024531864061994275
-0.018032978758820446,-0.07127148147143184
-0.00011349671939036352,-0.10115418768402307
0.015758044515533424,-0.130270670660394
0.03265355615271036,-0.15249114451078236
0.059276786611292195,-0.18314007395959386
0.09869964709803837,-0.20382810133754165
0.12839478876337965,-0.22298368224304885
0.1314666999701391,-0.22911346813281114
0.12071501074648104,-0.23600947725879373
0.1314666999701391,-0.22911346813281114
0.15962588603210065,-0.22758102166037056
0.16423375284223982,-0.22911346813281114
0.12122699594760762,-0.24750282580209804
0.06593259422593765,-0.2551650581643009
0.029069659744824342,-0.25822995110918207
-0.00011349671939036352,-0.2551650581643009
-0.0482401056252883,-0.2681908531800458
-0.09841465533569253,-0.2804504249595704
-0.1337416342134261,-0.2957748896839762
-0.16446074628102053,-0.3065020149910602
-0.2141233107902982,-0.33255360502255
-0.2627619048973227,-0.3578389718178195
-0.2898971205570311,-0.377760775959547
-0.29604094297055,-0.383124338613089
-0.30064880978068914,-0.4022799195185962
-0.29604094297055,-0.4344612954398483
-0.27965741653449966,-0.48043468961306557
-0.2627619048973227,-0.5118498422980974
-0.2550821268804241,-0.5371352090933669
-0.229994852025222,-0.5624205758886364
-0.18186824311932406,-0.6045628538807521
-0.13169369340891982,-0.6398091227468854
-0.10148656654245197,-0.6681593824870361
-0.0656476024635918,-0.6911460795736447
-0.005233348730656101,-0.7302234646208794
0.06593259422593765,-0.7677684031956735
0.11098729192507614,-0.8007160023531459
0.1314666999701391,-0.8191053600224328
0.14580228560168315,-0.8451569500539226
0.16423375284223982,-0.870442316849192
0.1703775752557587,-0.899558799825563
0.16423375284223982,-0.9217792736759514
0.15860191562984752,-0.9508957566523223
0.16423375284223982,-0.9731162305027107
0.16013787123322723,-0.9922718114082179
0.1314666999701391,-0.9984015972979802
0.09716369149465866,-1.0114273923137251
0.09869964709803837,-1.02445318732947
0.12634684795887335,-1.0428425449987568
0.1314666999701391,-1.0497385541247395
0.09460376548902578,-1.0535696703058408
0.06593259422593765,-1.0497385541247395
0.06798053503044395,-1.0589332329593828
0.06593259422593765,-1.0757901441562292
0.028045689342571192,-1.0972443947703974
-0.00011349671939036352,-1.1010755109514987
0.01268613330877398,-1.0995430644790583
0.03265355615271036,-1.1010755109514987
0.017294000118913144,-1.117932422148345
-0.00011349671939036352,-1.1271271009829886
0.0034703996884956527,-1.1278933242192088
-0.00011349671939036352,-1.1271271009829886
-0.03134459398811136,-1.141685342471174
-0.03288054959149109,-1.1524124677782581
0.017805985320039717,-1.1562435839593594
0.06593259422593765,-1.1524124677782581
0.06183671261692506,-1.1646720395577825
0.06593259422593765,-1.1784640578097478
0.11559515873521531,-1.1861262901719507
0.16423375284223982,-1.1784640578097478
0.16013787123322723,-1.176165388101087
0.16423375284223982,-1.1784640578097478
0.22567197697742866,-1.1838276204632898
0.29581394953176926,-1.1784640578097478
0.2953019643306427,-1.1753991648648667
0.26304689665966857,-1.1784640578097478
0.27994240829684547,-1.1937885225341536
0.3613480552759707,-1.2037494246050173
0.4514574506742477,-1.2075805407861187
0.5256953048376009,-1.2037494246050173
0.58559757336941,-1.2129441034396609
0.6245084486550296,-1.229801014636507
0.6332121970741814,-1.2504890420144548
0.6572755015271303,-1.2550863814317765
0.7525047489366731,-1.255852604667997
0.9204358949061893,-1.2550863814317765
1.0858071148700725,-1.2688783996837418
1.1830843030841216,-1.280371748227046
1.2086835631404502,-1.2895664270616896
1.216363341157349,-1.280371748227046
1.2281390007832602,-1.271943292628623
1.216363341157349,-1.2550863814317765
1.1349576941782238,-1.2389956934711506
0.9859700006503908,-1.2037494246050173
0.783735846205394,-1.1608409233766812
0.5589743429108281,-1.1010755109514987
0.3311409284095029,-1.043608768234977
0.16423375284223982,-0.9731162305027107
0.06746854982931737,-0.8957276836444615
0.03265355615271036,-0.7938199932271633
0.009614222102014538,-0.6842500704476622
-0.00011349671939036352,-0.5624205758886364
0.003982384889622227,-0.44288975103827144
-0.00011349671939036352,-0.3065020149910602
-0.019056949161073592,-0.1678156092351881
-0.00011349671939036352,-0.024531864061994275
0.06030075701354534,0.1034274163867938
0.06593259422593765,0.23215292007180216
-0.06411164686021209,0.3562810843394888
-0.2627619048973227,0.4888377042055986
-0.4153334948330417,0.6076023058197432
-0.36157504871475143,0.7194708983079052
0.1545060340208349,0.8106514634181196
1.2818974469015503,0.8987671355834526
2.66118557873654,0.9746232359692611
3.747106190326003,1.0527780060637304
4.548875015290218,1.1171407579062347
5.4233457388144055,1.1807372865125185
5.928675132326334,1.2305417968668373
4.930303990129515,1.2834112001660372
2.3350510056189124,1.3232548084494922
-0.229994852025222,1.3600335237880659
-1.260621061893015,1.3822539976384542
-1.0517310998333729,1.4113704806148253
-0.7967624696723391,1.4358896241738743
