ECG,PPG
-0.3100845945546872,-0.2899946061370069
-0.05622391432158667,0.02389461838487122
-0.3461559512634119,-0.317141782311872
-0.4564117962976272,-0.49953687223674714
-0.27401323784596243,-0.3434406092312726
-0.18621691680019847,-0.2560606359184255
-0.27401323784596243,-0.36973943615067323
-0.29783394510644107,-0.4469392183979459
-0.20187052442851297,-0.39603826307007384
-0.16171561790370617,-0.38161632572717674
-0.20187052442851297,-0.448635916908875
-0.20731525751662236,-0.49275007819303085
-0.16579916771978823,-0.4749347438282756
-0.18281395862013008,-0.48087318861652734
-0.23794188113723772,-0.5283807469225413
-0.2433866142253471,-0.5707982096957681
-0.16579916771978823,-0.5809784007613426
-0.11203242847470796,-0.5894618933159879
-0.12972781101106348,-0.6072772276807431
-0.17941100044006172,-0.6284859590673565
-0.16579916771978823,-0.6335760546001438
-0.1215607113788994,-0.6267892605564275
-0.12972781101106348,-0.6072772276807431
-0.2011899327924993,-0.5979453858706333
-0.20187052442851297,-0.5809784007613426
-0.13313076919113187,-0.5606180186301937
-0.16579916771978823,-0.5283807469225413
-0.3972003239644375,-0.5046269677695343
-0.6340462132971961,-0.4749347438282756
-0.6517415958335516,-0.44269747212062327
-0.3461559512634119,-0.39603826307007384
0.3820770992712196,-0.3570141973187052
1.6330045262643529,-0.317141782311872
3.112610742958081,-0.2823594628378261
4.187945527859687,-0.2373969522982057
4.528921937502537,-0.19158609250312078
4.439764433184746,-0.1322016446206033
4.22197510966037,-0.0770589430154085
3.756450430627017,-0.02615798768753637
2.939059875774594,0.009472681041974119
2.136642336914472,0.05273849307066543
1.6656729247930093,0.10109440063214395
1.309042907521844,0.15878215000373236
0.7182893674619747,0.2079864068206754
0.04994838089654652,0.2648258069367993
-0.3325441185431384,0.31742346077560046
-0.4176180730448477,0.3700211146144017
-0.4829548701021604,0.40650013259937673
-0.5979748565884714,0.449765944628068
-0.6626310620097705,0.497273502934082
-0.6694369783699072,0.5549612523056704
-0.7082307016226866,0.5965303658234327
-0.7415796917873567,0.6347060823193368
-0.7136754347107961,0.6686400525379181
-0.6694369783699072,0.7136025630775386
-0.7000636019905225,0.7441431362742618
-0.7415796917873567,0.7662002169163398
-0.7504273830555345,0.7814705035147014
-0.7415796917873567,0.8196462200106055
-0.7654003990478353,0.8612153335283677
-0.7415796917873567,0.8985427007688073
-0.6599086954657157,0.9095712410898462
-0.5979748565884714,0.9248415276882078
-0.6320044383891551,0.9468986083302857
-0.6694369783699072,0.9782875307824735
-0.6408521296573328,0.9901644203589771
-0.5979748565884714,1.004586357701874
-0.6469774543814559,1.0224016920666295
-0.7415796917873567,1.0571840115406754
-0.7817345983121635,1.075847695160895
-0.7415796917873567,1.0834828384600759
-0.707550109986673,1.075847695160895
-0.705508335078632,1.0834828384600759
-0.6959800521744405,1.0936630295256504
-0.6340462132971961,1.1097816653794765
-0.5714317827839381,1.110630014634941
-0.5619034998797466,1.1097816653794765
-0.6000166314965124,1.096208077292044
-0.5979748565884714,1.0834828384600759
-0.5346798344391998,1.0639708055843917
-0.45368942975357246,1.0571840115406754
-0.41489570650079305,1.0453071219641719
-0.38154671633612297,1.0308851846212748
-0.3311829352711111,0.9977995636581579
-0.27401323784596243,0.9782875307824735
-0.23658069786521035,0.9638655934395765
-0.16579916771978823,0.9511403546076085
-0.045334448145367884,0.9121162888562399
0.08601973760527126,0.8722438738494066
0.17653842519508994,0.8366132051198961
0.2656959295128813,0.8196462200106055
0.3575758003747273,0.7924990438357403
0.4099813563477802,0.7662002169163398
0.41474549779987596,0.7348112944641519
0.481443478129216,0.7136025630775386
0.6372989627763475,0.6839103391362797
0.7693337401630003,0.6610049092387373
0.7666113736189456,0.6313126852974786
0.6978716183815644,0.6084072553999361
0.6454660624085116,0.5761699836922838
0.5896575482553902,0.5549612523056704
0.4759987450411066,0.5362975686854506
0.37390999963905547,0.5286624253862698
0.3419221927464128,0.5125437895324436
0.3378386429303307,0.5023635984668692
0.2854330869572778,0.4853966133575785
0.22962457280415655,0.4760647715474686
0.2037620906356369,0.4582494371827134
0.15816245102272072,0.449765944628068
0.032252998360190986,0.4353440072851709
-0.09433704593835243,0.4234671177086674
-0.15150674336350106,0.3954715922783377
-0.16579916771978823,0.3700211146144017
-0.20867644078864972,0.3471156847168592
-0.23794188113723772,0.34372228769500107
-0.21548235714878644,0.3343904458848912
-0.16579916771978823,0.31742346077560046
-0.15763206808762414,0.2843378398124836
-0.16579916771978823,0.2648258069367993
-0.1739662673519523,0.24955552033843764
-0.20187052442851297,0.23767863076193416
-0.2835415207501539,0.20883475607613994
-0.3461559512634119,0.18508097692313297
-0.3332247101791521,0.1672656425583777
-0.27401323784596243,0.15878215000373236
-0.2746938294819761,0.1333316723397963
-0.3461559512634119,0.10618449616493116
-0.41897925631687505,0.08243071701192417
-0.4176180730448477,0.07988566924553056
-0.383588491244164,0.07055382743542067
-0.38154671633612297,0.05273849307066543
-0.4305493141291075,0.021349570618477615
-0.45368942975357246,0.00014083923186422953
-0.42510458104099813,-0.01682614587742648
-0.38154671633612297,-0.02615798768753637
-0.38767204106024605,-0.04312497279682708
-0.4176180730448477,-0.05245681460693697
-0.44007759703329896,-0.06603040269436954
-0.45368942975357246,-0.07875564152633757
-0.49316374464236556,-0.10759951621213178
-0.5258321431710219,-0.1322016446206033
-0.5169844519028441,-0.1517136774962876
-0.45368942975357246,-0.1585004715400039
-0.36929606688787686,-0.172922408882901
-0.27401323784596243,-0.1847992984594045
-0.20867644078864972,-0.20091793431323066
-0.20187052442851297,-0.2110981253788051
-0.23998365604527871,-0.22721676123263126
-0.23794188113723772,-0.2373969522982057
-0.2005093411564856,-0.25181888964110277
-0.20187052442851297,-0.2636957792176063
-0.27605501275400346,-0.28405616134875517
-0.3100845945546872,-0.2899946061370069
-0.23658069786521035,-0.2925396539034005
-0.12972781101106348,-0.2899946061370069
-0.1133936117467353,-0.304416543479904
-0.16579916771978823,-0.317141782311872
-0.22092709023689586,-0.32477692561105287
-0.23794188113723772,-0.317141782311872
-0.24542838913338813,-0.3162934330564075
-0.20187052442851297,-0.317141782311872
-0.1317695859191045,-0.3239285763555883
-0.09433704593835243,-0.317141782311872
-0.14674260191140534,-0.30780994050176214
-0.20187052442851297,-0.2899946061370069
-0.20187052442851297,-0.280662764326897
-0.16579916771978823,-0.2636957792176063
-0.14061727718728229,-0.24588044485285104
-0.09433704593835243,-0.2110981253788051
-0.08344757976213364,-0.1754674566492946
-0.23794188113723772,-0.1322016446206033
-0.5544169918835963,-0.09572262663562828
-0.7776510484960815,-0.05245681460693697
-0.7041471518066046,-0.008342653322781125
-0.3100845945546872,0.05273849307066543
0.4161066810719033,0.10872954393132477
1.5615424044829171,0.15878215000373236
2.928851001234389,0.19186777096684923
4.008269335952076,0.23767863076193416
4.454737449177046,0.28942793534527084
4.439764433184746,0.34372228769500107
4.209724460212124,0.3802013056799761
3.720379073918292,0.4234671177086674
2.8818901783494453,0.4718230252701459
1.9569661450068618,0.5286624253862698
1.2661656344529826,0.5676864911376385
0.805405096871725,0.6084072553999361
0.35349225055864525,0.652521416684092
-0.09433704593835243,0.7136025630775386
-0.3761019832480136,0.7594134228726235
-0.45368942975357246,0.7933473930912048
-0.49384433627837926,0.8128594259668892
-0.5979748565884714,0.845945046930006
-0.7211619427069464,0.882424064914981
-0.7776510484960815,0.9248415276882078
-0.8001105724845327,0.9528370531185375
-0.8497937619135308,0.9782875307824735
-0.9130887840628026,0.9893160711035125
-0.8858651186222556,1.004586357701874
-0.7708451321359446,1.012221501001055
-0.6694369783699072,1.0308851846212748
-0.6776040780020713,1.0444587727087074
-0.705508335078632,1.0571840115406754
-0.6939382772663995,1.0546389637742817
-0.6694369783699072,1.0571840115406754
-0.7082307016226866,1.056335662285211
-0.7415796917873567,1.0571840115406754
-0.7163978012548508,1.0419137249423138
-0.6694369783699072,1.0308851846212748
-0.6810070361821396,1.0156148980229132
-0.705508335078632,1.004586357701874
-0.6952994605384268,0.9765908322715445
-0.6694369783699072,0.9511403546076085
-0.6776040780020713,0.9222964799218143
-0.6694369783699072,0.8985427007688073
-0.625879113665032,0.8595186350174386
-0.5979748565884714,0.8196462200106055
-0.6394909463853056,0.7746837094709851
-0.6694369783699072,0.7399013899969391
-0.6211149722129363,0.6983322764791768
-0.5258321431710219,0.6610049092387373
-0.4761489537420237,0.6168907479545815
-0.45368942975357246,0.581260079225071
-0.41149274832072463,0.5396909657073088
-0.3461559512634119,0.5023635984668692
-0.31620991927881026,0.4574010879272488
-0.3100845945546872,0.4234671177086674
-0.2835415207501539,0.389533147490086
-0.20187052442851297,0.3700211146144017
-0.10658769538659857,0.34457063695046564
-0.022194332520902953,0.31742346077560046
0.04450364780843712,0.28179279204609
0.122091094313996,0.2648258069367993
0.2064844571796916,0.2504038695939022
0.30176728622160603,0.23767863076193416
0.4099813563477802,0.20713805756521086
0.5535861915466656,0.18508097692313297
0.6944686602014961,0.1765974843684876
0.7693337401630003,0.18508097692313297
0.7482353994465764,0.17744583362395214
0.6978716183815644,0.15878215000373236
0.6706479529410174,0.13418002159526082
0.6618002616728397,0.13248332308433175
0.619603580239992,0.13418002159526082
0.5535861915466656,0.13248332308433175
0.4800822948571887,0.11297129020864745
0.4099813563477802,0.10618449616493116
0.34056100947438545,0.10448779765400208
0.30176728622160603,0.10618449616493116
0.26161237969679924,0.08921751105564045
0.15816245102272072,0.07988566924553056
-0.022194332520902953,0.07564392296820788
-0.16579916771978823,0.07988566924553056
-0.21071821569669075,0.06546373190263345
-0.20187052442851297,0.05273849307066543
-0.2297747815050736,0.04680004828241368
-0.27401323784596243,0.05273849307066543
-0.3100845945546872,0.04340665126055554
-0.3461559512634119,0.026439666151264828
-0.4040062403245742,0.0052309347646514424
-0.4176180730448477,0.00014083923186422953
-0.3774631665200409,-0.0024042085345293766
-0.3461559512634119,0.00014083923186422953
-0.3842690828801777,-0.010039351833710197
-0.4176180730448477,-0.02615798768753637
-0.3944779574203828,-0.05585021162879511
-0.3461559512634119,-0.07875564152633757
-0.3441141763553709,-0.09826767440202189
-0.3461559512634119,-0.10505446844573817
-0.31416814437076923,-0.11862805653317073
-0.27401323784596243,-0.1322016446206033
-0.28694447893022224,-0.15001697898535854
-0.3100845945546872,-0.1585004715400039
-0.291708620382318,-0.1703773611165074
-0.23794188113723772,-0.1847992984594045
-0.22160768187290952,-0.21449152240066324
-0.23794188113723772,-0.2373969522982057
-0.24202543095331974,-0.2560606359184255
-0.20187052442851297,-0.2636957792176063
-0.17668863389600703,-0.2781177165605034
-0.20187052442851297,-0.2899946061370069
-0.25019253058548385,-0.30696159124629757
-0.23794188113723772,-0.317141782311872
-0.18417514189215745,-0.33241206891023367
-0.16579916771978823,-0.3434406092312726
-0.2141211738767591,-0.3587108958296343
-0.23794188113723772,-0.36973943615067323
-0.21071821569669075,-0.3867064212599639
-0.20187052442851297,-0.39603826307007384
-0.25631785530960693,-0.40961185115750637
-0.27401323784596243,-0.4223370899894744
-0.2141211738767591,-0.45033261541980407
-0.16579916771978823,-0.4749347438282756
-0.2066346658806087,-0.49699182447035356
-0.23794188113723772,-0.5020819200031408
-0.2066346658806087,-0.5122621110687152
-0.20187052442851297,-0.5283807469225413
-0.293750395290359,-0.5589213201192647
-0.3461559512634119,-0.5809784007613426
-0.26856850475785304,-0.5987937351260978
-0.16579916771978823,-0.6072772276807431
-0.17328567571593864,-0.6233958635345693
-0.20187052442851297,-0.6335760546001438
-0.145381418639378,-0.6412111978993246
-0.058265689229627694,-0.6335760546001438
-0.060307464137668715,-0.6327277053446793
-0.09433704593835243,-0.6335760546001438
-0.0711969303138875,-0.6412111978993246
-0.022194332520902953,-0.6335760546001438
-0.043292673237326856,-0.6225475142791048
-0.09433704593835243,-0.6072772276807431
-0.10794887865862592,-0.6013387828924914
-0.09433704593835243,-0.5809784007613426
-0.10454592047855754,-0.5487411290536902
-0.09433704593835243,-0.5020819200031408
-0.038528531785231135,-0.46390620350723666
0.013877024187821782,-0.4223370899894744
0.0002651914675482969,-0.3790712779607831
-0.022194332520902953,-0.317141782311872
-0.007221316528602121,-0.25351558815203185
0.013877024187821782,-0.1847992984594045
-0.018791374340834582,-0.12202145355502887
-0.058265689229627694,-0.05245681460693697
-0.05350154777753197,0.01116937955290319
-0.022194332520902953,0.07988566924553056
-0.032403207061108066,0.14096681563897712
-0.058265689229627694,0.21137980384253355
-0.05962687250165504,0.27670269651330276
-0.022194332520902953,0.34372228769500107
-0.020833149248875606,0.3954715922783377
-0.058265689229627694,0.449765944628068
-0.10454592047855754,0.4981218521895465
-0.09433704593835243,0.5549612523056704
-0.05622391432158667,0.605013858378078
-0.022194332520902953,0.6610049092387373
-0.023555515792930304,0.7102091660556804
-0.022194332520902953,0.7662002169163398
-0.01198545798069784,0.8154044737332827
-0.022194332520902953,0.8722438738494066
-0.13108899428309084,0.9231448291772788
-0.3461559512634119,0.9782875307824735
-0.5830018405961706,1.0181599457893067
-0.6694369783699072,1.0571840115406754
-0.46730126247384596,1.0826344892046114
0.122091094313996,1.1097816653794765
1.110310149805851,1.13099039676609
2.389141833875545,1.1632276684737424
3.6250962448763775,1.1903748446486075
4.439764433184746,1.2158253223125435
4.659595531617162,1.2175220208234725
4.439764433184746,1.2158253223125435
3.998060461411871,1.2090385282688272
3.432488811884508,1.2158253223125435
2.765509008591107,1.2158253223125435
2.101251571841761,1.2158253223125435
1.5084562568738504,1.2005550357141819
0.949690523706624,1.1895264953931428
0.360298166918782,1.1725595102838522
-0.16579916771978823,1.1632276684737424
-0.49316374464236556,1.1394738893207352
-0.5979748565884714,1.1097816653794765
-0.6115866893087449,1.0648191548398562
-0.6340462132971961,1.0308851846212748
-0.6891741358143038,0.9994962621690869
-0.7415796917873567,0.9782875307824735
-0.7762898652240541,0.9392634650311049
-0.7776510484960815,0.8985427007688073
-0.7626780325037806,0.8518834917182578
-0.7415796917873567,0.8196462200106055
-0.7538303412356028,0.7806221542592369
-0.7776510484960815,0.7399013899969391
-0.799429980848519,0.6898487839245315
-0.7776510484960815,0.6610049092387373
-0.7497467914195207,0.6355544315748013
-0.7415796917873567,0.6084072553999361
-0.7810540066761498,0.5608996970939222
-0.8137224052048062,0.5286624253862698
-0.8028329390285873,0.50999874176605
-0.7415796917873567,0.5023635984668692
-0.6905353190863311,0.473519723781075
-0.6694369783699072,0.449765944628068
-0.6544639623776064,0.4311022610078482
-0.5979748565884714,0.4234671177086674
-0.5448887089794048,0.3963199415338023
-0.5619034998797466,0.3700211146144017
-0.6408521296573328,0.3479640339723238
-0.6694369783699072,0.34372228769500107
-0.627920888573073,0.33099704886303305
-0.5979748565884714,0.31742346077560046
-0.6422133129293602,0.2987597771553807
-0.6694369783699072,0.2911246338561999
-0.623837338756991,0.27670269651330276
-0.5619034998797466,0.2648258069367993
-0.563264683151774,0.2461621233165795
-0.5619034998797466,0.23767863076193416
-0.5081367606346664,0.2249533919299661
-0.45368942975357246,0.21137980384253355
-0.46457889592979124,0.18253592915673936
-0.45368942975357246,0.15878215000373236
-0.350239501079494,0.1384217678725835
-0.20187052442851297,0.13248332308433175
-0.10454592047855754,0.12060643350782826
-0.022194332520902953,0.10618449616493116
0.08806151251331228,0.07734062147913695
0.1935532160954318,0.05273849307066543
0.24323640552443002,0.03152976168405204
0.30176728622160603,0.026439666151264828
0.4106619479837939,0.0162594750856904
0.5175148348379408,0.00014083923186422953
0.5563085580907202,-0.03124808322032358
0.5896575482553902,-0.05245681460693697
0.6665644031249355,-0.06772710120529861
0.7339429750902892,-0.07875564152633757
0.7053581263777149,-0.10675116695666724
0.6257289049641149,-0.1322016446206033
0.5610726995428159,-0.15256202675175215
0.5175148348379408,-0.1585004715400039
0.4562615875967101,-0.17207405962743647
0.4099813563477802,-0.1847992984594045
0.39364715708345205,-0.20261463282415973
0.37390999963905547,-0.2110981253788051
0.3024478778576197,-0.2255200627217022
0.22962457280415655,-0.2373969522982057
0.1901502579153634,-0.2543639374074964
0.15816245102272072,-0.2636957792176063
0.07240790488499778,-0.27896606581596795
-0.022194332520902953,-0.2899946061370069
-0.05962687250165504,-0.30780994050176214
-0.022194332520902953,-0.317141782311872
0.005709924555657692,-0.3230802271001238
-0.022194332520902953,-0.317141782311872
-0.08957290448625671,-0.31544508380094294
-0.12972781101106348,-0.317141782311872
-0.15627088481559678,-0.3315637196547691
-0.20187052442851297,-0.3434406092312726
-0.2672073214858257,-0.351924101785918
-0.27401323784596243,-0.3434406092312726
-0.2270524149610189,-0.33919886295394996
-0.20187052442851297,-0.3434406092312726
-0.24678957240541546,-0.3621042928514924
-0.27401323784596243,-0.36973943615067323
-0.25019253058548385,-0.37058778540613774
-0.23794188113723772,-0.36973943615067323
-0.28898625383826326,-0.3858580720044994
-0.3100845945546872,-0.39603826307007384
-0.264484954941771,-0.399431660091932
-0.23794188113723772,-0.39603826307007384
-0.3012369032865094,-0.40961185115750637
-0.3461559512634119,-0.4223370899894744
-0.3066816363746188,-0.4291238840331907
-0.27401323784596243,-0.4223370899894744
-0.3454753596273982,-0.42997223328865525
-0.4176180730448477,-0.448635916908875
-0.3965197323284238,-0.472389696061882
-0.3461559512634119,-0.4749347438282756
-0.3761019832480136,-0.4740863945728111
-0.4176180730448477,-0.4749347438282756
-0.383588491244164,-0.49275007819303085
-0.3100845945546872,-0.5020819200031408
-0.2985145367424547,-0.5046269677695343
-0.3100845945546872,-0.5020819200031408
-0.28286092911414024,-0.5139588095796442
-0.23794188113723772,-0.5283807469225413
-0.24815075567744282,-0.5444993827763676
-0.27401323784596243,-0.554679573841942
-0.2535954887655522,-0.5716465589512326
-0.20187052442851297,-0.5809784007613426
-0.21888531532885483,-0.5860684962941297
-0.3100845945546872,-0.5809784007613426
-0.3829078996081503,-0.5843717977832007
-0.3461559512634119,-0.5809784007613426
-0.26244318003372996,-0.5741916067176263
-0.23794188113723772,-0.554679573841942
-0.28149974584211285,-0.5428026842654384
-0.27401323784596243,-0.5283807469225413
-0.19234224152432153,-0.5122621110687152
-0.12972781101106348,-0.4749347438282756
-0.15218733499951476,-0.43675902733237154
-0.16579916771978823,-0.39603826307007384
-0.12088011974288573,-0.3654976898733505
-0.09433704593835243,-0.317141782311872
-0.1610350262676925,-0.25690898517389
-0.20187052442851297,-0.1847992984594045
-0.13108899428309084,-0.12286980281049341
-0.022194332520902953,-0.05245681460693697
-0.04261208160131318,0.02050122136301308
-0.12972781101106348,0.10618449616493116
-0.12496366955896777,0.18168757990127482
0.04994838089654652,0.2648258069367993
0.24391699716044368,0.35050908173871737
0.30176728622160603,0.449765944628068
0.17517724192306258,0.5329041716635925
-0.022194332520902953,0.6084072553999361
-0.1903004666162805,0.6754268465816344
-0.3100845945546872,0.7662002169163398
-0.45845357120566815,0.8612153335283677
-0.6694369783699072,0.9511403546076085
-0.8790592022621189,1.0156148980229132
-0.8497937619135308,1.0834828384600759
-0.29443098692637265,1.1572892236854906
0.8775478102891745,1.2421241492319441
2.299984329557754,1.3099920896691069
3.432488811884508,1.3744666330844115
4.070883766465334,1.4270642869232129
4.439764433184746,1.479661940762014
4.631010682904588,1.5152926094915244
4.403693076476021,1.5594067707756805
3.6455139939567878,1.6060659798262298
2.748494217690765,1.6646020784532827
2.124391687466226,1.7070195412265095
1.7051472396818024,1.7443469084669492
1.1572709726907946,1.7672523383644916
0.481443478129216,1.7969445623057503
-0.04261208160131318,1.8181532936923637
-0.27401323784596243,1.8495422161445514
-0.3733796167039589,1.874144344553023
-0.4897607864622972,1.9029882192388172
-0.6149896474888132,1.914016759559856
-0.6694369783699072,1.9292870461582179
-0.6694369783699072,1.9377705387128632
-0.6694369783699072,1.9555858730776183
-0.7068695183506593,1.9572825715885476
-0.7415796917873567,1.9555858730776183
-0.7545109328716165,1.9386188879683277
-0.7415796917873567,1.9292870461582179
-0.7545109328716165,1.9114717117934625
-0.7776510484960815,1.9029882192388172
-0.7960270226684506,1.8843245356185974
-0.7776510484960815,1.8766893923194166
-0.770164540499931,1.8673575505093067
-0.7776510484960815,1.8766893923194166
-0.7844569648562182,1.8851728848740619
-0.7415796917873567,1.9029882192388172
-0.6884935441782901,1.89789812370603
-0.6694369783699072,1.8766893923194166
-0.6884935441782901,1.8240917384806155
-0.6694369783699072,1.7706457353863496
-0.6163508307608406,1.7121096367592967
-0.5979748565884714,1.6646020784532827
-0.6476580460174697,1.609459376848088
-0.6694369783699072,1.5594067707756805
-0.6190731973048953,1.494083878104911
-0.5619034998797466,1.4270642869232129
-0.5775571075080612,1.3507128539314046
-0.5979748565884714,1.2947218030707452
-0.5571393584276509,1.2421241492319441
-0.4897607864622972,1.1895264953931428
-0.48023250355810576,1.1157201101677283
-0.4897607864622972,1.0571840115406754
-0.46662067083783226,1.0105248024901259
-0.4176180730448477,0.9782875307824735
-0.38154671633612297,0.9248415276882078
-0.3100845945546872,0.8722438738494066
-0.1937034247963489,0.8230396170324636
-0.09433704593835243,0.7933473930912048
-0.06371042231773709,0.7534749780843717
-0.022194332520902953,0.7136025630775386
0.08057500451716186,0.6669433540269891
0.1935532160954318,0.6347060823193368
0.2486811386125394,0.5948336673125035
0.30176728622160603,0.5549612523056704
0.3943277487194657,0.5074536939996565
0.481443478129216,0.4760647715474686
0.5120701017498314,0.4472208968616744
0.5535861915466656,0.4234671177086674
0.6400213293204021,0.3818980041909052
0.6978716183815644,0.34372228769500107
0.6447854707724978,0.3013048249217743
0.5535861915466656,0.2648258069367993
0.5059447770257083,0.21901494714171438
0.481443478129216,0.18508097692313297
0.4018142567156161,0.15623710223733875
0.30176728622160603,0.13248332308433175
0.24527818043247104,0.09176255882203406
0.22962457280415655,0.05273849307066543
0.1772190168311036,0.01116937955290319
0.08601973760527126,-0.02615798768753637
0.005709924555657692,-0.07281719673808582
-0.022194332520902953,-0.10505446844573817
-0.0446538565093542,-0.1322016446206033
-0.09433704593835243,-0.1585004715400039
-0.15627088481559678,-0.2017662835686952
-0.16579916771978823,-0.2373969522982057
-0.13925609391525492,-0.26454412847307085
-0.12972781101106348,-0.2899946061370069
-0.17328567571593864,-0.34174391072034355
-0.20187052442851297,-0.39603826307007384
-0.1875781000722258,-0.4435458213760878
-0.16579916771978823,-0.4749347438282756
-0.1957451997043899,-0.5156555080905734
-0.23794188113723772,-0.554679573841942
-0.26108199676170263,-0.5954003381042396
-0.27401323784596243,-0.6335760546001438
-0.3060010447386051,-0.687870406949874
-0.3100845945546872,-0.7396197115332107
-0.28218033747812654,-0.7862789205837601
-0.27401323784596243,-0.8185161922914125
-0.32097406073090595,-0.8583886072982456
-0.3461559512634119,-0.8982610223050788
-0.32097406073090595,-0.9423751835892347
-0.3100845945546872,-0.9771575030632806
-0.3706572501599042,-1.0102431240263974
-0.4176180730448477,-1.0306035061575463
-0.3910749992403144,-1.0467221420113726
-0.3461559512634119,-1.056902333076947
-0.3699766585238905,-1.0721726196753085
-0.4176180730448477,-1.0832011599963476
-0.43803582212525793,-1.0967747480837802
-0.45368942975357246,-1.109499986915748
-0.5060949857266254,-1.1273153212805034
-0.5258321431710219,-1.1357988138351487
-0.47751013701405104,-1.139192210857007
-0.4176180730448477,-1.1357988138351487
-0.4176180730448477,-1.139192210857007
-0.4176180730448477,-1.1357988138351487
-0.3774631665200409,-1.1264669720250389
-0.3461559512634119,-1.109499986915748
-0.383588491244164,-1.1052582406384255
-0.4176180730448477,-1.109499986915748
-0.3903944076043008,-1.1179834794703936
-0.3461559512634119,-1.109499986915748
-0.3699766585238905,-1.0967747480837802
-0.4176180730448477,-1.0832011599963476
-0.4121733399567383,-1.084049509251812
-0.3461559512634119,-1.0832011599963476
-0.3202934690948923,-1.0781110644635603
-0.3461559512634119,-1.056902333076947
-0.3774631665200409,-1.0339969031794045
-0.3461559512634119,-1.003456329982681
-0.30804281964664615,-0.9797025508296742
-0.3100845945546872,-0.95085867614388
-0.3516006843515213,-0.9220148014580858
-0.3461559512634119,-0.8719621953856782
-0.2780967876620445,-0.8100326997367671
-0.20187052442851297,-0.7396197115332107
-0.2011899327924993,-0.6793869143952287
-0.27401323784596243,-0.6072772276807431
-0.39992269050849216,-0.5232906513897542
-0.5619034998797466,-0.4223370899894744
-0.7402185085153293,-0.3315637196547691
-0.7776510484960815,-0.2373969522982057
-0.44007759703329896,-0.1415334864307132
0.4099813563477802,-0.02615798768753637
1.605780860823806,0.09091420956656952
2.8206369311082145,0.21137980384253355
3.793882970607769,0.31827181003106503
4.439764433184746,0.4234671177086674
4.664359673069258,0.521027282087089
4.367621719767296,0.6347060823193368
3.624415653240364,0.7432947870187973
2.78456557439949,0.845945046930006
2.1502541696347452,0.9239931784327433
1.7051472396818024,1.004586357701874
1.1994676541236424,1.0826344892046114
0.5535861915466656,1.1632276684737424
-0.04669563141739523,1.226005513378118
-0.38154671633612297,1.2947218030707452
-0.49112196973432454,1.36852818829616
-0.5619034998797466,1.4533631138426135
-0.6884935441782901,1.5212310542797762
-0.7776510484960815,1.585705597695081
-0.7810540066761498,1.6374549022784177
-0.7776510484960815,1.6917492546281478
-0.8409460706453531,1.7290766218685873
-0.8858651186222556,1.7706457353863496
-0.8552384950016403,1.8071247533713246
-0.8137224052048062,1.8495422161445514
-0.8634055946338044,1.8766893923194166
-0.9219364753309803,1.9029882192388172
-0.9083246426107069,1.9157134580707853
-0.8497937619135308,1.9292870461582179
-0.8661279611778591,1.9267419983918241
-0.9219364753309803,1.9292870461582179
-0.9260200251470624,1.9258936491363596
-0.8497937619135308,1.9292870461582179
-0.7885405146723002,1.9165618073262498
-0.7776510484960815,1.9029882192388172
-0.7803734150401361,1.875841043063952
-0.7415796917873567,1.8495422161445514
-0.7007441936265362,1.8088214518822539
-0.705508335078632,1.7706457353863496
-0.7477050165114798,1.7265315741021938
-0.7415796917873567,1.6917492546281478
-0.6810070361821396,1.6416966485557403
-0.6340462132971961,1.585705597695081
-0.653102779105579,1.5135959109805954
-0.6694369783699072,1.4533631138426135
-0.6401715380213192,1.3880402211718441
-0.5979748565884714,1.321020629990146
-0.5830018405961706,1.2361857044436924
-0.5258321431710219,1.1632276684737424
-0.3992420988724785,1.0936630295256504
-0.27401323784596243,1.0308851846212748
-0.22909418986905994,0.9477469575857503
-0.20187052442851297,0.8722438738494066
-0.14470082700336434,0.8009825363903856
-0.09433704593835243,0.7399013899969391
-0.08344757976213364,0.6601565599832728
-0.022194332520902953,0.581260079225071
0.1166463612258866,0.5049086462332628
0.22962457280415655,0.449765944628068
0.23370812262023857,0.39292654451194414
0.22962457280415655,0.34372228769500107
0.2888360451373462,0.2885795860898063
0.3378386429303307,0.23767863076193416
0.3044896527656607,0.1791425321348812
0.30176728622160603,0.13248332308433175
0.40657839816771185,0.08836916180017591
0.5175148348379408,0.05273849307066543
0.49641649412151684,0.0018375377427933004
0.4099813563477802,-0.05245681460693697
0.37322940800304183,-0.11184126248945445
0.37390999963905547,-0.1585004715400039
0.3174208938499205,-0.21024977612334056
0.22962457280415655,-0.2636957792176063
0.16632955065488483,-0.32477692561105287
0.122091094313996,-0.36973943615067323
0.04382305617242345,-0.40961185115750637
-0.022194332520902953,-0.448635916908875
-0.03308379869712175,-0.5046269677695343
-0.022194332520902953,-0.554679573841942
-0.08344757976213364,-0.5996420843815623
-0.20187052442851297,-0.6335760546001438
-0.2883056622022496,-0.676841866628835
-0.27401323784596243,-0.71332088461381
-0.22909418986905994,-0.7447098070659979
-0.23794188113723772,-0.7659185384526113
-0.3073622280106325,-0.793914063882941
-0.3461559512634119,-0.8185161922914125
-0.34003062653928884,-0.8465117177217422
-0.3461559512634119,-0.8719621953856782
-0.39992269050849216,-0.903351117837866
-0.4176180730448477,-0.9245598492244794
-0.3761019832480136,-0.939830135822841
-0.3461559512634119,-0.95085867614388
-0.3897138159682871,-0.976309153807816
-0.4176180730448477,-1.003456329982681
-0.38018553306409564,-1.03314855392394
-0.3461559512634119,-1.056902333076947
-0.3972003239644375,-1.0865945570182056
-0.45368942975357246,-1.109499986915748
-0.44620292175742204,-1.1264669720250389
-0.4176180730448477,-1.1357988138351487
-0.4427999635773537,-1.1578558944772266
-0.45368942975357246,-1.18839646767395
-0.40060328214450586,-1.2223304378925313
-0.3461559512634119,-1.2418424707682156
-0.37406020833997256,-1.2554160588556482
-0.4176180730448477,-1.2681412976876163
-0.40808979014065627,-1.2935917753515522
-0.38154671633612297,-1.3207389515264174
-0.41489570650079305,-1.3427960321684953
-0.45368942975357246,-1.347037778445818
-0.4448417384853947,-1.347037778445818
-0.4176180730448477,-1.347037778445818
-0.4359940472172169,-1.3597630172777861
-0.45368942975357246,-1.3733366053652187
-0.4373552304892443,-1.3894552412190448
-0.4176180730448477,-1.4004837815400837
-0.4339522723091759,-1.4149057188829808
-0.4176180730448477,-1.4267826084594843
-0.34207240144732987,-1.4412045458023814
-0.27401323784596243,-1.453081435378885
-0.2862638872942086,-1.4683517219772466
-0.3100845945546872,-1.4793802622982857
-0.2726520545739351,-1.492953850385718
-0.20187052442851297,-1.5056790892176861
-0.19642579134040358,-1.5234944235824415
-0.23794188113723772,-1.5319779161370868
-0.24202543095331974,-1.537068011669874
-0.16579916771978823,-1.5319779161370868
-0.10522651211457122,-1.5268878206042995
-0.12972781101106348,-1.5056790892176861
-0.2005093411564856,-1.4802286115537502
-0.20187052442851297,-1.453081435378885
-0.1535485182715421,-1.4344177517586651
-0.16579916771978823,-1.4004837815400837
-0.27537442111798976,-1.3521278739786053
-0.3461559512634119,-1.2944401246070167
-0.3148487360067829,-1.2460842170455384
-0.27401323784596243,-1.18839646767395
-0.31552932764279656,-1.1256186227695744
-0.3461559512634119,-1.056902333076947
-0.2855832956581949,-0.9975178851944294
-0.20187052442851297,-0.9245598492244794
-0.19642579134040358,-0.8363315266561677
-0.20187052442851297,-0.7396197115332107
-0.15014556009147373,-0.6607232307750088
-0.09433704593835243,-0.5809784007613426
-0.11407420338274898,-0.4944467767039599
-0.12972781101106348,-0.39603826307007384
-0.07800284667402424,-0.3120516867790848
-0.022194332520902953,-0.2373969522982057
-0.05486273104955932,-0.172922408882901
-0.09433704593835243,-0.10505446844573817
-0.04873740632543625,-0.04397332205229161
0.04994838089654652,0.026439666151264828
0.10167334523358576,0.09430760658842766
0.122091094313996,0.15878215000373236
0.1302581939461601,0.2079864068206754
0.08601973760527126,0.2648258069367993
-0.04601503978138156,0.3208168577974586
-0.16579916771978823,0.3700211146144017
-0.22841359823304627,0.3954715922783377
-0.27401323784596243,0.4234671177086674
-0.3516006843515213,0.4590977864381779
-0.3461559512634119,0.5023635984668692
-0.22569123168899158,0.5295107746417343
-0.09433704593835243,0.5549612523056704
-0.07800284667402424,0.5804117299696064
-0.09433704593835243,0.6084072553999361
-0.06302983068172341,0.6202841449764396
-0.022194332520902953,0.6347060823193368
-0.052140364505504626,0.6482796704067693
-0.09433704593835243,0.6610049092387373
-0.12496366955896777,0.6508247181731629
-0.23794188113723772,0.6347060823193368
-0.48635782828222884,0.6168907479545815
-0.6694369783699072,0.6084072553999361
-0.5394439758912954,0.5846534762469291
0.013877024187821782,0.5549612523056704
0.9667053146069658,0.5142404880433727
2.244856407040646,0.4760647715474686
3.551592348186901,0.42431546696413197
4.439764433184746,0.3700211146144017
4.671846181065408,0.3106366667318842
4.439764433184746,0.2648258069367993
4.006908152680049,0.22240834416357252
3.432488811884508,0.18508097692313297
2.7144646358900815,0.13502837085072536
2.0291088584243115,0.07988566924553056
1.4996085656056728,0.012017728808367725
1.0211526454880597,-0.05245681460693697
0.448094487964546,-0.12202145355502887
-0.09433704593835243,-0.1847992984594045
-0.39515854905639647,-0.25266723889656734
-0.45368942975357246,-0.317141782311872
-0.48635782828222884,-0.38755477051542847
-0.5979748565884714,-0.448635916908875
-0.7170783928908644,-0.507172015535928
-0.7415796917873567,-0.554679573841942
-0.7102724765307277,-0.6072772276807431
-0.705508335078632,-0.6598748815195443
-0.7531497495995891,-0.7192593294020618
-0.7776510484960815,-0.7659185384526113
-0.7647198074118217,-0.8091843504813026
-0.7415796917873567,-0.844815019210813
-0.7545109328716165,-0.8880808312395043
-0.7415796917873567,-0.9245598492244794
-0.6987024187184953,-0.9576454701875963
-0.6694369783699072,-0.9771575030632806
-0.709591884894714,-1.001759631471752
-0.7415796917873567,-1.0306035061575463
-0.7184395761628918,-1.0636891271206632
-0.6694369783699072,-1.0832011599963476
-0.6558251456496337,-1.0959263988283154
-0.6340462132971961,-1.109499986915748
-0.5857242071402252,-1.1374955123460777
-0.5619034998797466,-1.1620976407545494
-0.6061419562206355,-1.1799129751193045
-0.6340462132971961,-1.18839646767395
-0.5898077569563073,-1.2113018975714924
-0.5258321431710219,-1.2418424707682156
-0.5210680017189262,-1.2749280917313326
-0.5258321431710219,-1.2944401246070167
-0.49316374464236556,-1.3088620619499138
-0.45368942975357246,-1.3207389515264174
-0.4707042206539143,-1.3444927306794245
-0.4897607864622972,-1.3733366053652187
-0.45368942975357246,-1.405573877072871
-0.38154671633612297,-1.4267826084594843
-0.3516006843515213,-1.4412045458023814
-0.3461559512634119,-1.453081435378885
-0.325057610546988,-1.476835214531892
-0.27401323784596243,-1.5056790892176861
-0.2270524149610189,-1.537068011669874
-0.16579916771978823,-1.5582767430564874
-0.08140580485409261,-1.575243728165778
0.013877024187821782,-1.5854239192313524
0.07717204633709349,-1.5981491580633205
0.122091094313996,-1.611722746150753
0.1670101422908985,-1.6269930327491147
0.22962457280415655,-1.6380215730701537
0.2942807782254556,-1.6507468119021218
0.37390999963905547,-1.6643203999895544
0.4630675039568468,-1.681287385098845
0.5535861915466656,-1.6906192269089548
0.6073529307917458,-1.7007994179745294
0.6257289049641149,-1.7169180538283555
0.6230065384200603,-1.7457619285141497
0.6257289049641149,-1.770364056922621
0.6080335224277594,-1.7864826927764474
0.5535861915466656,-1.7966628838420218
0.46987342031698354,-1.8102364719294544
0.4099813563477802,-1.8229617107614224
0.3657429000068914,-1.8356869495933905
0.30176728622160603,-1.849260537680823
0.20784564045171897,-1.8670758720455782
0.15816245102272072,-1.8755593646002235
0.16292659247481645,-1.8755593646002235
0.15816245102272072,-1.8755593646002235
0.08601973760527126,-1.8891329526876561
0.013877024187821782,-1.9018581915196242
-0.012666049616711514,-1.906099937796947
-0.022194332520902953,-1.9018581915196242
-0.05622391432158667,-1.909493334818805
-0.058265689229627694,-1.9281570184390249
-0.02287492415691663,-1.9493657498256383
-0.022194332520902953,-1.95530419461389
-0.10454592047855754,-1.9536074961029608
-0.16579916771978823,-1.95530419461389
-0.15150674336350106,-1.968029433445858
-0.12972781101106348,-1.9816030215332905
-0.1848557335281711,-1.9943282603652586
-0.23794188113723772,-2.007901848452691
-0.22501064005297788,-2.0248688335619818
-0.20187052442851297,-2.034200675372092
-0.264484954941771,-2.0350490246275563
-0.3461559512634119,-2.034200675372092
-0.3454753596273982,-2.0460775649485954
-0.27401323784596243,-2.0604995022914925
-0.264484954941771,-2.0672862963352086
-0.3461559512634119,-2.0604995022914925
-0.42034043958890244,-2.0562577560141695
-0.38154671633612297,-2.0604995022914925
-0.29511157856238635,-2.0672862963352086
-0.27401323784596243,-2.0604995022914925
-0.3332247101791521,-2.045229215693131
-0.3461559512634119,-2.034200675372092
-0.28286092911414024,-2.035897373883021
-0.23794188113723772,-2.034200675372092
-0.2808191542060992,-2.0231721350510528
-0.3100845945546872,-2.007901848452691
-0.26924909639386674,-2.004508451430833
-0.23794188113723772,-2.007901848452691
-0.2991951283784684,-2.011295245474549
-0.3461559512634119,-2.007901848452691
-0.29034743711029065,-2.007901848452691
-0.20187052442851297,-2.007901848452691
-0.20255111606452664,-2.00959854696362
-0.23794188113723772,-2.007901848452691
-0.21752413205682747,-2.00959854696362
-0.16579916771978823,-2.007901848452691
-0.17532745062397967,-2.0011150544089746
-0.20187052442851297,-1.9816030215332905
-0.18689750843621214,-1.9646360364239999
-0.12972781101106348,-1.95530419461389
-0.10931006193065326,-1.9510624483365673
-0.09433704593835243,-1.9281570184390249
-0.07323870522192853,-1.8925263497095144
-0.058265689229627694,-1.849260537680823
-0.08616994630618834,-1.8153265674622416
-0.09433704593835243,-1.770364056922621
-0.06098805577368239,-1.7109796090401037
-0.022194332520902953,-1.6380215730701537
-0.04057030669327216,-1.573547029654849
-0.09433704593835243,-1.5056790892176861
-0.18281395862013008,-1.4259342592040198
-0.3461559512634119,-1.3207389515264174
-0.5761959242360338,-1.2146952945933505
-0.6694369783699072,-1.109499986915748
-0.36589310870780845,-1.0102431240263974
0.44605271305650496,-0.8982610223050788
1.5914884364675188,-0.7820371743064375
2.78456557439949,-0.6598748815195443
3.778229362979454,-0.5453477320318321
4.439764433184746,-0.4223370899894744
4.669804406157367,-0.3027198449689749
4.439764433184746,-0.1847992984594045
3.8483303014888626,-0.0821490385481957
3.1445985498507234,0.026439666151264828
2.5204960196261843,0.14096681563897712
1.9930375017155866,0.2648258069367993
1.432229993640319,0.3734145116362598
0.805405096871725,0.4760647715474686
0.2228186564440198,0.5676864911376385
-0.16579916771978823,0.6610049092387373
-0.3590871923476717,0.7407497392524036
-0.45368942975357246,0.8196462200106055
-0.5408051591633227,0.8858174619368392
-0.5979748565884714,0.9511403546076085
-0.5966136733164441,1.0096764532346614
-0.5619034998797466,1.0834828384600759
-0.5823212489601569,1.1615309699628131
-0.6694369783699072,1.2421241492319441
-0.7538303412356028,1.2981152000926035
-0.7415796917873567,1.348167806165011
-0.6864517692702491,1.3931303167046314
-0.6694369783699072,1.4533631138426135
-0.7245649008870149,1.5068091169368791
-0.7415796917873567,1.5594067707756805
-0.7027859685345772,1.5975824872715845
-0.6694369783699072,1.6383032515338822
-0.709591884894714,1.666298776964212
-0.7415796917873567,1.6917492546281478
-0.7157172096188371,1.7002327471827932
-0.6694369783699072,1.7180480815475485
-0.6721593449139619,1.7307733203795166
-0.6694369783699072,1.7443469084669492
-0.6299626634811141,1.7333183681459101
-0.5979748565884714,1.7180480815475485
-0.625879113665032,1.6959910009054706
-0.6340462132971961,1.6917492546281478
-0.5680288246038697,1.680720714307109
-0.4897607864622972,1.6646020784532827
-0.49384433627837926,1.6255780127019142
-0.5258321431710219,1.585705597695081
-0.5115397188147348,1.5407430871554606
-0.45368942975357246,1.5059607676814146
-0.4176180730448477,1.4567565108644716
-0.38154671633612297,1.4007654600038122
-0.32709938545502903,1.3286557732893267
-0.27401323784596243,1.2684229761513448
-0.2617625883977163,1.2098868775242917
-0.23794188113723772,1.1632276684737424
-0.1719244924439113,1.0996014743139022
-0.09433704593835243,1.0308851846212748
-0.058265689229627694,0.9545337516294666
-0.022194332520902953,0.8985427007688073
0.05471252234864224,0.8450966976745415
0.15816245102272072,0.7933473930912048
0.23438871425625227,0.7212377063767194
0.30176728622160603,0.6610049092387373
0.37527118291108286,0.6109523031663298
