ECG,PPG
-0.08699211953229652,-1.451590311494277
-0.06622514659813832,-1.1240167999757122
-0.006890938214829143,-1.4190964242927036
-0.01430771426274279,-1.5517066126018277
-0.04694152887356283,-1.3532304367219465
-0.01430771426274279,-1.2320370195917538
0.07172688789305551,-1.319858336352763
0.1280943858571992,-1.3839678975882999
0.15034471400094016,-1.319858336352763
0.19484537028842203,-1.282095170145529
0.2690131307675585,-1.319858336352763
0.32389727352211944,-1.3462047313810659
0.34763095687544315,-1.319858336352763
0.38471483711501137,-1.3093197783414419
0.4662993736420615,-1.319858336352763
0.5716175935224352,-1.3154672705147126
0.6635856165165644,-1.2873644491511895
0.7184697592711254,-1.2777041043074786
0.7422034426244492,-1.2873644491511895
0.7496202186723627,-1.2979030071625106
0.7422034426244492,-1.2873644491511895
0.7021528519657154,-1.2706783989665977
0.6235350258578307,-1.254870561949616
0.534533713282867,-1.2575052014524464
0.4662993736420615,-1.254870561949616
0.4158652965162487,-1.2434537907706849
0.34763095687544315,-1.2214984615804325
0.2512128682525657,-1.2171073957423821
0.15034471400094016,-1.2214984615804325
0.06876017747389004,-1.2311588064241437
-0.006890938214829143,-1.2214984615804325
-0.09292554037062743,-1.207447050898671
-0.16560994564018117,-1.189004574378859
-0.19676040504141848,-1.187248148043639
-0.20417718108933214,-1.189004574378859
-0.2279108644426558,-1.1951520665521298
-0.2827950071972168,-1.189004574378859
-0.35102934683802234,-1.1881263612112491
-0.4014634239638351,-1.189004574378859
-0.41926368647882784,-1.1986649192225702
-0.4014634239638351,-1.189004574378859
-0.37179631977218053,-1.1731967373618775
-0.36289618851468414,-1.1556324740096755
-0.37179631977218053,-1.160023539847726
-0.36289618851468414,-1.1556324740096755
-0.32432895306553317,-1.1380682106574738
-0.2827950071972168,-1.0906446996065287
-0.264994744682224,-1.0432211885555835
-0.24422777174806581,-0.9914066116665882
-0.21456066755641123,-0.9483741664536935
-0.20417718108933214,-0.8930467368942576
-0.25609461342472767,-0.8377193073348218
-0.32284559785595046,-0.7621929749203538
-0.34212921558052595,-0.6840320030030554
-0.2827950071972168,-0.5970888994096561
-0.20417718108933214,-0.5224407801627983
-0.16560994564018117,-0.4328630370665687
-0.177476787316843,-0.3406506544675089
-0.20417718108933214,-0.23614328752190777
-0.21456066755641123,-0.14217447858762777
-0.20417718108933214,-0.03942353797724685
-0.17006001126892936,0.058936336795083616
-0.08699211953229652,0.15817442473502416
0.0969439264559619,0.23809182298754267
0.4262487829833278,0.32240028707811164
0.9469064615468658,0.4023176853306301
1.6885840663382303,0.4866261494211991
2.6334813348424286,0.5507357106567359
3.6599631398736774,0.6183581245627131
4.538109423946653,0.6807112594630298
5.0009162493364645,0.7492118865366171
4.8926313190369255,0.7983918239227823
4.251821868497187,0.8484499744765576
3.3128580208313188,0.8923606328570622
2.359060621069624,0.9468098492488881
1.5624988735236984,0.9810601627856818
0.9394896854989521,1.0126758368196451
0.46036595280373055,1.0355093791775074
0.11029412334220647,1.077663611222792
-0.11962593414311656,1.1127921379271957
-0.2827950071972168,1.143529598793549
-0.41926368647882784,1.15318994363726
-0.5201318407304535,1.1769016991627326
-0.5705659178562662,1.2032480941910353
-0.5987496668383381,1.2418894735658794
-0.6284167710299927,1.2594537369180814
-0.6388002574970718,1.275261573935063
-0.6150665741437481,1.2831654924435538
-0.5987496668383381,1.3077554611366364
-0.6417669679162372,1.3226850849860081
-0.7174180836049564,1.34112756150582
-0.7886191336649274,1.3490314800143108
-0.8360865003715747,1.3736214487073934
-0.873170380611143,1.3903074988919852
-0.8746537358207257,1.4061153359089669
-0.8301530795332438,1.4008460569033063
-0.7559853190541074,1.4061153359089669
-0.6892343346228845,1.4148974675850678
-0.6388002574970718,1.4394874362781505
-0.6150665741437481,1.443000288948591
-0.6388002574970718,1.4394874362781505
-0.6833009137845537,1.416653893920288
-0.6773674929462228,1.4061153359089669
-0.5794660491137626,1.3973332042328659
-0.4415140146225688,1.4061153359089669
-0.3450959259996914,1.4061153359089669
-0.32284559785595046,1.4061153359089669
-0.3480626364188569,1.3867946462215448
-0.4014634239638351,1.3736214487073934
-0.4667310531854752,1.3543007590199714
-0.5201318407304535,1.34112756150582
-0.5349653928262808,1.3077554611366364
-0.5201318407304535,1.275261573935063
-0.5082649990537916,1.2339855550573886
-0.5201318407304535,1.209395586364306
-0.533482037616698,1.1760234859951224
-0.5201318407304535,1.143529598793549
-0.47859789486213705,1.0917150219045535
-0.4415140146225688,1.0451697240212185
-0.4311305281554897,0.9898422944617826
-0.4415140146225688,0.9468098492488881
-0.4370639489938206,0.8932388460246724
-0.4014634239638351,0.8484499744765576
-0.34212921558052595,0.7931225449171218
-0.2827950071972168,0.7492118865366171
-0.24719448216723128,0.6973973096476215
-0.24422777174806581,0.6508520117642865
-0.26202803426305854,0.5858642373611397
-0.2827950071972168,0.5191200366227726
-0.2991119145026268,0.4435937042083045
-0.32284559785595046,0.38826627464886865
-0.36141283330510143,0.33469527142465294
-0.4014634239638351,0.28990639987653816
-0.4266804625267415,0.2231621991381711
-0.4415140146225688,0.15817442473502416
-0.44893079067048247,0.09494307666709745
-0.4415140146225688,0.059814549962693704
-0.40888020001174874,0.025564236425900062
-0.36289618851468414,-0.0060514376080633
-0.3183955322272023,-0.058744227664668906
-0.2827950071972168,-0.10441131238039376
-0.24571112695764855,-0.14832197076089843
-0.20417718108933214,-0.17027729995115076
-0.17302672168809483,-0.1922326291414031
-0.16560994564018117,-0.20364940032033432
-0.17302672168809483,-0.2229700900077564
-0.16560994564018117,-0.23614328752190777
-0.11220915809520292,-0.2580986167121601
-0.006890938214829143,-0.26863717472348125
0.12957774106678194,-0.2870796512432932
0.2690131307675585,-0.3020092750926648
0.38619819232459407,-0.3265992437857474
0.4662993736420615,-0.33450316229423827
0.4840996361570542,-0.3380160149646786
0.4262487829833278,-0.33450316229423827
0.32241391831253674,-0.35118921247883
0.2289625401088248,-0.3678752626634218
0.1889119494500911,-0.3880741655184539
0.19039530465967383,-0.4003691498649952
0.20671221196508385,-0.42232447905524756
0.2289625401088248,-0.4328630370665687
0.25714628909089665,-0.43988874240744946
0.2690131307675585,-0.4328630370665687
0.2437960922046521,-0.44515802141311
0.19039530465967383,-0.46623513743575223
0.13847787232427833,-0.49521617196688533
0.11029412334220647,-0.4987290246373257
0.10584405771345827,-0.4978508114697156
0.11029412334220647,-0.4987290246373257
0.12364432022845102,-0.520684353827578
0.15034471400094016,-0.5321011250065093
0.20077879112675295,-0.5347357645093396
0.2690131307675585,-0.5321011250065093
0.32983069436045037,-0.5505436015263212
0.34763095687544315,-0.5645950122080827
0.3060970110071267,-0.5724989307165735
0.2289625401088248,-0.5645950122080827
0.16517826609676745,-0.567229651710913
0.15034471400094016,-0.5645950122080827
0.18149517340217747,-0.5654732253756928
0.2289625401088248,-0.5645950122080827
0.2645630651388103,-0.5839157018955048
0.2690131307675585,-0.5970888994096561
0.22154576406091114,-0.604992817918147
0.11029412334220647,-0.5970888994096561
-0.039524752825649184,-0.6006017520800966
-0.16560994564018117,-0.5970888994096561
-0.2175273779755767,-0.5979671125772663
-0.20417718108933214,-0.5970888994096561
-0.177476787316843,-0.6172878022646883
-0.16560994564018117,-0.6304609997788397
-0.14484297270602295,-0.6374867051197205
-0.08699211953229652,-0.6304609997788397
0.0005258378330845027,-0.63309563928167
0.07172688789305551,-0.6304609997788397
0.11326083376137192,-0.63221742611406
0.15034471400094016,-0.6304609997788397
0.1874285942405084,-0.6480252631310416
0.19039530465967383,-0.6629548869804132
0.1280943858571992,-0.6743716581593444
0.03167629723432182,-0.6629548869804132
-0.04249146324481464,-0.651538115801482
-0.08699211953229652,-0.6304609997788397
-0.12407599977186475,-0.6164095890970782
-0.16560994564018117,-0.5970888994096561
-0.18637691857433938,-0.5874285545659451
-0.16560994564018117,-0.5645950122080827
-0.10775909246645472,-0.5391268303473901
-0.04694152887356283,-0.4987290246373257
-0.011341003843577332,-0.46886977693858256
-0.006890938214829143,-0.4328630370665687
-0.01430771426274279,-0.3968562971945549
-0.006890938214829143,-0.33450316229423827
0.00497590346183269,-0.2695153878910913
-0.006890938214829143,-0.20364940032033432
-0.04990823929272829,-0.15886052877221957
-0.08699211953229652,-0.10441131238039376
-0.08254205390354834,-0.04557103015051751
-0.04694152887356283,0.026442449593510158
-0.01282435905316006,0.07913523965011576
-0.006890938214829143,0.1256805375334507
-0.03359133198731827,0.16520013007590492
-0.08699211953229652,0.22404041230578117
-0.1522597487539366,0.2749767760271666
-0.20417718108933214,0.32240028707811164
-0.21159395713724577,0.3505031084416346
-0.16560994564018117,0.38826627464886865
-0.08550876432271379,0.4207601618504421
-0.006890938214829143,0.45413226221962566
0.04799320453973184,0.46642724656616696
0.07172688789305551,0.4866261494211991
0.055409980587645485,0.5112161181142817
-0.006890938214829143,0.5524921369919561
-0.0958922507897929,0.5753256793498186
-0.16560994564018117,0.5849860241935295
-0.18341020815517392,0.5770821056850387
-0.16560994564018117,0.5849860241935295
-0.1314927758197784,0.5972810085400709
-0.08699211953229652,0.6183581245627131
-0.035074687196900996,0.6201145508979333
-0.006890938214829143,0.6183581245627131
-0.029141266358570082,0.5999156480429012
-0.08699211953229652,0.5849860241935295
-0.14039290707727478,0.5612742686680571
-0.16560994564018117,0.5524921369919561
-0.15819316959226754,0.5375625131425845
-0.1255593549814475,0.5191200366227726
-0.06919185701730377,0.48047865724792843
-0.006890938214829143,0.45413226221962566
0.02277616597682544,0.4321769330293733
-0.006890938214829143,0.4207601618504421
-0.08699211953229652,0.38826627464886865
-0.16560994564018117,0.3548941742796851
-0.19379369462225302,0.3171310080724511
-0.16560994564018117,0.28990639987653816
-0.11517586851436838,0.2521432336693042
-0.08699211953229652,0.22404041230578117
-0.08550876432271379,0.19066831193659764
-0.08699211953229652,0.15817442473502416
-0.060291725759807395,0.10460342151080847
-0.006890938214829143,0.059814549962693704
0.04502649412056638,0.018538531085019315
0.07172688789305551,-0.0060514376080633
0.07172688789305551,-0.04205817748007713
0.07172688789305551,-0.07191742517882031
0.09546057124637918,-0.10792416505083413
0.15034471400094016,-0.1377834127495773
0.21561234322258024,-0.1781812184596416
0.2690131307675585,-0.20364940032033432
0.3090637214262922,-0.2229700900077564
0.34763095687544315,-0.23614328752190777
0.38323148190542866,-0.2703936010587014
0.38768154753417683,-0.3020092750926648
0.33279740477961584,-0.3283556701209676
0.2289625401088248,-0.33450316229423827
0.11771089939012011,-0.3503109993112199
0.03167629723432182,-0.3678752626634218
-0.01727442468190825,-0.3924652313565044
-0.04694152887356283,-0.4003691498649952
-0.05732501534064194,-0.4056384288706558
-0.04694152887356283,-0.4003691498649952
-0.020241135101073705,-0.41354234737914664
-0.006890938214829143,-0.4328630370665687
-0.03210797677773554,-0.4618440715977018
-0.08699211953229652,-0.46623513743575223
-0.14929303833477114,-0.4653569242681422
-0.20417718108933214,-0.46623513743575223
-0.25609461342472767,-0.4890686797936147
-0.2827950071972168,-0.4987290246373257
-0.303561980131375,-0.5004854509725459
-0.32284559785595046,-0.4987290246373257
-0.35102934683802234,-0.519806140659968
-0.36289618851468414,-0.5321011250065093
-0.3599294780955187,-0.5347357645093396
-0.36289618851468414,-0.5321011250065093
-0.37179631977218053,-0.5523000278615414
-0.36289618851468414,-0.5645950122080827
-0.3302623739038641,-0.568107864878523
-0.32284559785595046,-0.5645950122080827
-0.3554794124667705,-0.5847939150631148
-0.36289618851468414,-0.5970888994096561
-0.23384428528098672,-0.6014799652477066
0.11029412334220647,-0.5970888994096561
0.7451701530436146,-0.6172878022646883
1.7271513017873812,-0.6304609997788397
3.026570465381852,-0.6348520656168902
4.409057520712956,-0.6304609997788397
5.500806954965844,-0.6489034762986516
5.947296873050246,-0.6629548869804132
5.615025306103715,-0.6691023791536839
4.646394354246192,-0.6629548869804132
3.389992491729621,-0.679640937165005
2.2018249688538547,-0.6963269873495967
1.2806613837029799,-0.7051091190256976
0.6235350258578307,-0.6963269873495967
0.1473780035817747,-0.7059873321933078
-0.20417718108933214,-0.7288208745511702
-0.445964080251317,-0.7586801222499133
-0.5987496668383381,-0.7621929749203538
-0.6951677554612155,-0.7595583354175235
-0.7559853190541074,-0.7621929749203538
-0.7871357784553447,-0.7841483041106061
-0.7960359097128411,-0.7946868621219272
-0.7841690680361793,-0.7973215016247575
-0.7559853190541074,-0.7946868621219272
-0.7248348596528701,-0.812251125474129
-0.7174180836049564,-0.8271807493235006
-0.7604353846828555,-0.8350846678319915
-0.8360865003715747,-0.8271807493235006
-0.9132209712698767,-0.8385975205024319
-0.9532715619286104,-0.8605528496926842
-0.954754917138193,-0.8877774578885971
-0.9147043264794594,-0.8930467368942576
-0.8538867628865675,-0.8939249500618678
-0.7960359097128411,-0.8930467368942576
-0.7634020951020211,-0.9114892134140696
-0.7559853190541074,-0.9264188372634412
-0.7619187398924383,-0.9352009689395422
-0.7559853190541074,-0.9264188372634412
-0.7159347283953738,-0.9229059845930009
-0.6388002574970718,-0.9264188372634412
-0.566115852227518,-0.9466177401184733
-0.5601824313891871,-0.9589127244650146
-0.62693341582041,-0.9659384298058954
-0.7174180836049564,-0.9589127244650146
-0.7752689367786829,-0.9589127244650146
-0.7960359097128411,-0.9589127244650146
-0.7901024888745102,-0.9650602166382853
-0.7559853190541074,-0.9589127244650146
-0.6936844002516328,-0.9571562981297945
-0.6388002574970718,-0.9589127244650146
-0.620999994982079,-0.9782334141524367
-0.6388002574970718,-0.9914066116665882
-0.6491837439641509,-1.000188743342689
-0.6388002574970718,-0.9914066116665882
-0.6165499293533309,-0.989650185331368
-0.5987496668383381,-0.9914066116665882
-0.5809494043233453,-1.0098490881864002
-0.5601824313891871,-1.0247787120357716
-0.533482037616698,-1.0344390568794828
-0.5201318407304535,-1.0247787120357716
-0.517165130311288,-1.019509433030111
-0.5201318407304535,-1.0247787120357716
-0.5186484855208707,-1.0476122543936341
-0.5201318407304535,-1.057272599237345
-0.5216151959400361,-1.0590290255725654
-0.5201318407304535,-1.057272599237345
-0.5052982886346261,-1.0765932889247671
-0.48008125007171976,-1.0906446996065287
-0.4474474354608997,-1.0959139786121892
-0.4014634239638351,-1.0906446996065287
-0.3406458603709432,-1.1046961102882902
-0.2827950071972168,-1.123138586808102
-0.24719448216723128,-1.1354335711546435
-0.24422777174806581,-1.123138586808102
-0.2827950071972168,-1.1161128814672214
-0.36289618851468414,-1.123138586808102
-0.4563475667183961,-1.1477285555011847
-0.5201318407304535,-1.1556324740096755
-0.533482037616698,-1.1565106871772857
-0.5201318407304535,-1.1556324740096755
-0.5052982886346261,-1.1749531636970976
-0.48008125007171976,-1.189004574378859
-0.4281638177363242,-1.1933956402169097
-0.36289618851468414,-1.189004574378859
-0.3109787561792886,-1.2030559850606206
-0.2827950071972168,-1.2214984615804325
-0.26647809989180676,-1.233793445926974
-0.24422777174806581,-1.2214984615804325
-0.21159395713724577,-1.215350969407162
-0.16560994564018117,-1.2214984615804325
-0.106275737256872,-1.2452102171059052
-0.04694152887356283,-1.254870561949616
0.010909324300163607,-1.2557487751172263
0.07172688789305551,-1.254870561949616
0.14589464837219196,-1.272434825301818
0.2289625401088248,-1.2873644491511895
0.31351378705504035,-1.2952683676596803
0.38768154753417683,-1.2873644491511895
0.44108233507915506,-1.2873644491511895
0.4662993736420615,-1.2873644491511895
0.4677827288516442,-1.2917555149892401
0.4662993736420615,-1.2873644491511895
0.46926608406122694,-1.2891208754864099
0.4662993736420615,-1.2873644491511895
0.4484991111270687,-1.29087730182163
0.4262487829833278,-1.2873644491511895
0.408448520468335,-1.2899990886540198
0.38768154753417683,-1.2873644491511895
0.3505976672946086,-1.2899990886540198
0.3075803662167094,-1.2873644491511895
0.2793966172346376,-1.29087730182163
0.2690131307675585,-1.2873644491511895
0.2704964859771412,-1.2882426623187997
0.2690131307675585,-1.2873644491511895
0.24527944741423482,-1.2935119413244602
0.19039530465967383,-1.2873644491511895
0.11919425459970284,-1.2847298096483593
0.07172688789305551,-1.2873644491511895
0.06431011184514186,-1.3093197783414419
0.07172688789305551,-1.319858336352763
0.07172688789305551,-1.3242494021908136
0.07172688789305551,-1.319858336352763
0.08804379519846553,-1.327762254861254
0.11029412334220647,-1.319858336352763
0.11919425459970284,-1.3058069256710017
0.11029412334220647,-1.2873644491511895
0.08359372956971733,-1.2917555149892401
0.03167629723432182,-1.2873644491511895
-0.03655804240648373,-1.2662873331285474
-0.08699211953229652,-1.2214984615804325
-0.09737560599937563,-1.189004574378859
-0.08699211953229652,-1.1556324740096755
-0.08254205390354834,-1.1187475209700517
-0.08699211953229652,-1.057272599237345
-0.08699211953229652,-0.9957976775046385
-0.08699211953229652,-0.9264188372634412
-0.08995882995146198,-0.8552835706870237
-0.08699211953229652,-0.7621929749203538
-0.05732501534064194,-0.6664677396508536
-0.006890938214829143,-0.5645950122080827
0.030192942024739086,-0.4741390559442431
0.03167629723432182,-0.3678752626634218
0.009425969090580877,-0.25722040354455
-0.006890938214829143,-0.1377834127495773
-0.008374293424411873,-0.03854532480963676
-0.006890938214829143,0.059814549962693704
-0.011341003843577332,0.1520269325617535
-0.006890938214829143,0.2565342995073546
0.013876034719329066,0.344355616268364
0.03167629723432182,0.4207601618504421
0.02277616597682544,0.47872223091270827
-0.006890938214829143,0.5524921369919561
-0.03359133198731827,0.6306531089092544
-0.04694152887356283,0.7167179993350435
-0.05880837055022466,0.7817057737381905
-0.08699211953229652,0.8484499744765576
-0.1255593549814475,0.9072902567064338
-0.16560994564018117,0.9793037364504615
-0.19082698420308755,1.0425350845183883
-0.20417718108933214,1.1110357115919756
-0.21901073318515943,1.162850288480971
-0.24422777174806581,1.209395586364306
-0.2724115207301377,1.2357419813926087
-0.2827950071972168,1.275261573935063
-0.25906132384389313,1.3182940191479575
-0.20417718108933214,1.3736214487073934
-0.1418762622868575,1.406993549076577
-0.08699211953229652,1.4394874362781505
-0.03210797677773554,1.4649556181388432
0.03167629723432182,1.5053534238489075
0.08062701915055188,1.5264305398715496
0.07172688789305551,1.537847311050481
0.0005258378330845027,1.52906517937438
-0.08699211953229652,1.537847311050481
-0.14039290707727478,1.5492640822294121
-0.16560994564018117,1.5712194114196645
-0.17599343210726026,1.5694629850844444
-0.16560994564018117,1.5712194114196645
-0.10479238204728927,1.5641937060787838
-0.006890938214829143,1.5712194114196645
0.08804379519846553,1.565950132414004
0.15034471400094016,1.5712194114196645
0.20226214633633569,1.565950132414004
0.2690131307675585,1.5712194114196645
0.3446642464562777,1.5633154929111737
0.38768154753417683,1.5712194114196645
0.38323148190542866,1.5703411982520543
0.34763095687544315,1.5712194114196645
0.2897801037017167,1.548385869061802
0.19039530465967383,1.537847311050481
0.05689333579722821,1.5308216057096002
-0.04694152887356283,1.537847311050481
-0.07215856743646923,1.5220394740334993
-0.04694152887356283,1.5053534238489075
-0.041008108035231916,1.4798852419882147
-0.08699211953229652,1.4719813234797239
-0.15077639354435388,1.4544170601275221
-0.20417718108933214,1.4394874362781505
-0.25609461342472767,1.4043589095737468
-0.32284559785595046,1.3736214487073934
-0.3999800687542524,1.332345429829719
-0.4415140146225688,1.3077554611366364
-0.4504141458800652,1.275261573935063
-0.4415140146225688,1.2418894735658794
-0.44448072504173425,1.1865620440064435
-0.4415140146225688,1.143529598793549
-0.43409723857465515,1.1040100062510947
-0.4415140146225688,1.077663611222792
-0.45931427713756157,1.0302401001718469
-0.4415140146225688,0.9793037364504615
-0.3762463854009287,0.9187070278853651
-0.32284559785595046,0.8809438616781311
-0.31246211138887137,0.8510846139793878
-0.2827950071972168,0.8484499744765576
-0.1715433664785121,0.8449371218061172
0.03167629723432182,0.8484499744765576
0.375814705857515,0.8308857111243557
0.978056920948103,0.8150778741073741
1.8947704404702297,0.7834622000734107
3.0295371758010177,0.7492118865366171
4.244405092449273,0.6938844569771812
5.355438144426737,0.6508520117642865
6.021464633529383,0.6104542060542223
5.83011181149321,0.5849860241935295
4.754679284545731,0.5481010711539056
3.305441244783405,0.5191200366227726
2.0905733281351497,0.4839915099183688
1.2940115805892243,0.45413226221962566
0.74813686346278,0.4110998170067311
0.3075803662167094,0.38826627464886865
-0.009857648633994602,0.3689455849614466
-0.20417718108933214,0.3548941742796851
-0.33322908432302956,0.31800922124006115
-0.4415140146225688,0.28990639987653816
-0.5260652615687844,0.26707285751867577
-0.5987496668383381,0.2565342995073546
-0.6669840064791437,0.22404041230578117
-0.7174180836049564,0.19066831193659764
-0.7396684117486974,0.16168727740546454
-0.7559853190541074,0.15817442473502416
-0.7826857128265965,0.14500122722087277
-0.7960359097128411,0.1256805375334507
-0.7826857128265965,0.08616094499099651
-0.7559853190541074,0.059814549962693704
-0.7663688055211865,0.03610279443722118
-0.7960359097128411,0.026442449593510158
-0.8168028826469993,0.007999973073698196
-0.7960359097128411,-0.0060514376080633
-0.7634020951020211,-0.028006766798315635
-0.7559853190541074,-0.03942353797724685
-0.7797190024074311,-0.05786601449705881
-0.7960359097128411,-0.07191742517882031
-0.7812023576170138,-0.09387275436907264
-0.7559853190541074,-0.10441131238039376
-0.7500518982157764,-0.12373200206781582
-0.7559853190541074,-0.1377834127495773
-0.747085187796611,-0.16061695510743973
-0.7174180836049564,-0.17027729995115076
-0.6862676242037191,-0.18608513696813245
-0.6773674929462228,-0.20364940032033432
-0.69220104504205,-0.24053435335995824
-0.7174180836049564,-0.26863717472348125
-0.7292849252816183,-0.29322714341656386
-0.7174180836049564,-0.3020092750926648
-0.6892343346228845,-0.32045175161247674
-0.6773674929462228,-0.33450316229423827
-0.69220104504205,-0.3547020651492704
-0.7174180836049564,-0.3678752626634218
-0.7367017013295319,-0.388952378686064
-0.7559853190541074,-0.4003691498649952
-0.7604353846828555,-0.4179334132171971
-0.7174180836049564,-0.4328630370665687
-0.6224833501916618,-0.4583312189272614
-0.5201318407304535,-0.46623513743575223
-0.4474474354608997,-0.46799156377097245
-0.4014634239638351,-0.46623513743575223
-0.3658628989338496,-0.4855558271231743
-0.36289618851468414,-0.4987290246373257
-0.40739684480216604,-0.5048765168105963
-0.48008125007171976,-0.4987290246373257
-0.5364487480358635,-0.5127804353190872
-0.5601824313891871,-0.5321011250065093
-0.5631491418083526,-0.5549346673643717
-0.5601824313891871,-0.5645950122080827
-0.533482037616698,-0.5821592755602846
-0.48008125007171976,-0.5970888994096561
-0.41481362085007967,-0.6199224417675187
-0.36289618851468414,-0.6304609997788397
-0.32432895306553317,-0.6471470499634315
-0.2827950071972168,-0.6629548869804132
-0.22939421965223852,-0.6875448556734958
-0.16560994564018117,-0.6963269873495967
-0.08995882995146198,-0.6998398400200371
-0.006890938214829143,-0.6963269873495967
0.05244327016848002,-0.7112566111989683
0.03167629723432182,-0.7288208745511702
-0.06770850180772105,-0.7525326300766427
-0.16560994564018117,-0.7621929749203538
-0.1715433664785121,-0.7683404670936244
-0.08699211953229652,-0.7621929749203538
0.00645925867141542,-0.7604365485851335
0.03167629723432182,-0.7621929749203538
-0.01282435905316006,-0.7806354514401657
-0.08699211953229652,-0.7946868621219272
-0.14484297270602295,-0.8131293386417392
-0.16560994564018117,-0.8271807493235006
-0.13297613102936112,-0.8517707180165832
-0.04694152887356283,-0.8605528496926842
0.07321024310263824,-0.8631874891955145
0.19039530465967383,-0.8605528496926842
0.2808799724442203,-0.877238899877276
0.34763095687544315,-0.8930467368942576
0.408448520468335,-0.9123674265816797
0.4662993736420615,-0.9264188372634412
0.5137667403487088,-0.9492523796213036
0.5449171997499461,-0.9589127244650146
0.5582673966361907,-0.9615473639678449
0.5449171997499461,-0.9589127244650146
0.4989331882528815,-0.9755987746496064
0.4262487829833278,-0.9914066116665882
0.3550477329233568,-1.0019451696779091
0.3075803662167094,-0.9914066116665882
0.28681339328255123,-0.989650185331368
0.2690131307675585,-0.9914066116665882
0.233412605737573,-0.999310530175079
0.19039530465967383,-0.9914066116665882
0.1577614900488538,-0.9878937589961477
0.15034471400094016,-0.9914066116665882
0.16517826609676745,-1.0133619408568404
0.19039530465967383,-1.0247787120357716
0.20374550154591842,-1.028291564706212
0.19039530465967383,-1.0247787120357716
0.1518280692105229,-1.0405865490527533
0.11029412334220647,-1.057272599237345
0.0657934670547246,-1.0695675835838865
-0.006890938214829143,-1.057272599237345
-0.10034231641854108,-1.0520033202316845
-0.16560994564018117,-1.057272599237345
-0.17599343210726026,-1.0809843547628177
-0.16560994564018117,-1.0906446996065287
-0.16560994564018117,-1.094157552276969
-0.16560994564018117,-1.0906446996065287
-0.14484297270602295,-1.0976704049474095
-0.1255593549814475,-1.0906446996065287
-0.12852606540061293,-1.0783497152599875
-0.1255593549814475,-1.057272599237345
-0.06919185701730377,-1.0493686807288543
0.03167629723432182,-1.0247787120357716
0.1117774785517892,-0.9852591194933175
0.11029412334220647,-0.9264188372634412
0.03909307328223546,-0.8798735393801063
-0.04694152887356283,-0.8271807493235006
-0.09144218516104471,-0.7630711880879638
-0.08699211953229652,-0.6629548869804132
-0.05880837055022466,-0.5637167990404727
-0.04694152887356283,-0.46623513743575223
-0.06177508096939013,-0.3810484601775732
-0.08699211953229652,-0.26863717472348125
-0.09737560599937563,-0.14305269175523788
-0.08699211953229652,-0.0060514376080633
-0.06325843617897285,0.10899448734885894
-0.04694152887356283,0.22404041230578117
-0.03210797677773554,0.3329388450894328
-0.006890938214829143,0.45413226221962566
0.02277616597682544,0.5630306950032773
0.03167629723432182,0.6833458989658601
0.013876034719329066,0.7983918239227823
-0.006890938214829143,0.9134377488797045
-0.011341003843577332,0.9986244261378836
-0.006890938214829143,1.077663611222792
-0.008374293424411873,1.15231173046965
-0.006890938214829143,1.2418894735658794
0.0005258378330845027,1.313024740142297
-0.006890938214829143,1.3736214487073934
-0.04397481845439737,1.4140192544174577
-0.08699211953229652,1.4719813234797239
-0.10182567162812381,1.5325780320448203
-0.08699211953229652,1.603713298621238
-0.06474179138855558,1.6520150228397932
-0.04694152887356283,1.7020731733935683
-0.029141266358570082,1.7433491922712427
-0.006890938214829143,1.8004330481658988
0.012392679509746336,1.8461001328816238
0.03167629723432182,1.8996711361058394
0.06282675663555913,1.941825368151124
0.11029412334220647,1.9980310108781698
0.17111168693509837,2.044576308761505
0.2289625401088248,2.0963908856505005
0.28681339328255123,2.1280065596844637
0.34763095687544315,2.1622568732212573
0.4010317444204214,2.1850904155791198
0.4262487829833278,2.2281228607920145
0.42476542777374504,2.2606167479935877
0.4262487829833278,2.2939888483627713
0.4381156246599896,2.3036491932064824
0.4262487829833278,2.326482735564345
0.3624645089712704,2.3422905725813266
0.2690131307675585,2.358976622765918
0.1829785286117602,2.3510727042574273
0.11029412334220647,2.358976622765918
0.036126362863070006,2.3703933939448496
-0.04694152887356283,2.3923487231351017
-0.1166592237239511,2.3879576572970516
-0.16560994564018117,2.3923487231351017
-0.19082698420308755,2.390592296799882
-0.20417718108933214,2.3923487231351017
-0.2175273779755767,2.366880541274409
-0.24422777174806581,2.358976622765918
-0.27834494156846856,2.356341983263088
-0.2827950071972168,2.358976622765918
-0.2546112582151449,2.3247263092291246
-0.20417718108933214,2.2939888483627713
-0.17896014252642573,2.2676424533344686
-0.16560994564018117,2.2606167479935877
-0.14484297270602295,2.2281228607920145
-0.08699211953229652,2.194750760422831
-0.009857648633994602,2.155231167880377
0.03167629723432182,2.1288847728520737
0.003492548252249961,2.0797048354659085
-0.08699211953229652,2.0305248980797432
-0.22642750923307306,1.9725628290174773
-0.4014634239638351,1.9321650233074128
-0.5438655240837771,1.8794722332508074
-0.5601824313891871,1.8338051485350824
-0.4370639489938206,1.7767212926404263
-0.20417718108933214,1.735445273762752
0.26604642034839304,1.6836306968737564
1.175343163822606,1.6362071858228113
2.473278972207494,1.5694629850844444
3.8186821472990293,1.5053534238489075
4.984599342031054,1.4307053046020495
5.947296873050246,1.3736214487073934
6.464987841194619,1.3059990348014163
6.025914699158131,1.2418894735658794
4.5603597520903945,1.1654849279838013
2.792200342267781,1.1110357115919756
1.5402485453799575,1.05834292153537
0.8994390948402184,1.0126758368196451
0.4737161496899751,0.9424187834108376
0.07172688789305551,0.8809438616781311
-0.18786027378392212,0.8221035794482549
-0.2827950071972168,0.7825839869058006
-0.36882960935301506,0.729891196849195
-0.5201318407304535,0.6833458989658601
-0.6625339408503954,0.6297748957416444
-0.7559853190541074,0.5849860241935295
-0.8360865003715747,0.5279021682988735
-0.9147043264794594,0.4866261494211991
-0.9458547858806967,0.4471065568787449
-0.9147043264794594,0.4207601618504421
-0.8627868941440638,0.3829969956432081
-0.8360865003715747,0.3548941742796851
-0.8538867628865675,0.3215220739105015
-0.8746537358207257,0.28990639987653816
-0.8627868941440638,0.2354571834847124
-0.7960359097128411,0.19066831193659764
-0.7114846627666255,0.15027050622653332
-0.6388002574970718,0.1256805375334507
-0.5987496668383381,0.0879173713262167
-0.5987496668383381,0.059814549962693704
-0.6313834814491581,0.03522458126961109
-0.6773674929462228,0.026442449593510158
-0.7100013075570428,-0.001660371770012833
-0.7174180836049564,-0.03942353797724685
-0.7114846627666255,-0.08509062269297171
-0.7174180836049564,-0.10441131238039376
-0.7248348596528701,-0.12021914939737545
-0.7174180836049564,-0.1377834127495773
-0.6907176898324673,-0.17642479212442141
-0.6773674929462228,-0.20364940032033432
-0.6936844002516328,-0.22384830317536647
-0.7174180836049564,-0.23614328752190777
-0.7218681492337046,-0.2703936010587014
-0.7174180836049564,-0.3020092750926648
-0.7085179523474601,-0.3283556701209676
-0.6773674929462228,-0.33450316229423827
-0.6076497980958345,-0.35118921247883
-0.5201318407304535,-0.3678752626634218
-0.43558059378423786,-0.38983059185367414
-0.36289618851468414,-0.4003691498649952
-0.31246211138887137,-0.41881162638480723
-0.32284559785595046,-0.4328630370665687
-0.3955300031255042,-0.45394015308921093
-0.48008125007171976,-0.46623513743575223
-0.5305153271975326,-0.4855558271231743
-0.5601824313891871,-0.4987290246373257
-0.5868828251616762,-0.5189279274923578
-0.5987496668383381,-0.5321011250065093
-0.5690825626466836,-0.5523000278615414
-0.5201318407304535,-0.5645950122080827
-0.49046473653879885,-0.5839157018955048
-0.48008125007171976,-0.5970888994096561
-0.4667310531854752,-0.6190442285999085
-0.4415140146225688,-0.6304609997788397
-0.40888020001174874,-0.6480252631310416
-0.36289618851468414,-0.6629548869804132
-0.2887284280355477,-0.6875448556734958
-0.20417718108933214,-0.6963269873495967
-0.14335961749644022,-0.698961626852427
-0.1255593549814475,-0.6963269873495967
-0.15077639354435388,-0.7130130375341885
-0.20417718108933214,-0.7288208745511702
-0.25906132384389313,-0.7402376457301014
-0.2827950071972168,-0.7288208745511702
-0.27092816552055493,-0.7244298087131197
-0.24422777174806581,-0.7288208745511702
-0.21159395713724577,-0.7516544169090326
-0.16560994564018117,-0.7621929749203538
-0.10182567162812381,-0.7665840407584043
-0.04694152887356283,-0.7621929749203538
-0.009857648633994602,-0.7665840407584043
0.03167629723432182,-0.7621929749203538
0.11622754418053738,-0.7604365485851335
0.2289625401088248,-0.7621929749203538
0.32093056310295404,-0.7841483041106061
0.34763095687544315,-0.7946868621219272
0.3179638526837886,-0.7876611567810464
0.2690131307675585,-0.7621929749203538
0.2245124744800766,-0.755167269579473
0.19039530465967383,-0.7621929749203538
0.17259504214468108,-0.7744879592668951
0.19039530465967383,-0.7621929749203538
0.25566293388131395,-0.7446287115681519
0.34763095687544315,-0.7288208745511702
0.4262487829833278,-0.7323337272216106
0.4662993736420615,-0.7288208745511702
0.4722327944803924,-0.7279426613835601
0.4662993736420615,-0.7288208745511702
0.4529491767558169,-0.7490197774062023
0.4262487829833278,-0.7621929749203538
0.37729806106709773,-0.7665840407584043
0.3075803662167094,-0.7621929749203538
0.23044589531840753,-0.7762443856021153
0.15034471400094016,-0.7946868621219272
0.07172688789305551,-0.8157639781445695
-0.006890938214829143,-0.8271807493235006
-0.07660863306521741,-0.8473796521785328
-0.1255593549814475,-0.8605528496926842
-0.1522597487539366,-0.8763606867096658
-0.16560994564018117,-0.8930467368942576
-0.16857665605934663,-0.9281752635986614
-0.16560994564018117,-0.9589127244650146
-0.15967652480185024,-0.9835026931580972
-0.16560994564018117,-0.9914066116665882
-0.17302672168809483,-1.0080926618511798
-0.16560994564018117,-1.0247787120357716
-0.13890955186769205,-1.046734041226024
-0.1255593549814475,-1.057272599237345
-0.1522597487539366,-1.074836862589547
-0.20417718108933214,-1.0906446996065287
-0.2531279030055622,-1.112600028796781
-0.2827950071972168,-1.123138586808102
-0.2946618488738786,-1.1398246369926939
-0.2827950071972168,-1.1556324740096755
-0.24719448216723128,-1.1828570822055884
-0.20417718108933214,-1.189004574378859
-0.177476787316843,-1.1811006558703683
-0.16560994564018117,-1.1556324740096755
-0.14929303833477114,-1.1424592764955241
-0.1255593549814475,-1.123138586808102
-0.10034231641854108,-1.1003050444502398
-0.08699211953229652,-1.057272599237345
-0.08254205390354834,-1.0151183671920607
-0.08699211953229652,-0.9589127244650146
-0.08847547474187925,-0.9018288685703586
-0.08699211953229652,-0.8271807493235006
-0.08402540911313106,-0.7534108432442528
-0.08699211953229652,-0.6629548869804132
-0.07957534348438287,-0.5698642912137433
-0.04694152887356283,-0.46623513743575223
0.010909324300163607,-0.3810484601775732
0.07172688789305551,-0.3020092750926648
0.10881076813262373,-0.2317522216838573
0.11029412334220647,-0.1377834127495773
0.07321024310263824,-0.03942353797724685
-0.006890938214829143,0.059814549962693704
-0.11220915809520292,0.13621909554477182
-0.20417718108933214,0.22404041230578117
-0.25906132384389313,0.3171310080724511
-0.2827950071972168,0.4207601618504421
-0.2916951384547132,0.5033121996057909
-0.2827950071972168,0.5849860241935295
-0.248677837376814,0.6622687829432178
-0.20417718108933214,0.7492118865366171
-0.17599343210726026,0.8168343004425942
-0.16560994564018117,0.8809438616781311
-0.1522597487539366,0.9283673727290761
-0.1255593549814475,0.9793037364504615
-0.09737560599937563,1.020579755328136
-0.08699211953229652,1.077663611222792
-0.08995882995146198,1.1285999749441773
-0.08699211953229652,1.1769016991627326
-0.06474179138855558,1.2014916678558152
-0.04694152887356283,1.2418894735658794
-0.05287494971189375,1.2893129846168245
-0.08699211953229652,1.34112756150582
-0.12704271019103022,1.3578136116904118
-0.16560994564018117,1.3736214487073934
-0.19379369462225302,1.3929421383948155
-0.20417718108933214,1.4394874362781505
-0.1819268529455912,1.472859536647334
-0.1255593549814475,1.5053534238489075
-0.04694152887356283,1.5273087530391598
0.03167629723432182,1.5712194114196645
0.09991063687512736,1.604591511788848
0.15034471400094016,1.6362071858228113
0.18149517340217747,1.6458675306665225
0.19039530465967383,1.669579286191995
0.1874285942405084,1.6959256812202979
0.19039530465967383,1.735445273762752
0.19929543591717022,1.7521313239473437
0.19039530465967383,1.7679391609643254
0.1429279379530265,1.7749648663052062
0.07172688789305551,1.8004330481658988
0.00497590346183269,1.8162408851828806
-0.04694152887356283,1.8338051485350824
-0.08699211953229652,1.8302922958646421
-0.1255593549814475,1.8338051485350824
-0.16560994564018117,1.8267794431942017
-0.20417718108933214,1.8338051485350824
-0.23384428528098672,1.831170509032252
-0.24422777174806581,1.8338051485350824
-0.25164454779597945,1.8171190983504906
-0.2827950071972168,1.8004330481658988
-0.3599294780955187,1.7661827346291052
-0.4415140146225688,1.735445273762752
-0.500848223005878,1.6941692548850775
-0.5201318407304535,1.669579286191995
-0.5260652615687844,1.6353289726552014
-0.5201318407304535,1.603713298621238
-0.5038149334250435,1.5501422953970223
-0.48008125007171976,1.5053534238489075
-0.45931427713756157,1.4526606337923018
-0.4415140146225688,1.4061153359089669
-0.44299736983215154,1.3384929220029897
-0.48008125007171976,1.275261573935063
-0.5082649990537916,1.2032480941910353
-0.4415140146225688,1.143529598793549
-0.2531279030055622,1.0715161190495213
0.03167629723432182,1.0126758368196451
0.4989331882528815,0.9529573414221587
1.2940115805892243,0.9134377488797045
2.408011342985854,0.8633795983259291
3.6213959044245265,0.8150778741073741
4.7754462574798895,0.7562375918774978
5.790061220834477,0.7167179993350435
6.377469883829237,0.6771984067925894
6.065965289816864,0.6508520117642865
4.797696585623631,0.6130888455570526
3.1867728280167866,0.5849860241935295
1.9288876102906325,0.5489792843215158
1.136775928373455,0.5191200366227726
0.5315670028637015,0.47784401774509816
-0.006890938214829143,0.45413226221962566
-0.37327967498176323,0.4312987198617632
-0.5601824313891871,0.4207601618504421
-0.7040678867187119,0.3988048326601898
-0.8746537358207257,0.38826627464886865
-1.0111224151023368,0.37158022446427685
-1.0719399786952286,0.3548941742796851
-1.0838068203718905,0.3171310080724511
-1.0719399786952286,0.28990639987653816
-1.0363394536652433,0.26619464435106566
-0.993322152587344,0.2565342995073546
-0.9681051140244377,0.2337007571494922
-0.9532715619286104,0.22404041230578117
-0.9399213650423658,0.21877113330012063
-0.9147043264794594,0.22404041230578117
-0.8954207087548839,0.2073543621211894
-0.8746537358207257,0.19066831193659764
-0.8583368285153157,0.1687129827463453
-0.8360865003715747,0.15817442473502416
-0.8123528170182511,0.13709730871238193
-0.7960359097128411,0.1256805375334507
-0.7812023576170138,0.10811627418124885
-0.7559853190541074,0.09230843716426716
-0.7248348596528701,0.05630169729225333
-0.7174180836049564,0.026442449593510158
-0.7456018325870283,0.0018524809004275408
-0.7960359097128411,-0.0060514376080633
-0.8301530795332438,-0.02449391412787526
-0.8360865003715747,-0.03942353797724685
-0.818286237856582,-0.06050065399988909
-0.7960359097128411,-0.07191742517882031
-0.7737855815691002,-0.09211632803385246
-0.7559853190541074,-0.10441131238039376
-0.7515352534253592,-0.12373200206781582
-0.7559853190541074,-0.1377834127495773
-0.7500518982157764,-0.15973874193982965
-0.7174180836049564,-0.17027729995115076
-0.6773674929462228,-0.18608513696813245
-0.6773674929462228,-0.20364940032033432
-0.7292849252816183,-0.24053435335995824
-0.7960359097128411,-0.26863717472348125
-0.8301530795332438,-0.29234893024895375
-0.8360865003715747,-0.3020092750926648
-0.8360865003715747,-0.32132996478008685
-0.8360865003715747,-0.33450316229423827
-0.8093861065990856,-0.3529456388140502
-0.7559853190541074,-0.3678752626634218
-0.69220104504205,-0.40212557620021544
-0.6388002574970718,-0.4328630370665687
-0.5957829564191727,-0.4600876452624816
-0.5601824313891871,-0.46623513743575223
-0.5201318407304535,-0.48028654811751376
-0.48008125007171976,-0.4987290246373257
-0.44893079067048247,-0.5356139776769496
-0.4415140146225688,-0.5645950122080827
-0.4578309219279788,-0.5900631940687754
-0.48008125007171976,-0.5970888994096561
-0.48898138132921615,-0.6120185232590277
-0.48008125007171976,-0.6304609997788397
-0.46376434276630973,-0.6576856079747526
-0.4415140146225688,-0.6629548869804132
-0.40739684480216604,-0.6629548869804132
-0.36289618851468414,-0.6629548869804132
-0.31542882180803683,-0.6840320030030554
-0.2827950071972168,-0.6963269873495967
-0.2738948759397204,-0.6998398400200371
-0.2827950071972168,-0.6963269873495967
-0.2946618488738786,-0.7138912507017986
-0.2827950071972168,-0.7288208745511702
-0.23681099570015218,-0.7358465798920509
