ECG,PPG
2.0450738631751912,0.36130148004313367
4.8926432855829365,1.2478184288910392
2.0450738631751912,0.2571947681324232
0.2156717065993886,-0.28695062298850676
1.3268085902245277,0.15308805622171273
2.238510648583616,0.3999390226079334
1.566730184529551,0.04790807923975782
0.9024472702975177,-0.22362798378508494
1.0883865058839108,-0.10771535609068567
1.1093796453856004,-0.046539247029752706
0.6100428272382706,-0.21289533307264055
0.20367562688413743,-0.34598020190695083
0.13169914859263046,-0.31700204498335105
0.0027412916536804417,-0.30626939427090666
-0.10672293574798643,-0.36851876840308406
-0.004756258168351536,-0.42218202196530596
0.13169914859263046,-0.4211087568940615
-0.0497415571005434,-0.4211087568940615
-0.3466445300530097,-0.4211087568940615
-0.45910777738348935,-0.42218202196530596
-0.3466445300530097,-0.4211087568940615
-0.2896631514055667,-0.4350612028202392
-0.3466445300530097,-0.4211087568940615
-0.5820675944648138,-0.4050097808253949
-0.8249882086986499,-0.36851876840308406
-1.0514142133240156,-0.3481267320494397
-1.0634102930392668,-0.31700204498335105
-0.9029627268477824,-0.29768327370095116
-0.5850666143936266,-0.2644120564923736
-0.3271509005157266,-0.24616655028121814
-0.10672293574798643,-0.21289533307264055
-0.03924498734969863,-0.19035676657650738
-0.10672293574798643,-0.16030534458166312
-0.3751352193767312,-0.15923207951041868
-0.5850666143936266,-0.16030534458166312
-0.6150568136817545,-0.17211126036535193
-0.3466445300530097,-0.16030534458166312
0.023734431155369978,-0.15815881443917423
0.37012123293324733,-0.16030534458166312
0.39861192225696884,-0.1935765617902407
0.13169914859263046,-0.21289533307264055
-0.19819304357677656,-0.22362798378508494
-0.10672293574798643,-0.21289533307264055
0.29664524467733394,-0.22899430914130714
0.6100428272382706,-0.2644120564923736
0.5050771297298229,-0.3277346956957954
0.37012123293324733,-0.36851876840308406
0.4465962411179735,-0.4039365157541505
0.6100428272382706,-0.4211087568940615
0.4510947710111927,-0.45330670903139464
0.13169914859263046,-0.473698745385039
-0.10072489589036085,-0.5037501673798832
-0.10672293574798643,-0.525215468804772
-0.12321754535645678,-0.5617064812270829
-0.10672293574798643,-0.5778054572957494
-0.10222440585476725,-0.6024905539343715
-0.10672293574798643,-0.6293221807154824
-0.2551744222242196,-0.6904982897764154
-0.3466445300530097,-0.7345021576974373
-0.3031587410852242,-0.7709931701197482
-0.10672293574798643,-0.7860188811171703
0.02673345108418277,-0.8214366284682368
0.13169914859263046,-0.8386088696081478
0.09121237955365778,-0.8482682552493478
-0.10672293574798643,-0.8386088696081478
-0.4546092474902702,-0.8632939662467699
-0.5850666143936266,-0.8901255930278809
-0.4816004268495853,-0.9158839547377473
-0.3466445300530097,-0.8901255930278809
-0.4830999368139917,-0.8643672313180143
-0.5850666143936266,-0.8386088696081478
-0.33314894037335213,-0.8343158093231701
0.37012123293324733,-0.7860188811171703
1.0104119877347781,-0.7184031816287708
1.0883865058839108,-0.6293221807154824
0.15269228809432,-0.5681460716545494
-1.541753971684907,-0.473698745385039
-3.191214932531942,-0.3416871416219731
-3.6935507706080846,-0.16030534458166312
-2.96328941794217,-0.002535379108730757
-1.7816755659899302,0.15308805622171273
-1.090401472398582,0.3087114915521562
-0.8249882086986499,0.5179981804448216
-0.564073474891937,0.7283581344087314
-0.10672293574798643,0.9354982931589079
0.08671384966043859,1.1082939696292624
-0.10672293574798643,1.3004084173820167
-0.4156219884157039,1.4860832747073045
-0.3466445300530097,1.6653185416051255
-0.1187190154632376,1.7812311692995249
-0.10672293574798643,1.8735319654265465
-0.370636689483512,1.9443674601286793
-0.3466445300530097,2.0302286658282345
-0.024249887705634677,2.0871117146041898
0.13169914859263046,2.134335377738945
-0.1876964738259318,2.1547274140925894
-0.3466445300530097,2.1869253662299224
-0.01975135781241549,2.193364956657389
0.37012123293324733,2.1869253662299224
0.14069620837906882,2.149361088736367
-0.3466445300530097,2.134335377738945
-0.46810483716992773,2.112870076314056
-0.10672293574798643,2.0828186543192118
0.14369522830788162,2.0001772438333902
0.13169914859263046,1.926121953917524
-0.037745477385292235,1.8595795195003688
-0.10672293574798643,1.8220152420068134
-0.04224400727851142,1.7629856630883693
0.37012123293324733,1.717908530096103
0.9444335493008968,1.6620987463913923
1.3268085902245277,1.6127285531141482
1.1888536734991393,1.5279406124858375
0.8484649115788875,1.4571051177837047
0.5995462574874258,1.3905626833665494
0.6100428272382706,1.3519251408017499
0.8004805927178829,1.2939688269545502
1.3268085902245277,1.2478184288910392
2.021081703744689,1.1909353801150842
2.521918031856425,1.1437117169803288
2.4244498841700093,1.0621435715657515
2.0450738631751912,0.9870150165786409
1.8486380578379533,0.9000805458078415
2.0450738631751912,0.830318316176953
2.1200493613955107,0.742310580334909
1.8051522688701678,0.6746948808465095
1.3268085902245277,0.5942000005031767
1.3268085902245277,0.5179981804448216
1.6911895115752817,0.40637861303540007
1.8051522688701678,0.3087114915521562
1.1858546535703265,0.21641069542513455
0.37012123293324733,0.15308805622171273
-0.015252827919196304,0.06830011559340214
0.13169914859263046,-0.0036086441799751947
0.17668444752482232,-0.07551740395335253
-0.10672293574798643,-0.10771535609068567
-0.5130901361021196,-0.14205983837050767
-0.5850666143936266,-0.16030534458166312
-0.442613167775019,-0.1935765617902407
-0.3466445300530097,-0.21289533307264055
-0.5550764151054987,-0.24616655028121814
-0.8249882086986499,-0.2644120564923736
-0.9659421453528511,-0.2848040928460179
-0.8249882086986499,-0.2644120564923736
-0.601561224002097,-0.2418734899962404
-0.3466445300530097,-0.21289533307264055
-0.19669353361237016,-0.2171883933576183
-0.10672293574798643,-0.21289533307264055
-0.184697453897119,-0.2021626823601962
-0.3466445300530097,-0.16030534458166312
-0.6780362321868231,-0.13347371780055217
-1.0634102930392668,-0.10771535609068567
-1.3873044453510481,-0.11093515130441897
-1.30333188734429,-0.10771535609068567
-0.8714730175952481,-0.11844800680313004
-0.3466445300530097,-0.10771535609068567
-0.12171803539205038,-0.1087886211619301
-0.10672293574798643,-0.10771535609068567
-0.15920578450221026,-0.13669351301428548
-0.10672293574798643,-0.16030534458166312
-0.10522342578358003,-0.1935765617902407
-0.10672293574798643,-0.21289533307264055
-0.07373371653104573,-0.24616655028121814
0.13169914859263046,-0.2644120564923736
0.2516599457451421,-0.2933902134159734
0.13169914859263046,-0.31700204498335105
-0.20868961332762131,-0.3556395875481508
-0.3466445300530097,-0.36851876840308406
-0.2446778524733748,-0.37388509375930623
-0.10672293574798643,-0.36851876840308406
-0.2206856930428725,-0.395350395184195
-0.3466445300530097,-0.4211087568940615
-0.370636689483512,-0.4543799741026391
-0.3466445300530097,-0.473698745385039
-0.49809503645805564,-0.508043227664861
-0.5850666143936266,-0.525215468804772
-0.5100911161733068,-0.5509738305146384
-0.3466445300530097,-0.5778054572957494
-0.3436455101241969,-0.637908301285438
-0.3466445300530097,-0.6819121692064599
-0.3271509005157266,-0.7173299165575263
-0.3466445300530097,-0.7345021576974373
-0.5340832756038092,-0.7838723509746814
-0.5850666143936266,-0.8386088696081478
-0.46210679731230214,-0.9040780389540585
-0.3466445300530097,-0.9427155815188583
-0.49209699660043005,-0.9834996542261469
-0.5850666143936266,-0.9942323049385913
-0.4860989567428045,-1.0038916905797912
-0.3466445300530097,-0.9942323049385913
-0.49809503645805564,-1.0049649556510356
-0.5850666143936266,-0.9942323049385913
-0.20119206350558935,-0.9824263891549024
0.6100428272382706,-0.9427155815188583
0.9399350194076777,-0.9083710992390363
0.13169914859263046,-0.8386088696081478
-1.7576834065594278,-0.7516743988373483
-3.6935507706080846,-0.6293221807154824
-4.722214606190872,-0.5134095530210832
-4.411816043558748,-0.36851876840308406
-3.2856840602895447,-0.22362798378508494
-2.020097650330547,-0.056198632670952646
-1.13688628129518,0.1069376581582019
-0.5850666143936266,0.3087114915521562
-0.3571410998038545,0.5179981804448216
-0.3466445300530097,0.7262116042662425
-0.5280852357461836,0.8839815697391749
-0.5850666143936266,1.0396050050696184
-0.43361610798858063,1.1898621150438395
-0.10672293574798643,1.3519251408017499
0.08821335962484499,1.467837768496149
0.13169914859263046,1.561211829694415
0.008739331511306023,1.629900794254059
-0.10672293574798643,1.717908530096103
-0.19819304357677656,1.7801579042282805
-0.10672293574798643,1.8220152420068134
0.035730510870621145,1.8187954467930803
0.13169914859263046,1.8220152420068134
0.01023884147571242,1.8166489166505913
-0.10672293574798643,1.8220152420068134
-0.08872881617510968,1.796256880296947
0.13169914859263046,1.7694252535158361
0.30414279449936593,1.7168352650248586
0.37012123293324733,1.6653185416051255
0.2561584756383613,1.5966295770454815
0.13169914859263046,1.561211829694415
0.04172855072824672,1.5300871426283265
0.13169914859263046,1.5086218412034376
0.2576579856027677,1.450665527356238
0.37012123293324733,1.4045151292927271
0.40910849200781363,1.3658775867279274
0.6100428272382706,1.3519251408017499
0.9504315891585224,1.3047014776669945
1.3268085902245277,1.2478184288910392
1.4887556663804185,1.1791294643313952
1.566730184529551,1.1437117169803288
1.6402061727854644,1.095414788774329
1.8051522688701678,1.0396050050696184
1.9146164962718346,0.9494507390850856
2.0450738631751912,0.8829083046679305
2.154538090576858,0.8217321956069975
2.283495947515808,0.7788015927572199
2.3014900670886846,0.7015265076276205
2.283495947515808,0.622104892355532
2.112551811573479,0.5308773612997548
1.8051522688701678,0.46540819195384414
1.4332737976973817,0.3849133116105113
1.3268085902245277,0.3087114915521562
1.320810550366902,0.21855722556762344
1.0883865058839108,0.15308805622171273
0.5095756596230421,0.07366644094962432
0.13169914859263046,-0.0036086441799751947
0.10170894930450254,-0.09912923552073016
0.13169914859263046,-0.16030534458166312
-0.07523322649545212,-0.2161151282863739
-0.10672293574798643,-0.2644120564923736
0.10170894930450254,-0.3363208162657509
0.13169914859263046,-0.36851876840308406
-0.3871312990919824,-0.37710488897303956
-0.8249882086986499,-0.36851876840308406
-0.7170234912613894,-0.4017899856116616
-0.3466445300530097,-0.4211087568940615
-0.4411136578106126,-0.41466916646659485
-0.8249882086986499,-0.36851876840308406
-1.0109274442850429,-0.3588593827618841
-0.8249882086986499,-0.36851876840308406
-0.7335181008698598,-0.3899840698279728
-0.8249882086986499,-0.36851876840308406
-0.9434494958867551,-0.343833671764462
-0.8249882086986499,-0.31700204498335105
-0.6090587738241289,-0.3212951052683288
-0.3466445300530097,-0.31700204498335105
-0.1861969638615254,-0.3223683703395732
-0.10672293574798643,-0.31700204498335105
-0.20119206350558935,-0.326661430624551
-0.3466445300530097,-0.31700204498335105
-0.5415808254258411,-0.31485551484086216
-0.5850666143936266,-0.31700204498335105
-0.3901303190207952,-0.35134652726317306
0.13169914859263046,-0.36851876840308406
0.5770536080213299,-0.3760316239017951
0.6100428272382706,-0.36851876840308406
0.19467856709769907,-0.39427713011295057
-0.10672293574798643,-0.4211087568940615
-0.05873861688698177,-0.4543799741026391
0.13169914859263046,-0.473698745385039
-0.07523322649545212,-0.508043227664861
-0.5850666143936266,-0.525215468804772
-0.9689411652816639,-0.549900565443394
-0.8249882086986499,-0.5778054572957494
-0.4801009168851789,-0.637908301285438
-0.3466445300530097,-0.6819121692064599
-0.6075592638597225,-0.714110121343793
-0.8249882086986499,-0.7345021576974373
-0.7395161407274853,-0.7881654112596592
-0.3466445300530097,-0.8386088696081478
-0.015252827919196304,-0.8772464121729475
0.13169914859263046,-0.8901255930278809
-0.009254788061570722,-0.9352027260201472
-0.3466445300530097,-0.9942323049385913
-0.8114926190189923,-1.0661410647119687
-1.0634102930392668,-1.0994122819205463
-1.0364191136799517,-1.1273171737729015
-0.8249882086986499,-1.1509290053402792
-0.7620087901935813,-1.2088853191874789
-0.8249882086986499,-1.2550357172509896
-0.9749392051392894,-1.2958197899582784
-1.0634102930392668,-1.3076257057419671
-1.090401472398582,-1.3484097784492557
-0.8249882086986499,-1.4117324176526775
-0.2836651115479411,-1.508326274064677
0.37012123293324733,-1.5684291180543655
0.6625256759924945,-1.5952607448354765
0.37012123293324733,-1.5684291180543655
-0.6300519133258184,-1.5340846357745435
-2.020097650330547,-1.464322406143655
-3.3366673990793623,-1.3795344655153445
-3.933472364913108,-1.2550357172509896
-3.722041459931806,-1.1337567642003683
-2.9767850076218276,-0.9942323049385913
-2.213534435738972,-0.8557811107480588
-1.541753971684907,-0.6819121692064599
-1.075406372754518,-0.5058966975223721
-0.8249882086986499,-0.31700204498335105
-0.851979388057965,-0.14313310344175212
-0.8249882086986499,0.04790807923975782
-0.5655729848563434,0.2314364064225567
-0.10672293574798643,0.41389146853411113
0.09121237955365778,0.5501961325821547
-0.10672293574798643,0.6746948808465095
-0.5730705346783754,0.7745085324722422
-0.8249882086986499,0.8829083046679305
-0.730519080941047,0.9655497151537521
-0.3466445300530097,1.0396050050696184
-0.028748417598853864,1.0739494873494404
0.13169914859263046,1.0911217284893513
0.0507256105146851,1.082535607919396
-0.10672293574798643,1.0911217284893513
-0.30165923112081783,1.095414788774329
-0.3466445300530097,1.0911217284893513
-0.2806660916191283,1.0417515352121072
-0.10672293574798643,0.9870150165786409
0.01323786140452521,0.9258389075177079
0.13169914859263046,0.8829083046679305
0.15569130802313277,0.8238787257494864
0.13169914859263046,0.7788015927572199
0.04472757065705952,0.725138339194998
0.13169914859263046,0.6746948808465095
0.353626623324777,0.5909802052894434
0.6100428272382706,0.5179981804448216
0.6535286162060561,0.45038248095642197
0.6100428272382706,0.41389146853411113
0.5425648788399828,0.3602282149718892
0.6100428272382706,0.3087114915521562
0.8214737322195724,0.24538885234873437
1.3268085902245277,0.20460477964144574
1.9116174763430218,0.1520147911504683
2.283495947515808,0.10049806773073527
2.1635351503632965,0.018929922316158
1.8051522688701678,-0.056198632670952646
1.400284578480441,-0.14205983837050767
1.0883865058839108,-0.21289533307264055
0.8259722621127916,-0.29768327370095116
0.8484649115788875,-0.36851876840308406
1.1033816055279748,-0.4522334439601502
1.3268085902245277,-0.525215468804772
1.1033816055279748,-0.6132232046468159
0.6100428272382706,-0.6819121692064599
0.1841819973468543,-0.7613337844785483
0.13169914859263046,-0.8386088696081478
0.2531594557095485,-0.9319829308064139
0.37012123293324733,-0.9942323049385913
0.23066680624345257,-1.0489688235720576
-0.10672293574798643,-1.0994122819205463
-0.5610744549631242,-1.1863467526913456
-0.8249882086986499,-1.2550357172509896
-0.9059617467765952,-1.3011861153145006
-0.8249882086986499,-1.3076257057419671
-0.6840342720444487,-1.334457332523078
-0.3466445300530097,-1.3602156942329446
-0.06773567667342015,-1.3816809956578333
-0.10672293574798643,-1.3602156942329446
-0.5385818054970284,-1.3355305975943226
-0.8249882086986499,-1.3076257057419671
-0.7755043798732388,-1.2958197899582784
-0.5850666143936266,-1.2550357172509896
-0.6045602439309098,-1.2078120541162345
-0.5850666143936266,-1.1509290053402792
-0.4396141478462062,-1.1251706436304127
-0.3466445300530097,-1.0994122819205463
-0.601561224002097,-1.0800935106381464
-0.8249882086986499,-1.0468222934295688
-0.7140244713325766,-1.027503522147169
-0.3466445300530097,-0.9942323049385913
-0.22968275282931086,-0.9695472082999692
-0.3466445300530097,-0.9427155815188583
-0.4771018969563661,-0.9448621116613471
-0.3466445300530097,-0.9427155815188583
-0.052740577029356195,-0.9448621116613471
0.37012123293324733,-0.9427155815188583
0.6505295962772433,-0.9695472082999692
0.6100428272382706,-0.9942323049385913
0.13769718845025603,-1.0264302570759245
-0.3466445300530097,-1.0468222934295688
-0.5355827855682156,-1.0811667757093908
-0.3466445300530097,-1.0994122819205463
-0.15920578450221026,-1.1240973785591684
-0.10672293574798643,-1.1509290053402792
-0.177199904075087,-1.2099585842587233
-0.10672293574798643,-1.2550357172509896
0.031231980977401957,-1.290453464602056
0.13169914859263046,-1.3076257057419671
-0.04074449731410503,-1.3569958990192112
-0.3466445300530097,-1.4117324176526775
-0.6075592638597225,-1.4611026109299217
-0.5850666143936266,-1.464322406143655
-0.4546092474902702,-1.4621758760011663
-0.3466445300530097,-1.464322406143655
-0.3091567809428498,-1.4965203582809883
-0.10672293574798643,-1.515839129563388
0.11370502901975371,-1.5448172864869878
0.13169914859263046,-1.5684291180543655
-0.16370431439542946,-1.6102864558328986
-0.3466445300530097,-1.621019106545343
-0.33464845033775853,-1.6220923716165874
-0.3466445300530097,-1.621019106545343
-0.6495455428631016,-1.6575101189676538
-0.8249882086986499,-1.6725358299650759
-0.5460793553190603,-1.662876444323876
0.13169914859263046,-1.621019106545343
0.6655246959213073,-1.6038468654054319
0.8484649115788875,-1.5684291180543655
0.5230712493026997,-1.5126193343496548
-0.3466445300530097,-1.4117324176526775
-1.7951711556695877,-1.3183583564544115
-3.2152070919624443,-1.2035189938312567
-3.900483145696167,-1.0715073900681908
-3.4551286862674675,-0.8901255930278809
-2.4459584802219636,-0.7119635912013041
-1.541753971684907,-0.525215468804772
-1.0394181336087644,-0.3534930574056619
-0.5850666143936266,-0.16030534458166312
-0.19669353361237016,0.02000318738740244
-0.10672293574798643,0.20460477964144574
-0.42761806813095504,0.37310739582682245
-0.5850666143936266,0.5695149038645546
-0.36763766955469923,0.7723620023297534
-0.10672293574798643,0.9870150165786409
-0.3076572709784434,1.1565908978352621
-0.5850666143936266,1.3004084173820167
-0.43811463788179983,1.4184675752189049
0.13169914859263046,1.561211829694415
0.3881153525061241,1.6824907827450366
0.13169914859263046,1.7694252535158361
-0.23568079268693645,1.7941103501544582
-0.10672293574798643,1.8220152420068134
0.26815455535361243,1.8488468687879245
0.37012123293324733,1.8735319654265465
-0.022750377741228282,1.8488468687879245
-0.3466445300530097,1.8220152420068134
-0.249176382366594,1.7908905549407248
0.13169914859263046,1.7694252535158361
0.2501604357807357,1.7114689396686364
0.13169914859263046,1.6653185416051255
0.017736391297744396,1.6277542641115703
0.13169914859263046,1.6127285531141482
0.23816435606548453,1.5622850947656595
0.37012123293324733,1.5086218412034376
0.6820193055297776,1.445299202000016
1.3268085902245277,1.4045151292927271
1.8366419781227021,1.3465588154455275
1.8051522688701678,1.3004084173820167
1.2428360322177696,1.2413788384635727
0.8484649115788875,1.1963017054713063
0.9459330592653032,1.1308325361253955
1.3268085902245277,1.0911217284893513
1.4257762478753497,1.055703981138285
1.3268085902245277,1.0396050050696184
1.380790948943158,0.9902348117923742
1.8051522688701678,0.9354982931589079
2.1335449510751685,0.8528568826730861
2.0450738631751912,0.7788015927572199
1.5982198937820853,0.6865007966301984
1.3268085902245277,0.622104892355532
1.31331300054487,0.5598555182233547
1.3268085902245277,0.5179981804448216
1.0179095375568101,0.44179636038646647
0.6100428272382706,0.36130148004313367
0.3521271133603706,0.2657808887023787
0.37012123293324733,0.20460477964144574
0.39111437243493685,0.14450193565175723
0.37012123293324733,0.10049806773073527
0.26065700553158044,0.03717542852731344
0.13169914859263046,-0.0036086441799751947
-0.1831979439327126,-0.042246186744774955
-0.5850666143936266,-0.056198632670952646
-0.9674416553172575,-0.08625005466579691
-1.0634102930392668,-0.10771535609068567
-0.923955866349472,-0.14420636851299654
-0.5850666143936266,-0.16030534458166312
-0.29566119126319224,-0.17747758572157413
-0.10672293574798643,-0.16030534458166312
-0.16220480443102306,-0.14205983837050767
-0.3466445300530097,-0.10771535609068567
-0.6390489731122568,-0.09268964509326354
-0.8249882086986499,-0.056198632670952646
-0.8969646869901569,-0.029367005889841702
-0.8249882086986499,-0.0036086441799751947
-0.8189901688410243,-0.013268029821175135
-0.8249882086986499,-0.0036086441799751947
-0.7425151606562981,0.01356359695993581
-0.3466445300530097,0.04790807923975782
0.12270208880619209,0.048981344311002255
0.37012123293324733,0.04790807923975782
0.17968346745363512,0.04039522374104675
-0.10672293574798643,0.04790807923975782
-0.22968275282931086,0.04039522374104675
-0.10672293574798643,0.04790807923975782
-0.06773567667342015,0.04790807923975782
-0.10672293574798643,0.04790807923975782
-0.04224400727851142,0.016783392173669122
0.37012123293324733,-0.0036086441799751947
0.7255050944975631,-0.029367005889841702
0.6100428272382706,-0.056198632670952646
0.02673345108418277,-0.11630147666064117
-0.3466445300530097,-0.16030534458166312
-0.2926621713343795,-0.1935765617902407
-0.10672293574798643,-0.21289533307264055
-0.2161871631496533,-0.26763185170610687
-0.3466445300530097,-0.31700204498335105
-0.2761675617259091,-0.3567128526193952
-0.10672293574798643,-0.36851876840308406
-0.2746680517615027,-0.41359590139535046
-0.5850666143936266,-0.473698745385039
-0.6495455428631016,-0.5456075051584163
-0.3466445300530097,-0.5778054572957494
-0.2476768724021876,-0.6046370840768603
-0.5850666143936266,-0.6293221807154824
-1.0019303844986045,-0.6883517596339265
-0.8249882086986499,-0.7345021576974373
-0.30015972115641143,-0.7742129653334815
-0.10672293574798643,-0.7860188811171703
-0.5355827855682156,-0.8160703031120146
-0.8249882086986499,-0.8386088696081478
-0.5385818054970284,-0.8750998820304587
-0.10672293574798643,-0.8901255930278809
-0.33164943040894573,-0.922323545165214
-0.8249882086986499,-0.9427155815188583
-0.6180558336105673,-0.9652541480149914
0.6100428272382706,-0.9427155815188583
1.616214013354962,-0.905151304025303
1.0883865058839108,-0.8386088696081478
-1.0919009823629884,-0.7774327605472149
-3.4551286862674675,-0.6819121692064599
-4.603753319002767,-0.5702926017970383
-4.171894449253725,-0.4211087568940615
-3.0487614859133343,-0.2762179722760624
-2.020097650330547,-0.10771535609068567
-1.367810815813765,0.058640729952202195
-0.8249882086986499,0.2571947681324232
-0.4531097375258638,0.45252901109891086
-0.3466445300530097,0.6746948808465095
-0.5280852357461836,0.8839815697391749
-0.5850666143936266,1.0911217284893513
-0.4081244385936719,1.254258019318506
-0.10672293574798643,1.4045151292927271
-0.022750377741228282,1.5300871426283265
-0.10672293574798643,1.6653185416051255
-0.3361479603021649,1.7726450487295693
-0.5850666143936266,1.8735319654265465
-0.8474808581647458,1.9465139902711683
-0.8249882086986499,2.0302286658282345
-0.5160891560309324,2.090331509817923
-0.10672293574798643,2.134335377738945
-0.015252827919196304,2.132188847596456
-0.10672293574798643,2.134335377738945
-0.06173763681579456,2.130042317453967
0.37012123293324733,2.134335377738945
0.7959820628246637,2.1053572208153453
0.8484649115788875,2.0828186543192118
0.45859232083322465,2.0506207021818788
0.13169914859263046,2.0302286658282345
0.055224140407904285,1.977638677337257
0.13169914859263046,1.926121953917524
0.08821335962484499,1.8627993147141022
0.13169914859263046,1.8220152420068134
0.33263348382308744,1.764058928159614
0.6100428272382706,1.717908530096103
0.7105099948534991,1.6567324210351702
0.8484649115788875,1.6127285531141482
1.1438683745669473,1.5526257091244595
1.566730184529551,1.5086218412034376
1.8366419781227021,1.4495922622849935
2.0450738631751912,1.4045151292927271
2.1935253496514244,1.34226575516055
2.283495947515808,1.3004084173820167
2.2220160389751458,1.244598633677306
2.283495947515808,1.1963017054713063
2.4664361631733884,1.1136602949854846
2.521918031856425,1.0396050050696184
2.066067002676881,0.9515972692275745
1.3268085902245277,0.8829083046679305
0.6625256759924945,0.7970470989683754
0.37012123293324733,0.7262116042662425
0.30564230446377233,0.6414236636379319
0.37012123293324733,0.5695149038645546
0.3161388742146171,0.4815071680225107
0.13169914859263046,0.41389146853411113
-0.12621656528526956,0.33232332311953383
-0.10672293574798643,0.2571947681324232
0.14519473827228802,0.16167417679166823
0.37012123293324733,0.10049806773073527
0.1496932681655072,0.043615018954780066
-0.3466445300530097,-0.0036086441799751947
-0.772505359944426,-0.07551740395335253
-0.8249882086986499,-0.10771535609068567
-0.8414828183071202,-0.1173747417318856
-1.0634102930392668,-0.10771535609068567
-1.3948019951730801,-0.13991330822801878
-1.30333188734429,-0.16030534458166312
-0.9404504759579423,-0.17211126036535193
-0.8249882086986499,-0.16030534458166312
-1.181871580227372,-0.17211126036535193
-1.30333188734429,-0.16030534458166312
-0.8834690973104993,-0.13991330822801878
-0.3466445300530097,-0.10771535609068567
-0.2821656015835347,-0.11415494651815229
-0.3466445300530097,-0.10771535609068567
-0.23718030265134285,-0.09161638002201909
-0.10672293574798643,-0.056198632670952646
-0.2866641314767539,-0.056198632670952646
-0.3466445300530097,-0.056198632670952646
-0.0842302862818905,-0.0604916929559304
0.13169914859263046,-0.056198632670952646
-0.19819304357677656,-0.08517678959455247
-0.5850666143936266,-0.10771535609068567
-0.5115906261377132,-0.12166780201686335
-0.10672293574798643,-0.10771535609068567
-0.06323714678020095,-0.12596086230184111
-0.3466445300530097,-0.16030534458166312
-0.5385818054970284,-0.20645574264517394
-0.3466445300530097,-0.21289533307264055
-0.13371411510730155,-0.21182206800139614
-0.10672293574798643,-0.21289533307264055
-0.2746680517615027,-0.2450932852099737
-0.3466445300530097,-0.2644120564923736
-0.3481440400174161,-0.28909715313099565
-0.3466445300530097,-0.31700204498335105
-0.5490783752478731,-0.3792514191155284
-0.8249882086986499,-0.4211087568940615
-1.067908822932486,-0.4522334439601502
-1.0634102930392668,-0.473698745385039
-0.8864681172393121,-0.5316550592322385
-0.5850666143936266,-0.5778054572957494
-0.3841322791631696,-0.6132232046468159
-0.3466445300530097,-0.6293221807154824
-0.5685720047851562,-0.6840586993489488
-0.8249882086986499,-0.7345021576974373
-0.9614436154596319,-0.7774327605472149
-0.8249882086986499,-0.7860188811171703
-0.6495455428631016,-0.8160703031120146
-0.5850666143936266,-0.8386088696081478
-0.7365171207986725,-0.8590009059617921
-0.8249882086986499,-0.8386088696081478
-0.7260205510478278,-0.8343158093231701
-0.3466445300530097,-0.8386088696081478
0.13019963862822406,-0.8632939662467699
0.6100428272382706,-0.8386088696081478
0.7105099948534991,-0.7935317366158814
0.13169914859263046,-0.7345021576974373
-1.288336787700226,-0.7023042055601042
-2.9767850076218276,-0.6293221807154824
-4.1524008197164415,-0.5198491434485498
-4.171894449253725,-0.36851876840308406
-3.251195331108198,-0.24616655028121814
-2.020097650330547,-0.10771535609068567
-1.2523485485544725,0.048981344311002255
-1.0634102930392668,0.2571947681324232
-1.1833710901917784,0.4589686015263775
-1.0634102930392668,0.6746948808465095
-0.6375494631478504,0.8775419793117082
-0.10672293574798643,1.0911217284893513
0.06722022012315546,1.273576790600906
-0.10672293574798643,1.4571051177837047
-0.3871312990919824,1.614875083256637
-0.3466445300530097,1.7694252535158361
-0.08872881617510968,1.8928507367089464
0.13169914859263046,2.0302286658282345
0.04472757065705952,2.147214558593878
-0.10672293574798643,2.2395153547208997
-0.1801989240038998,2.2652737164307664
-0.10672293574798643,2.291032078140633
-0.10972195567679922,2.313570644636766
-0.10672293574798643,2.3436220666316103
-0.0497415571005434,2.3350359460616548
0.13169914859263046,2.3436220666316103
0.19767758702651186,2.347915126916588
0.13169914859263046,2.3436220666316103
0.01323786140452521,2.283519222641922
0.13169914859263046,2.2395153547208997
0.3851163325773113,2.208390667654811
0.6100428272382706,2.1869253662299224
0.6100428272382706,2.107503750957834
0.6100428272382706,2.0302286658282345
0.6805197955653712,1.9647594964823238
0.8484649115788875,1.926121953917524
0.9474325692297096,1.8467003386454355
1.0883865058839108,1.7694252535158361
1.22184289271608,1.700736288956192
1.3268085902245277,1.6653185416051255
1.2893208411143677,1.5934097818317483
1.3268085902245277,1.5086218412034376
1.4482688973414457,1.4098814546489493
1.566730184529551,1.3519251408017499
1.4542669371990713,1.296115357097039
1.3268085902245277,1.2478184288910392
1.3523002596194365,1.166250283476462
1.566730184529551,1.0911217284893513
1.5802257742092085,1.0031139926473074
1.3268085902245277,0.9354982931589079
1.0224080674500293,0.8496370874593528
1.0883865058839108,0.7788015927572199
1.3238095702957149,0.6929403870576649
1.3268085902245277,0.622104892355532
0.8559624614009195,0.5351704215847326
0.37012123293324733,0.46540819195384414
0.14519473827228802,0.3827667814680224
0.13169914859263046,0.3087114915521562
0.0012417816892740462,0.217483960496379
-0.10672293574798643,0.15308805622171273
-0.12471705532086318,0.09083868208953533
-0.10672293574798643,0.04790807923975782
-0.3361479603021649,-0.015414559963664011
-0.5850666143936266,-0.056198632670952646
-0.6150568136817545,-0.09268964509326354
-0.3466445300530097,-0.10771535609068567
-0.20868961332762131,-0.14420636851299654
-0.3466445300530097,-0.16030534458166312
-0.6810352521156359,-0.17318452543659638
-0.8249882086986499,-0.16030534458166312
-0.7635083001579877,-0.1656716699378853
-0.5850666143936266,-0.16030534458166312
-0.5520773951766859,-0.1656716699378853
-0.5850666143936266,-0.16030534458166312
-0.6450470129698824,-0.1710379952941075
-0.5850666143936266,-0.16030534458166312
-0.5010940563868684,-0.15815881443917423
-0.3466445300530097,-0.16030534458166312
-0.22368471297168527,-0.19786962207521844
-0.10672293574798643,-0.21289533307264055
-0.10972195567679922,-0.2161151282863739
-0.10672293574798643,-0.21289533307264055
-0.06623616670901375,-0.2450932852099737
0.13169914859263046,-0.2644120564923736
0.30264328453495953,-0.27192491199108465
0.37012123293324733,-0.2644120564923736
0.24866092581632931,-0.292316948344729
0.13169914859263046,-0.31700204498335105
-0.00025772827513234923,-0.343833671764462
-0.10672293574798643,-0.36851876840308406
-0.20719010336321492,-0.4286216123927726
-0.10672293574798643,-0.473698745385039
-0.004756258168351536,-0.5048234324511276
-0.10672293574798643,-0.525215468804772
-0.40062688877163993,-0.5820985175807272
-0.3466445300530097,-0.6293221807154824
0.06871973008756184,-0.6647399280665489
0.37012123293324733,-0.6819121692064599
0.08971286958925138,-0.7334288926261929
-0.3466445300530097,-0.7860188811171703
-0.49209699660043005,-0.84397519496437
-0.3466445300530097,-0.8901255930278809
-0.3241518805869138,-0.9555947623737915
-0.3466445300530097,-0.9942323049385913
-0.2716690318326899,-1.0221371967909467
-0.10672293574798643,-1.0468222934295688
-0.1801989240038998,-1.1240973785591684
-0.3466445300530097,-1.2035189938312567
-0.36913717951910563,-1.2732812234621451
-0.10672293574798643,-1.3076257057419671
0.04022904076384033,-1.361288959304189
-0.10672293574798643,-1.4117324176526775
-0.4186210083445167,-1.4750550568560994
-0.3466445300530097,-1.515839129563388
0.1811829774180415,-1.5609162625556545
0.8484649115788875,-1.5684291180543655
1.0508987567737509,-1.5576964673419211
0.6100428272382706,-1.515839129563388
-0.5250862158173708,-1.4943738281384993
-2.020097650330547,-1.464322406143655
-3.3411659289725817,-1.4342709841488108
-3.6935507706080846,-1.3602156942329446
-3.051760505842147,-1.2711346933196563
-2.020097650330547,-1.1509290053402792
-1.3138284570951348,-1.0350163776458798
-0.8249882086986499,-0.8901255930278809
-0.39912737880723353,-0.731282362483704
-0.10672293574798643,-0.525215468804772
-0.20868961332762131,-0.3180753100545955
-0.3466445300530097,-0.10771535609068567
-0.22218520300727887,0.06937338066464657
0.13169914859263046,0.2571947681324232
0.2501604357807357,0.43750330010148875
0.13169914859263046,0.622104892355532
-0.06623616670901375,0.776655062614731
-0.10672293574798643,0.9354982931589079
-0.06473665674460735,1.0739494873494404
0.13169914859263046,1.1963017054713063
0.3116403443213979,1.2585510796034836
0.37012123293324733,1.3004084173820167
0.20667464681295022,1.320800453735661
0.13169914859263046,1.3519251408017499
0.22017023649260778,1.3562182010867274
0.37012123293324733,1.3519251408017499
0.29214671478411475,1.3240202489493944
0.13169914859263046,1.3004084173820167
0.025233941119776376,1.2499649590335282
0.13169914859263046,1.1963017054713063
0.3206374041078363,1.116880090199218
0.6100428272382706,1.0396050050696184
0.8109771624687276,0.9365715582301524
0.8484649115788875,0.830318316176953
0.6655246959213073,0.6961601822713982
0.6100428272382706,0.5695149038645546
0.8409673617568555,0.4450161556001998
1.3268085902245277,0.36130148004313367
1.6117154834617429,0.2797333346285564
1.566730184529551,0.20460477964144574
1.3328066300821533,0.11015745337193521
1.3268085902245277,0.04790807923975782
1.4662630169143225,-0.00575517432246407
1.566730184529551,-0.056198632670952646
1.5637311646007381,-0.14313310344175212
1.8051522688701678,-0.21289533307264055
2.1065537717158533,-0.27192491199108465
2.0450738631751912,-0.31700204498335105
1.5337409653126102,-0.39964345546917274
1.3268085902245277,-0.473698745385039
1.6192130332837749,-0.5370213845884608
1.8051522688701678,-0.5778054572957494
1.2743257414703038,-0.6540072773541045
0.6100428272382706,-0.7345021576974373
0.42560310161628395,-0.8074841825420591
0.6100428272382706,-0.8386088696081478
0.5455638987687956,-0.8826127375291698
0.37012123293324733,-0.9427155815188583
0.33413299378749384,-1.0360896427171244
0.37012123293324733,-1.0994122819205463
0.12420159877059848,-1.1412696196990793
-0.10672293574798643,-1.1509290053402792
-0.07373371653104573,-1.179907162263879
0.13169914859263046,-1.2035189938312567
0.07321825998078103,-1.238936741182323
-0.10672293574798643,-1.2550357172509896
-0.19969255354118295,-1.2722079583909007
-0.10672293574798643,-1.2550357172509896
-0.09772587596154805,-1.2346436808973453
-0.10672293574798643,-1.2035189938312567
-0.12321754535645678,-1.189566547905079
-0.10672293574798643,-1.1509290053402792
-0.24317834250896841,-1.1047786072767685
-0.3466445300530097,-1.0468222934295688
-0.2506758923310004,-1.0232104618621911
0.13169914859263046,-0.9942323049385913
0.346129073502745,-0.956668027445036
0.13169914859263046,-0.8901255930278809
-0.3871312990919824,-0.8525613155343255
-0.5850666143936266,-0.8386088696081478
-0.3901303190207952,-0.8514880504630811
-0.10672293574798643,-0.8386088696081478
-0.0497415571005434,-0.8160703031120146
0.13169914859263046,-0.7860188811171703
0.5305687991247316,-0.7860188811171703
0.8484649115788875,-0.7860188811171703
0.6730222457433392,-0.7935317366158814
0.37012123293324733,-0.7860188811171703
0.3416305436095258,-0.792458471544637
0.6100428272382706,-0.7860188811171703
0.7090104848890927,-0.7881654112596592
0.6100428272382706,-0.7860188811171703
0.4480957510823799,-0.8117772428270369
0.37012123293324733,-0.8386088696081478
0.16168934788075837,-0.8729533518879699
-0.10672293574798643,-0.8901255930278809
-0.2746680517615027,-0.9201770150227251
-0.10672293574798643,-0.9427155815188583
0.10770698916212813,-0.9759867987274359
0.13169914859263046,-0.9942323049385913
-0.07223420656663933,-1.02535699200468
-0.10672293574798643,-1.0468222934295688
0.037230020835027536,-1.0800935106381464
0.13169914859263046,-1.0994122819205463
-0.037745477385292235,-1.1294637039153905
-0.10672293574798643,-1.1509290053402792
0.023734431155369978,-1.1863467526913456
0.13169914859263046,-1.2035189938312567
-0.11122146564120562,-1.231423885683612
-0.3466445300530097,-1.2550357172509896
-0.3181538407292882,-1.2968930550295228
-0.10672293574798643,-1.3076257057419671
-0.04824204713613701,-1.3129920310981893
0.13169914859263046,-1.3076257057419671
0.6370340065975857,-1.3237246818106336
1.3268085902245277,-1.3076257057419671
1.6192130332837749,-1.2689881631771673
1.3268085902245277,-1.2035189938312567
0.35812515321799615,-1.1616616560527235
-1.0634102930392668,-1.0994122819205463
-2.4669516197236527,-1.0167708714347246
-2.9767850076218276,-0.8901255930278809
-2.4684511296880594,-0.7699199050485038
-1.541753971684907,-0.6293221807154824
-0.9524465556731935,-0.48765119131121665
-0.5850666143936266,-0.31700204498335105
-0.2791665816547219,-0.16245187472415198
-0.10672293574798643,-0.0036086441799751947
-0.2761675617259091,0.1412821404380239
-0.3466445300530097,0.3087114915521562
-0.06473665674460735,0.46540819195384414
0.37012123293324733,0.622104892355532
0.46309085072644385,0.7487501707623757
0.37012123293324733,0.8829083046679305
0.3176383841790235,1.0074070529322852
0.37012123293324733,1.1437117169803288
0.3236364240366491,1.2531847542472614
0.37012123293324733,1.3519251408017499
0.5125746795518549,1.410954719720194
0.6100428272382706,1.4571051177837047
0.44359722118916073,1.4753506239948602
0.37012123293324733,1.5086218412034376
0.5590594884484532,1.5204277569871265
0.8484649115788875,1.5086218412034376
0.819974222255166,1.448518997213749
0.6100428272382706,1.4045151292927271
0.4136070219010328,1.3723171771553941
0.37012123293324733,1.3519251408017499
0.3131398542858043,1.2950420920257946
0.37012123293324733,1.2478184288910392
0.554560958555234,1.210254151397484
0.8484649115788875,1.1963017054713063
1.0014149279483398,1.1458582471228176
1.0883865058839108,1.0911217284893513
1.1588634742110113,1.0277990892859294
1.3268085902245277,0.9870150165786409
1.4407713475194137,0.9290587027314413
1.566730184529551,0.8829083046679305
1.730176770649848,0.8238787257494864
2.0450738631751912,0.7788015927572199
2.265501827942931,0.7154789535537981
2.283495947515808,0.6746948808465095
2.093058182036196,0.622104892355532
2.0450738631751912,0.5695149038645546
2.1530385806124515,0.48258043309375515
2.283495947515808,0.41389146853411113
2.1785302500073604,0.35271535947317817
2.0450738631751912,0.3087114915521562
2.0045870941362183,0.2314364064225567
2.0450738631751912,0.15308805622171273
1.809650798763387,0.06400705530842439
1.3268085902245277,-0.0036086441799751947
0.8064786325755084,-0.08946984987953022
0.6100428272382706,-0.16030534458166312
0.611542337202677,-0.22899430914130714
0.6100428272382706,-0.2644120564923736
0.3821173126484985,-0.3159287799121066
0.13169914859263046,-0.36851876840308406
-0.05873861688698177,-0.4382809980339725
-0.10672293574798643,-0.473698745385039
-0.1502087247157719,-0.5037501673798832
-0.10672293574798643,-0.525215468804772
-0.09172783610392247,-0.5681460716545494
-0.10672293574798643,-0.5778054572957494
-0.19519402364796376,-0.5788787223669939
-0.10672293574798643,-0.5778054572957494
0.06722022012315546,-0.6153697347893048
0.13169914859263046,-0.6293221807154824
-0.13071509517848875,-0.6175162649317936
-0.3466445300530097,-0.5778054572957494
-0.2521754022954068,-0.5756589271532605
0.13169914859263046,-0.5778054572957494
0.29214671478411475,-0.5713658668682828
0.13169914859263046,-0.525215468804772
-0.1442106848581463,-0.49409078173868326
-0.10672293574798643,-0.473698745385039
0.1466942482366944,-0.47906507074126115
0.37012123293324733,-0.473698745385039
0.2861486749264892,-0.4779918056700167
0.13169914859263046,-0.473698745385039
0.12120257884178569,-0.48121160088375003
0.37012123293324733,-0.473698745385039
0.5740545880925171,-0.4758452755275278
0.6100428272382706,-0.473698745385039
0.45709281086881826,-0.49838384202366104
0.37012123293324733,-0.525215468804772
0.3446295635383386,-0.5627797462983273
0.37012123293324733,-0.5778054572957494
0.26665504538920604,-0.6024905539343715
0.13169914859263046,-0.6293221807154824
0.037230020835027536,-0.6862052294914376
0.13169914859263046,-0.7345021576974373
0.19917709699091826,-0.775286230404726
0.13169914859263046,-0.7860188811171703
-0.07823224642426492,-0.8085574476133035
-0.10672293574798643,-0.8386088696081478
0.014737371368931607,-0.8976384485265919
0.13169914859263046,-0.9427155815188583
0.011738351440118814,-0.981353124083658
-0.10672293574798643,-0.9942323049385913
-0.06323714678020095,-1.0232104618621911
0.13169914859263046,-1.0468222934295688
0.11070600909094092,-1.0822400407806352
-0.10672293574798643,-1.0994122819205463
-0.2851646215123475,-1.1273171737729015
-0.10672293574798643,-1.1509290053402792
0.13019963862822406,-1.2056655239737455
0.13169914859263046,-1.2550357172509896
-0.1157199955344248,-1.3054791755994783
-0.10672293574798643,-1.3076257057419671
0.17818395748922872,-1.3065524406707227
0.37012123293324733,-1.3076257057419671
0.10770698916212813,-1.346263248306767
-0.10672293574798643,-1.3602156942329446
0.20517513684854383,-1.3527028387342335
0.8484649115788875,-1.3076257057419671
0.7419997041060334,-1.2711346933196563
