ECG,PPG
-0.6465940544077516,2.0587259483552316
-0.6604143465554765,2.7965092206506275
-0.6083850114111009,1.9947743327862861
-0.5742407602226044,1.5634908765713242
-0.5709889267760809,1.9316026149681815
-0.5596075097132487,2.1304765414325852
-0.533592842141061,1.836455089365604
-0.5230243834398597,1.6258826966385882
-0.533592842141061,1.7420874615138673
-0.5400965090341079,1.801359690577768
-0.533592842141061,1.6469399359112897
-0.5189595916317054,1.502658852005742
-0.496196757506041,1.4886206924906076
-0.4701820899338532,1.459764475709498
-0.45798771450939013,1.3614973591035573
-0.4620525063175445,1.2624503447467759
-0.45798771450939013,1.2031781156828751
-0.43685079710698754,1.1345471136088847
-0.4205916298743702,1.044858872262193
-0.4230305049592628,0.943472164652889
-0.4205916298743702,0.8553437188078787
-0.3994547124719676,0.7796936369763212
-0.38319554523935023,0.7282203854208285
-0.39620287902544415,0.6611491788485198
-0.4205916298743702,0.601876949784619
-0.427908255129048,0.5426047207207183
-0.4205916298743702,0.5067294241820416
-0.4189657131511085,0.46617474113831997
-0.4205916298743702,0.4435577063639368
-0.4181527547894776,0.4209406715895536
-0.4205916298743702,0.41158189857946403
-0.4392896721918802,0.3889648638050809
-0.45798771450939013,0.3796060907949913
-0.45229700597797406,0.3725870110374241
-0.4205916298743702,0.3796060907949913
-0.3815696285160885,0.3749267042899465
-0.3449865022426994,0.3796060907949913
-0.3092163343309412,0.38662517055255846
-0.2701943329726595,0.41158189857946403
-0.2311723316143778,0.4263999558454392
-0.1945892053409887,0.4435577063639368
-0.15719312070596875,0.442777808613096
-0.11979703607094878,0.4435577063639368
-0.09134349341386838,0.43497883110468805
-0.08158799307429795,0.4435577063639368
-0.08402686815919057,0.4458973996164592
-0.08158799307429795,0.4435577063639368
-0.07589728454288187,0.42016077383871286
-0.08158799307429795,0.41158189857946403
-0.10353786883833141,0.4100221030777825
-0.11979703607094878,0.41158189857946403
-0.11979703607094878,0.3835055795491953
-0.11979703607094878,0.3484101807613593
-0.13605620330356616,0.3101951909701602
-0.15719312070596875,0.2852384629432546
-0.1636967875990157,0.25014306415541865
-0.15719312070596875,0.22128684737430906
-0.15475424562107615,0.18853114183899553
-0.15719312070596875,0.15811512955620435
-0.15719312070596875,0.10976146900407481
-0.15719312070596875,0.06296760395362686
-0.17020045449206264,0.01227425014897492
-0.1945892053409887,-0.03140002389810983
-0.20922245585034435,-0.08599286645696576
-0.1945892053409887,-0.1265475495006873
-0.16776157940717004,-0.16320274379020488
-0.15719312070596875,-0.19049916506963285
-0.1636967875990157,-0.23573323461839918
-0.15719312070596875,-0.2848667929213695
-0.1328043698570427,-0.34101943098190707
-0.11979703607094878,-0.380014318523947
-0.1376821200268279,-0.4174494105643054
-0.15719312070596875,-0.4431860363420517
-0.14662466200476745,-0.47672163962820613
-0.11979703607094878,-0.5071376519109972
-0.11004153573137836,-0.5453526417021964
-0.11979703607094878,-0.570309369729102
-0.12548774460236486,-0.5913666090018036
-0.11979703607094878,-0.6015052797627339
-0.11654520262442532,-0.6295815987930027
-0.11979703607094878,-0.6654568953316795
-0.1222359111558414,-0.7083512716279234
-0.11979703607094878,-0.7286286131497842
-0.11898407770931792,-0.7434466704157594
-0.11979703607094878,-0.7598245231834162
-0.12060999443257965,-0.7972596152237745
-0.11979703607094878,-0.8237761387523617
-0.11979703607094878,-0.8417137870217001
-0.11979703607094878,-0.8549720487859936
-0.11979703607094878,-0.8900674475738296
-0.11979703607094878,-0.9189236643549392
-0.12060999443257965,-0.9392010058768
-0.11979703607094878,-0.9501195743885712
-0.11817111934768705,-0.9820953821730439
-0.11979703607094878,-1.013291292206676
-0.12304886951747226,-1.0382480202335815
-0.11979703607094878,-1.0452670999911486
-0.10435082719996228,-1.0608650550079646
-0.08158799307429795,-1.0772429077756214
-0.06288995075678798,-1.098300147048323
-0.044191908439278,-1.1084388178092535
-0.0157383657821976,-1.1271563638294326
0.030600260830761915,-1.1404146255937262
0.08832030450655359,-1.159912069364746
0.14360147309745266,-1.171610535627358
0.18750122462551957,-1.1926677749000596
0.21920660072912346,-1.2035863434118308
0.24196943485478778,-1.2129451164219205
0.2566026853641434,-1.2035863434118308
0.2517249351943582,-1.1942275704017413
0.21920660072912346,-1.171610535627358
0.1736809324777948,-1.1505532963546565
0.14360147309745266,-1.1084388178092535
0.1297811809497279,-1.0577454640046013
0.1062053884624327,-0.9820953821730439
0.05417605331805711,-0.8978664250822376
-0.006795823804258042,-0.7918003309678889
-0.052321492055586685,-0.6872940323552219
-0.08158799307429795,-0.570309369729102
-0.10678970228485489,-0.44630562734541496
-0.11979703607094878,-0.2848667929213695
-0.12060999443257965,-0.11172949223471214
-0.11979703607094878,0.06296760395362686
-0.13930803675008963,0.2072486878591747
-0.15719312070596875,0.3484101807613593
-0.16694862104553918,0.48645208266018075
-0.15719312070596875,0.633072859818251
-0.15638016234433788,0.7601961932053012
-0.15719312070596875,0.8865396288415107
-0.16044495415249221,1.0089835757235162
-0.15719312070596875,1.1400063978647703
-0.15556720398270701,1.253871469487527
-0.15719312070596875,1.3614973591035573
-0.16938749613043177,1.4465062139452045
-0.1945892053409887,1.5198166025242394
-0.22710753980622345,1.568170263076369
-0.23279824833763954,1.614964128126817
-0.16288382923738481,1.649279629163812
0.030600260830761915,1.6781358459449218
0.39643152356465283,1.6789157436957625
0.971193085237677,1.6781358459449218
1.7646404461894047,1.6734564594398769
2.740190480146447,1.6781358459449218
3.8019141004363615,1.665657481931469
4.771773425861988,1.6469399359112897
5.380679238723508,1.6118445371234538
5.373362613468831,1.5829883203423443
4.678283214274438,1.5471130238036674
3.4921769646550005,1.5198166025242394
2.1751844188129934,1.4847212037364035
1.0467982128693478,1.4566448847061348
0.26066747717229777,1.4199896904166172
-0.1945892053409887,1.39347316688803
-0.4214045882360011,1.3497988928409455
-0.533592842141061,1.2983256412854527
-0.6035072612413156,1.226575048208099
-0.6465940544077516,1.171982205649243
-0.6579754714705839,1.1212888518445912
-0.6465940544077516,1.0768346800466657
-0.638464470791443,1.0004047004642673
-0.6465940544077516,0.9185154366259835
-0.657162513108953,0.8303869907809731
-0.6465940544077516,0.7601961932053012
-0.6238312202820874,0.6798667248686989
-0.6083850114111009,0.601876949784619
-0.614075719942517,0.5145284016904496
-0.6083850114111009,0.4435577063639368
-0.5921258441784835,0.3632282380273345
-0.5709889267760809,0.2852384629432546
-0.5718018851377118,0.1947703238457219
-0.5709889267760809,0.12691921952257237
-0.5555427179050944,0.06920678596035325
-0.533592842141061,0.031771693919994896
-0.527089175248014,-0.018921659884657042
-0.533592842141061,-0.0633758316825826
-0.5254632585247523,-0.10705010572966733
-0.496196757506041,-0.1265475495006873
-0.46611729812569885,-0.1468248910225481
-0.45798771450939013,-0.15852335728516007
-0.46367842304080625,-0.18036049430870246
-0.45798771450939013,-0.19049916506963285
-0.43685079710698754,-0.19985793807972244
-0.4205916298743702,-0.19049916506963285
-0.4189657131511085,-0.17958059655786165
-0.4205916298743702,-0.15852335728516007
-0.4165268380662159,-0.1468248910225481
-0.4205916298743702,-0.1265475495006873
-0.44091558891514193,-0.11406918548723453
-0.45798771450939013,-0.09535163946705535
-0.458800672871021,-0.08443307095528417
-0.45798771450939013,-0.0633758316825826
-0.4750598401036384,-0.04777787666576661
-0.496196757506041,-0.03140002389810983
-0.5010745076758262,-0.033739717150632224
-0.496196757506041,-0.03140002389810983
-0.496196757506041,-0.034519614901473025
-0.496196757506041,-0.03140002389810983
-0.48318942371994705,-0.04699797891492581
-0.45798771450939013,-0.0633758316825826
-0.42709529676741714,-0.08521296870612496
-0.38319554523935023,-0.09535163946705535
-0.32466254320192767,-0.11094959448387133
-0.2701943329726595,-0.1265475495006873
-0.2311723316143778,-0.15774345953431929
-0.1945892053409887,-0.19049916506963285
-0.15231537053618352,-0.228714154860832
-0.11979703607094878,-0.2536708828877376
-0.11248041081627097,-0.28330699741968796
-0.11979703607094878,-0.3168426007058423
-0.12142295279421052,-0.368315852261335
-0.11979703607094878,-0.4119901263084198
-0.12142295279421052,-0.44942521834877813
-0.11979703607094878,-0.4751618441265245
-0.1141063275395327,-0.5094773451635196
-0.11979703607094878,-0.5383335619446292
-0.14093395347335136,-0.5710892674799428
-0.15719312070596875,-0.6015052797627339
-0.15719312070596875,-0.6506388380657043
-0.15719312070596875,-0.6966528053653115
-0.17507820466184787,-0.7387672839107146
-0.1945892053409887,-0.7598245231834162
-0.19865399714914306,-0.7894606377153666
-0.1945892053409887,-0.8237761387523617
-0.1970280804258813,-0.8658906172977648
-0.1945892053409887,-0.8869478565704664
-0.17751707974674047,-0.9025458115872824
-0.15719312070596875,-0.9189236643549392
-0.15312832889781441,-0.9547989608936159
-0.15719312070596875,-0.9820953821730439
-0.15800607906759961,-1.0015928259440638
-0.15719312070596875,-1.013291292206676
-0.16207087087575395,-1.0452670999911486
-0.15719312070596875,-1.0772429077756214
-0.13849507838845876,-1.102199635802527
-0.11979703607094878,-1.1084388178092535
-0.11817111934768705,-1.1232568750752285
-0.11979703607094878,-1.1404146255937262
-0.10678970228485489,-1.1622517626172686
-0.08158799307429795,-1.171610535627358
-0.06207699239515711,-1.1864285928933334
-0.044191908439278,-1.2035863434118308
-0.024680907760137153,-1.2277631736878956
-0.006795823804258042,-1.2355621511963035
0.007837426705097593,-1.2363420489471444
0.030600260830761915,-1.2355621511963035
0.067183387104151,-1.2519400039639603
0.1062053884624327,-1.2667580612299356
0.1403496396509292,-1.2753369364891844
0.1809975577324726,-1.2667580612299356
0.228149142707063,-1.265198265728254
0.2566026853641434,-1.2667580612299356
0.25822860208740517,-1.2745570387383436
0.2566026853641434,-1.2667580612299356
0.26310635225719037,-1.2620786747248909
0.2566026853641434,-1.2667580612299356
0.2208325174523852,-1.2893750960043187
0.1809975577324726,-1.2987338690144083
0.16229951541496265,-1.2995137667652492
0.14360147309745266,-1.2987338690144083
0.09644988812286227,-1.3174514150345875
0.030600260830761915,-1.3299297790480402
-0.018177240867090202,-1.3338292678022443
-0.044191908439278,-1.3299297790480402
-0.07427136781962014,-1.346307631815697
-0.11979703607094878,-1.361905586832513
-0.1685745377688009,-1.3798432351018515
-0.1945892053409887,-1.393881394616986
-0.20109287223403566,-1.4188381226438913
-0.1945892053409887,-1.4250773046506178
-0.19621512206425043,-1.416498429391369
-0.1945892053409887,-1.393881394616986
-0.19946695551077392,-1.386082417108578
-0.1945892053409887,-1.361905586832513
-0.1978410387875122,-1.3229106992904731
-0.1945892053409887,-1.2667580612299356
-0.19377624697935783,-1.226203378186214
-0.1945892053409887,-1.171610535627358
-0.19865399714914306,-1.0951805560449597
-0.1945892053409887,-0.9820953821730439
-0.19865399714914306,-0.8643308217960832
-0.23279824833763954,-0.7286286131497842
-0.2701943329726595,-0.5827877337425548
-0.23279824833763954,-0.4119901263084198
-0.07996207635103622,-0.24353221212680717
0.1809975577324726,-0.0633758316825826
0.5988581556107391,0.11756044651248279
1.2728006374027292,0.31643437297688654
2.1979472529386577,0.5082892196837231
3.2287784554865993,0.6962445776363557
4.239285698993769,0.858463309811242
5.14817314729708,1.013662962228561
5.706675541737487,1.1532646596290639
5.523759910370542,1.2983256412854527
4.484799124206291,1.4293484634267069
3.0035889893148484,1.5517924103087124
1.6581429008157609,1.6399208561537226
0.7077945760692755,1.7101116537293946
0.08425551269839925,1.7561256210290017
-0.30759041760767947,1.805259179331972
-0.5002615493141953,1.840354578119808
-0.5709889267760809,1.8684308971500767
-0.6254571370053491,1.8692107949009176
-0.6839901390427716,1.8684308971500767
-0.7043140980835434,1.862971612894191
-0.6839901390427716,1.8684308971500767
-0.6604143465554765,1.855952533136624
-0.6465940544077516,1.836455089365604
-0.6287089704518726,1.8005797928269272
-0.6083850114111009,1.7732833715474992
-0.6067590946878391,1.739747768261345
-0.6083850114111009,1.7101116537293946
-0.6018813445180539,1.661757993177265
-0.5709889267760809,1.614964128126817
-0.5474131342887857,1.560371285567961
-0.533592842141061,1.5198166025242394
-0.5368446755875844,1.47146294197211
-0.533592842141061,1.4246690769216621
-0.5173336749084435,1.3599375636018758
-0.496196757506041,1.2983256412854527
-0.48725421552810144,1.219555968450532
-0.496196757506041,1.1400063978647703
-0.5051392994839805,1.0495382587672377
-0.496196757506041,0.9816871544440882
-0.4726209650187458,0.9161757433734611
-0.45798771450939013,0.8553437188078787
-0.458800672871021,0.7703348639662316
-0.45798771450939013,0.6962445776363557
-0.44254150563840366,0.6268336778115245
-0.4205916298743702,0.5699011420001463
-0.41327500461969235,0.49113146916522554
-0.4205916298743702,0.41158189857946403
-0.4262823384057863,0.32423335048529456
-0.4205916298743702,0.2532626551587818
-0.4140879629813232,0.17839247107806513
-0.4205916298743702,0.12691921952257237
-0.44010263055351106,0.08480474097716924
-0.45798771450939013,0.06296760395362686
-0.4628654646791754,0.0294320006674725
-0.45798771450939013,-0.0002041138644778654
-0.45473588106286666,-0.030620126147269028
-0.45798771450939013,-0.03140002389810983
-0.4628654646791754,-0.024380944140542638
-0.45798771450939013,-0.0002041138644778654
-0.4327860052988332,0.013054147899815719
-0.38319554523935023,0.031771693919994896
-0.32222366811703507,0.04191036468092529
-0.2701943329726595,0.06296760395362686
-0.23198528997600867,0.07622586571792045
-0.1945892053409887,0.09494341173809963
-0.15231537053618352,0.10430218474818921
-0.11979703607094878,0.12691921952257237
-0.1116674524546401,0.14251717453938836
-0.11979703607094878,0.15811512955620435
-0.124674786240734,0.15577543630368196
-0.11979703607094878,0.15811512955620435
-0.11573224426279444,0.15577543630368196
-0.11979703607094878,0.15811512955620435
-0.124674786240734,0.14251717453938836
-0.11979703607094878,0.12691921952257237
-0.11248041081627097,0.10430218474818921
-0.11979703607094878,0.09494341173809963
-0.14093395347335136,0.07856555897044284
-0.15719312070596875,0.06296760395362686
-0.15963199579086135,0.031771693919994896
-0.15719312070596875,-0.0002041138644778654
-0.15963199579086135,-0.03841910365567702
-0.15719312070596875,-0.0633758316825826
-0.1401209951117205,-0.09379184396537375
-0.11979703607094878,-0.1265475495006873
-0.1141063275395327,-0.17880069880702085
-0.11979703607094878,-0.2216950751032648
-0.12304886951747226,-0.25991006489446394
-0.11979703607094878,-0.2848667929213695
-0.11817111934768705,-0.3199621917092055
-0.11979703607094878,-0.34881840849031504
-0.12060999443257965,-0.38235401177646944
-0.11979703607094878,-0.4119901263084198
-0.12060999443257965,-0.45020511609961894
-0.11979703607094878,-0.4751618441265245
-0.11817111934768705,-0.4946592878975445
-0.11979703607094878,-0.5071376519109972
-0.1222359111558414,-0.5383335619446292
-0.11979703607094878,-0.570309369729102
-0.11491928590116357,-0.6061846662677788
-0.11979703607094878,-0.6334810875472067
-0.12873957804888833,-0.6685764863350426
-0.11979703607094878,-0.6966528053653115
-0.09459532686039186,-0.729408510900625
-0.08158799307429795,-0.7598245231834162
-0.0986601186685462,-0.8003792062271378
-0.11979703607094878,-0.8237761387523617
-0.12304886951747226,-0.8401539915200185
-0.11979703607094878,-0.8549720487859936
-0.12386182787910313,-0.8908473453246705
-0.11979703607094878,-0.9189236643549392
-0.0986601186685462,-0.9392010058768
-0.08158799307429795,-0.9501195743885712
-0.09540828522202273,-0.9727366091629543
-0.11979703607094878,-0.9820953821730439
-0.12792661968725746,-0.9828752799238847
-0.11979703607094878,-0.9820953821730439
-0.11654520262442532,-1.0015928259440638
-0.11979703607094878,-1.013291292206676
-0.12060999443257965,-1.0156309854591983
-0.11979703607094878,-1.013291292206676
-0.1222359111558414,-1.0413676112369445
-0.11979703607094878,-1.0772429077756214
-0.10435082719996228,-1.1045393290550494
-0.08158799307429795,-1.1084388178092535
-0.06370290911841885,-1.121697079573547
-0.044191908439278,-1.1404146255937262
-0.013299490697304992,-1.164591455869791
0.030600260830761915,-1.171610535627358
0.08425551269839925,-1.1856486951424925
0.14360147309745266,-1.2035863434118308
0.1940048915185665,-1.2324425601929405
0.21920660072912346,-1.2355621511963035
0.21920660072912346,-1.2238636849336917
0.21920660072912346,-1.2035863434118308
0.2257102676221704,-1.1981270591559452
0.21920660072912346,-1.171610535627358
0.18506234954062697,-1.121697079573547
0.14360147309745266,-1.0452670999911486
0.10945722190895618,-0.9836551776747255
0.06880930382741274,-0.9189236643549392
0.0102763017899902,-0.8424936847725408
-0.044191908439278,-0.7286286131497842
-0.07183249273472754,-0.6069645640186195
-0.08158799307429795,-0.4751618441265245
-0.09947307703017708,-0.34491891973611105
-0.11979703607094878,-0.19049916506963285
-0.12792661968725746,-0.023601046389701837
-0.11979703607094878,0.15811512955620435
-0.11898407770931792,0.32189365723277213
-0.11979703607094878,0.4747536163975688
-0.12548774460236486,0.6104558250438679
-0.11979703607094878,0.7601961932053012
-0.12142295279421052,0.9060370726125306
-0.11979703607094878,1.044858872262193
-0.12060999443257965,1.1478053753731783
-0.11979703607094878,1.2351539234673479
-0.12142295279421052,1.309244209797224
-0.11979703607094878,1.39347316688803
-0.12630070296399573,1.4628840667128613
-0.15719312070596875,1.5198166025242394
-0.19865399714914306,1.5517924103087124
-0.1945892053409887,1.5829883203423443
-0.09296941013713012,1.6024857641133643
0.14360147309745266,1.614964128126817
0.568778696230397,1.600146070860842
1.2345915944060784,1.5829883203423443
2.116651416775571,1.5611511833188019
3.1157772432199087,1.5517924103087124
4.139291820513172,1.5338547620393739
5.072568019665409,1.5198166025242394
5.650581414784957,1.490180487992289
5.523759910370542,1.4566448847061348
4.592922586303197,1.405171633150642
3.191382370851579,1.3614973591035573
1.8321159902047668,1.312363800800587
0.8207957883359662,1.2663498335009797
0.16555134886148612,1.2016183201811934
-0.23279824833763954,1.1400063978647703
-0.4441674223616654,1.0713753957907801
-0.533592842141061,1.013662962228561
-0.5742407602226044,0.9450319601545706
-0.6083850114111009,0.8865396288415107
-0.6368385540681812,0.8218081155217244
-0.6465940544077516,0.7601961932053012
-0.6449681376844899,0.6790868271178582
-0.6465940544077516,0.601876949784619
-0.6514718045775368,0.5176479926938127
-0.6465940544077516,0.4435577063639368
-0.6303348871751343,0.3577689537714489
-0.6083850114111009,0.2852384629432546
-0.6067590946878391,0.21348786986590107
-0.6083850114111009,0.15811512955620435
-0.6035072612413156,0.09260371848557722
-0.5709889267760809,0.031771693919994896
-0.5433483424806314,-0.03919900140651782
-0.533592842141061,-0.09535163946705535
-0.539283550672477,-0.15150427752759288
-0.533592842141061,-0.19049916506963285
-0.5124559247386583,-0.2294940526116728
-0.496196757506041,-0.2536708828877376
-0.4953837991444101,-0.27862761091464316
-0.496196757506041,-0.2848667929213695
-0.4799375902734236,-0.29188587267893673
-0.45798771450939013,-0.2848667929213695
-0.45067108925471233,-0.2801874064163247
-0.45798771450939013,-0.2536708828877376
-0.4644913814024371,-0.224814666106628
-0.45798771450939013,-0.19049916506963285
-0.44091558891514193,-0.17490121005281686
-0.4205916298743702,-0.15852335728516007
-0.4100231711731689,-0.1476047887733889
-0.4205916298743702,-0.1265475495006873
-0.44498038072329626,-0.11484908323807533
-0.45798771450939013,-0.09535163946705535
-0.45554883942449753,-0.08053358220108017
-0.45798771450939013,-0.0633758316825826
-0.47831167355016185,-0.0633758316825826
-0.496196757506041,-0.0633758316825826
-0.4978226742293027,-0.06883511593846818
-0.496196757506041,-0.0633758316825826
-0.501887466037457,-0.06493562718426418
-0.496196757506041,-0.0633758316825826
-0.46367842304080625,-0.07663409344687618
-0.4205916298743702,-0.09535163946705535
-0.38482146196261197,-0.1296671405040505
-0.3449865022426994,-0.15852335728516007
-0.2888923752901695,-0.19205896057131444
-0.23279824833763954,-0.2216950751032648
-0.2027187889572974,-0.25913016714362314
-0.1945892053409887,-0.2848667929213695
-0.18320778827815654,-0.3145029074533199
-0.15719312070596875,-0.34881840849031504
-0.13117845313378096,-0.4010715577966486
-0.11979703607094878,-0.4431860363420517
-0.11898407770931792,-0.4782814351298877
-0.11979703607094878,-0.5071376519109972
-0.11817111934768705,-0.5554913124631268
-0.11979703607094878,-0.6015052797627339
-0.1222359111558414,-0.6420599628064555
-0.11979703607094878,-0.6654568953316795
-0.11491928590116357,-0.6966528053653115
-0.11979703607094878,-0.7286286131497842
-0.13849507838845876,-0.7652838074393018
-0.15719312070596875,-0.7918003309678889
-0.16288382923738481,-0.8253359342540433
-0.15719312070596875,-0.8549720487859936
-0.15394128725944528,-0.8908473453246705
-0.15719312070596875,-0.9189236643549392
-0.15963199579086135,-0.9516793698902527
-0.15719312070596875,-0.9820953821730439
-0.15556720398270701,-1.0187505764625615
-0.15719312070596875,-1.0452670999911486
-0.16044495415249221,-1.067884134765532
-0.15719312070596875,-1.0772429077756214
-0.15394128725944528,-1.0920609650415967
-0.15719312070596875,-1.1084388178092535
-0.1636967875990157,-1.1411945233445668
-0.15719312070596875,-1.171610535627358
-0.1376821200268279,-1.199686854657627
-0.11979703607094878,-1.2035863434118308
-0.11817111934768705,-1.2028064456609902
-0.11979703607094878,-1.2035863434118308
-0.10760266064648576,-1.2230837871828508
-0.08158799307429795,-1.2355621511963035
-0.059638117310264506,-1.2394616399505076
-0.044191908439278,-1.2355621511963035
-0.028745699568291497,-1.2480405152097565
-0.006795823804258042,-1.2667580612299356
0.014341093598144542,-1.2901549937551595
0.030600260830761915,-1.2987338690144083
0.04604646970174842,-1.304193153270294
0.06880930382741274,-1.2987338690144083
0.10214059665427835,-1.2971740735127268
0.14360147309745266,-1.2987338690144083
0.18506234954062697,-1.315891619532906
0.21920660072912346,-1.3299297790480402
0.24196943485478778,-1.338508654307289
0.2566026853641434,-1.3299297790480402
0.26148043553392863,-1.3275900857955178
0.2566026853641434,-1.3299297790480402
0.24196943485478778,-1.3486473250682194
0.21920660072912346,-1.361905586832513
0.18587530790225784,-1.3697045643409211
0.14360147309745266,-1.361905586832513
0.10132763829264749,-1.3595658935799906
0.06880930382741274,-1.361905586832513
0.03710392772380886,-1.3806231328526923
-0.006795823804258042,-1.393881394616986
-0.06614178420331146,-1.4016803721253939
-0.11979703607094878,-1.393881394616986
-0.1482505787280292,-1.3923215991153042
-0.15719312070596875,-1.393881394616986
-0.17182637121532437,-1.4118190428863242
-0.1945892053409887,-1.4250773046506178
-0.22222978963643825,-1.4367757709132298
-0.23279824833763954,-1.4250773046506178
-0.23767599850742474,-1.4040200653779162
-0.23279824833763954,-1.361905586832513
-0.23523712342253214,-1.3213509037887916
-0.23279824833763954,-1.2667580612299356
-0.23442416506090127,-1.2051461389135125
-0.23279824833763954,-1.1084388178092535
-0.2336112066992704,-0.9937938484356559
-0.23279824833763954,-0.8549720487859936
-0.2303593732527469,-0.7208296356413763
-0.23279824833763954,-0.570309369729102
-0.24743149884699517,-0.4104303308067382
-0.2701943329726595,-0.2216950751032648
-0.27100729133429036,-0.033739717150632224
-0.1945892053409887,0.15811512955620435
0.016779968683037147,0.3413911010037921
0.4069999822658541,0.5379253342156735
0.9988336695331265,0.7219812034141021
1.7995976557395321,0.8865396288415107
2.786529106759407,1.0121031667268794
3.8685766860900928,1.1400063978647703
4.84819151185529,1.2757086065110694
5.4489677411005015,1.4246690769216621
5.4302696987829915,1.5463331260528268
4.733564382865337,1.6469399359112897
3.5466451748842687,1.7233699154936881
2.2133934618096442,1.805259179331972
1.0606185050170724,1.87155048815344
0.2566026853641434,1.9316026149681815
-0.21328724765849869,1.9666980137560175
-0.45798771450939013,1.9947743327862861
-0.5823703438389131,1.9994537192913309
-0.6465940544077516,1.9947743327862861
-0.6750475970648321,1.9737170935135846
-0.6839901390427716,1.9635784227526543
-0.6848030974044025,1.948760365486679
-0.6839901390427716,1.9316026149681815
-0.6839901390427716,1.8855886476685744
-0.6839901390427716,1.836455089365604
-0.6864290141276642,1.781862246806748
-0.6839901390427716,1.7420874615138673
-0.6750475970648321,1.6913941077092154
-0.6465940544077516,1.6469399359112897
-0.6222053035588256,1.5931269911032746
-0.6083850114111009,1.5517924103087124
-0.6157016366657787,1.5018789542549011
-0.6083850114111009,1.4566448847061348
-0.5896869690935909,1.39347316688803
-0.5709889267760809,1.3303014490699254
-0.5701759684144501,1.2484121852316414
-0.5709889267760809,1.171982205649243
-0.5555427179050944,1.0861934530567552
-0.533592842141061,1.013662962228561
-0.5262762168863832,0.9302139028885954
-0.533592842141061,0.8553437188078787
-0.5384705923108462,0.7695549662153909
-0.533592842141061,0.6962445776363557
-0.5189595916317054,0.6151352115489126
-0.496196757506041,0.5379253342156735
-0.47099504829548405,0.44979688837066323
-0.45798771450939013,0.3796060907949913
-0.45798771450939013,0.31175498647184174
-0.45798771450939013,0.2532626551587818
-0.45310996433960493,0.18073216433058753
-0.45798771450939013,0.12691921952257237
-0.47831167355016185,0.08246504772464684
-0.496196757506041,0.06296760395362686
-0.49700971586767184,0.039570671428402884
-0.496196757506041,0.031771693919994896
-0.5108300080153966,0.024752614162427706
-0.533592842141061,0.031771693919994896
-0.5425353841190005,0.025532511913268503
-0.533592842141061,0.031771693919994896
-0.5173336749084435,0.039570671428402884
-0.496196757506041,0.06296760395362686
-0.4644913814024371,0.07622586571792045
-0.4205916298743702,0.09494341173809963
-0.3677493363683637,0.1066418780007116
-0.30759041760767947,0.12691921952257237
-0.24580558212373343,0.13705789028350276
-0.1945892053409887,0.15811512955620435
-0.16776157940717004,0.17371308457302034
-0.15719312070596875,0.1900909373406771
-0.14499874528150572,0.18775124408815472
-0.11979703607094878,0.1900909373406771
-0.09134349341386838,0.18775124408815472
-0.08158799307429795,0.1900909373406771
-0.0962212435836536,0.17371308457302034
-0.11979703607094878,0.15811512955620435
-0.13930803675008963,0.13705789028350276
-0.15719312070596875,0.12691921952257237
-0.17833003810837134,0.1074217757515524
-0.1945892053409887,0.09494341173809963
-0.19946695551077392,0.07700576346876124
-0.1945892053409887,0.06296760395362686
-0.19296328861772696,0.0325515916708357
-0.1945892053409887,-0.0002041138644778654
-0.19621512206425043,-0.03919900140651782
-0.1945892053409887,-0.0633758316825826
-0.19377624697935783,-0.09379184396537375
-0.1945892053409887,-0.1265475495006873
-0.19540216370261956,-0.17880069880702085
-0.1945892053409887,-0.2216950751032648
-0.1945892053409887,-0.26068996264530475
-0.1945892053409887,-0.2848667929213695
-0.19540216370261956,-0.31840239620752386
-0.1945892053409887,-0.34881840849031504
-0.19540216370261956,-0.3846937050289918
-0.1945892053409887,-0.4119901263084198
-0.1945892053409887,-0.44708552509625576
-0.1945892053409887,-0.4751618441265245
-0.19621512206425043,-0.5094773451635196
-0.1945892053409887,-0.5383335619446292
-0.19377624697935783,-0.5757686539849876
-0.1945892053409887,-0.6015052797627339
-0.1970280804258813,-0.6241223145371171
-0.1945892053409887,-0.6334810875472067
-0.19133737189446523,-0.6514187358165451
-0.1945892053409887,-0.6654568953316795
-0.20190583059566652,-0.6849543391026994
-0.1945892053409887,-0.6966528053653115
-0.17426524630021697,-0.7153703513854907
-0.15719312070596875,-0.7286286131497842
-0.15719312070596875,-0.7481260569208041
-0.15719312070596875,-0.7598245231834162
-0.14174691183498225,-0.7785420692035954
-0.11979703607094878,-0.7918003309678889
-0.11248041081627097,-0.811297774738909
-0.11979703607094878,-0.8237761387523617
-0.124674786240734,-0.8417137870217001
-0.11979703607094878,-0.8549720487859936
-0.10597674392322402,-0.8752493903078544
-0.08158799307429795,-0.8869478565704664
-0.046630783524170605,-0.904105607088964
-0.006795823804258042,-0.9189236643549392
0.030600260830761915,-0.9415406991293224
0.06880930382741274,-0.9501195743885712
0.10783130518569443,-0.9540190631427752
0.14360147309745266,-0.9501195743885712
0.16799022394637872,-0.9641577339037055
0.1809975577324726,-0.9820953821730439
0.1866882662638887,-1.005492314698268
0.1809975577324726,-1.013291292206676
0.16555134886148612,-1.0195304742134024
0.14360147309745266,-1.013291292206676
0.11352201371711051,-1.0156309854591983
0.06880930382741274,-1.013291292206676
0.00946334342835933,-1.020310371964243
-0.044191908439278,-1.013291292206676
-0.08402686815919057,-1.005492314698268
-0.11979703607094878,-0.9820953821730439
-0.16125791251412308,-0.9594783473986608
-0.1945892053409887,-0.9189236643549392
-0.20597062240382086,-0.8682303105502872
-0.1945892053409887,-0.7918003309678889
-0.1897114551712035,-0.7075713738770826
-0.1945892053409887,-0.6015052797627339
-0.20678358076545172,-0.49699898115006685
-0.1945892053409887,-0.380014318523947
-0.17589116302347874,-0.26536934915034954
-0.15719312070596875,-0.1265475495006873
-0.15719312070596875,0.022412920909905307
-0.15719312070596875,0.1900909373406771
-0.15475424562107615,0.3476302830105185
-0.15719312070596875,0.5067294241820416
-0.1734522879385861,0.6502306103367486
-0.1945892053409887,0.7913921032389332
-0.21491316438176042,0.9075968681142123
-0.23279824833763954,1.013662962228561
-0.22222978963643825,1.102571305824412
-0.11979703607094878,1.2031781156828751
0.1427885147358218,1.2991055390362933
0.5956063221642156,1.39347316688803
1.2345915944060784,1.4605443734603387
2.0629961649079336,1.5198166025242394
3.062934949713902,1.565050672073006
4.131975195258494,1.614964128126817
5.037610810115282,1.6484997314129715
5.486363825735522,1.6781358459449218
5.277433526796388,1.692174005460056
4.432769789061916,1.7101116537293946
3.1970730793829953,1.712451346981917
1.911785909644592,1.7101116537293946
0.8549400395244627,1.689054414456693
0.14360147309745266,1.6781358459449218
-0.25718699918656557,1.661757993177265
-0.45798771450939013,1.6469399359112897
-0.557981592989987,1.6118445371234538
-0.6083850114111009,1.5829883203423443
-0.6327737622600269,1.5494527170561898
-0.6465940544077516,1.5198166025242394
-0.6530977213007987,1.4691232487195875
-0.6465940544077516,1.4246690769216621
-0.62627009536698,1.3848942916287812
-0.6083850114111009,1.3614973591035573
-0.6083850114111009,1.3186029828073134
-0.6083850114111009,1.2663498335009797
-0.5978165527098995,1.1969389336761487
-0.5709889267760809,1.1400063978647703
-0.55147792609694,1.0760547822958249
-0.533592842141061,1.013662962228561
-0.5303410086945375,0.9309938006394363
-0.533592842141061,0.8553437188078787
-0.5425353841190005,0.7711147617170724
-0.533592842141061,0.6962445776363557
-0.5100170496537657,0.6104558250438679
-0.496196757506041,0.5379253342156735
-0.49944859095256444,0.4669546388891608
-0.496196757506041,0.41158189857946403
-0.4628654646791754,0.34451069200715534
-0.4205916298743702,0.2852384629432546
-0.4051454210033837,0.2158275631184235
-0.4205916298743702,0.15811512955620435
-0.4327860052988332,0.09806300274146282
-0.4205916298743702,0.06296760395362686
-0.3953899206638133,0.03879077367756209
-0.38319554523935023,0.031771693919994896
-0.3840085036009811,0.01149435239813412
-0.38319554523935023,-0.0002041138644778654
-0.37750483670793417,-0.011122682376249053
-0.38319554523935023,-0.0002041138644778654
-0.4043324626417528,0.010714454647293321
-0.4205916298743702,0.031771693919994896
-0.4205916298743702,0.04347016018260688
-0.4205916298743702,0.06296760395362686
-0.4392896721918802,0.07466607021623885
-0.45798771450939013,0.09494341173809963
-0.4514840476163432,0.1074217757515524
-0.4205916298743702,0.12691921952257237
-0.3937640039405515,0.13783778803434357
-0.38319554523935023,0.15811512955620435
-0.37344004489977983,0.17215328907133873
-0.3449865022426994,0.1900909373406771
-0.2953960421832164,0.1916507328423587
-0.23279824833763954,0.1900909373406771
-0.17020045449206264,0.17293318682217954
-0.11979703607094878,0.15811512955620435
-0.08971757669060665,0.13705789028350276
-0.08158799307429795,0.12691921952257237
-0.09540828522202273,0.10976146900407481
-0.11979703607094878,0.09494341173809963
-0.1328043698570427,0.06296760395362686
-0.11979703607094878,0.031771693919994896
-0.09296941013713012,-0.006443295871204258
-0.08158799307429795,-0.03140002389810983
-0.0986601186685462,-0.0633758316825826
-0.11979703607094878,-0.09535163946705535
-0.124674786240734,-0.14370530001918488
-0.11979703607094878,-0.19049916506963285
-0.11898407770931792,-0.24197241662512559
-0.11979703607094878,-0.2848667929213695
-0.11735816098605618,-0.33556014672602147
-0.11979703607094878,-0.380014318523947
-0.13686916166519703,-0.43070767232859897
-0.15719312070596875,-0.4751618441265245
-0.16450974596064658,-0.5266350956820173
-0.15719312070596875,-0.570309369729102
-0.15312832889781441,-0.6194429280320723
-0.15719312070596875,-0.6654568953316795
-0.16288382923738481,-0.7192698401396946
-0.15719312070596875,-0.7598245231834162
-0.14093395347335136,-0.7972596152237745
-0.11979703607094878,-0.8237761387523617
-0.10922857736974749,-0.8580916397893569
-0.11979703607094878,-0.8869478565704664
-0.143372828558244,-0.9204834598566208
-0.15719312070596875,-0.9501195743885712
-0.14743762036639832,-0.9883345641797703
-0.11979703607094878,-1.013291292206676
-0.09459532686039186,-1.0335686337285366
-0.08158799307429795,-1.0452670999911486
-0.08077503471266709,-1.0733434190214175
-0.08158799307429795,-1.1084388178092535
-0.0832139097975597,-1.1489935008529748
-0.08158799307429795,-1.171610535627358
-0.08240095143592883,-1.191107979398378
-0.08158799307429795,-1.2035863434118308
-0.0832139097975597,-1.2230837871828508
-0.08158799307429795,-1.2355621511963035
-0.08158799307429795,-1.2519400039639603
-0.08158799307429795,-1.2667580612299356
-0.0832139097975597,-1.2893750960043187
-0.08158799307429795,-1.2987338690144083
-0.08077503471266709,-1.3010735622669307
-0.08158799307429795,-1.2987338690144083
-0.0856527848824523,-1.3135519262803834
-0.08158799307429795,-1.3299297790480402
-0.06695474256494233,-1.3494272228190602
-0.044191908439278,-1.361905586832513
-0.023867949398506283,-1.3821829283543738
-0.006795823804258042,-1.393881394616986
0.00946334342835933,-1.4001205766237121
0.030600260830761915,-1.393881394616986
0.06230563693436579,-1.393881394616986
0.1062053884624327,-1.393881394616986
0.1501051399904996,-1.40791955413212
0.1809975577324726,-1.4250773046506178
0.19888264168835174,-1.4508139304283643
0.21920660072912346,-1.4570531124350905
0.24522126830131125,-1.4578330101859314
0.2566026853641434,-1.4570531124350905
0.23221393451521735,-1.4773304539569514
0.1809975577324726,-1.4882490224687226
0.1346589311195131,-1.4866892269670409
0.1062053884624327,-1.4570531124350905
0.07856480416698317,-1.4305365889065034
0.030600260830761915,-1.393881394616986
-0.03199753301481497,-1.3478674273173787
-0.08158799307429795,-1.2667580612299356
-0.10760266064648576,-1.1692708423748357
-0.11979703607094878,-1.0452670999911486
-0.13849507838845876,-0.9150241756007352
-0.15719312070596875,-0.7598245231834162
-0.16694862104553918,-0.5983856887593708
-0.15719312070596875,-0.4119901263084198
-0.15312832889781441,-0.21701568859822
-0.15719312070596875,-0.0002041138644778654
-0.17995595483163307,0.20880848336085628
-0.1945892053409887,0.41158189857946403
-0.20515766404219,0.5854990970169622
-0.1945892053409887,0.7601961932053012
-0.17507820466184787,0.9380128803970035
-0.15719312070596875,1.1400063978647703
-0.15231537053618352,1.3349808355749702
-0.15719312070596875,1.5198166025242394
-0.1815818715548948,1.6703368684365139
-0.23279824833763954,1.805259179331972
-0.2645036244412434,1.917564455453047
-0.1945892053409887,2.026750140570759
0.006211509981835856,2.1125388931632467
0.3322078129958142,2.1850693839914412
0.8484363726314158,2.2334230445435708
1.6483874004761905,2.2802169095940186
2.654016893813575,2.3043937398700836
3.6425742615567116,2.3114128196276504
4.528698875734358,2.2911354781057898
5.3359665288338105,2.2802169095940186
5.813986045472761,2.2661787500788844
5.4489677411005015,2.248241101809546
4.1100253194944605,2.1983276457557346
2.401186843346375,2.1530935762069685
1.0776906306113208,2.1140986886649284
0.3322078129958142,2.0899218583888635
-0.10597674392322402,2.0431279933384157
-0.4205916298743702,1.9947743327862861
-0.5823703438389131,1.940961387978271
-0.6083850114111009,1.9004067049345494
-0.6157016366657787,1.8395746803689672
-0.6465940544077516,1.7732833715474992
-0.6587884298322148,1.6906142099583745
-0.6465940544077516,1.614964128126817
-0.644155179322859,1.52995527328517
-0.6465940544077516,1.4566448847061348
-0.6311478455367652,1.3747556208678509
-0.6083850114111009,1.2983256412854527
-0.6083850114111009,1.2016183201811934
-0.6083850114111009,1.1080305900802976
-0.5961906359866378,1.0066438824709938
-0.5709889267760809,0.9185154366259835
-0.5693630100528192,0.8202483200200428
-0.5709889267760809,0.7282203854208285
-0.5628593431597723,0.6268336778115245
-0.533592842141061,0.5379253342156735
-0.5067652162072422,0.43965821760973284
-0.496196757506041,0.3484101807613593
-0.49700971586767184,0.2532626551587818
-0.496196757506041,0.1900909373406771
-0.4823764653583162,0.13705789028350276
-0.45798771450939013,0.09494341173809963
-0.4335989636604641,0.03723097817588049
-0.4205916298743702,-0.0002041138644778654
-0.4189657131511085,-0.025160841891383436
-0.4205916298743702,-0.03140002389810983
-0.4205916298743702,-0.054017058672493
-0.4205916298743702,-0.0633758316825826
-0.4214045882360011,-0.06025624067921939
-0.4205916298743702,-0.03140002389810983
-0.4181527547894776,-0.015022171130453048
-0.4205916298743702,-0.0002041138644778654
-0.4352248803837258,0.006035068142248527
-0.45798771450939013,0.031771693919994896
-0.48075054863505445,0.05750831969774127
-0.496196757506041,0.09494341173809963
-0.5002615493141953,0.12457952627004999
-0.496196757506041,0.15811512955620435
-0.49213196569788664,0.17605277782554274
-0.496196757506041,0.1900909373406771
-0.5027004243990879,0.1869713463373139
-0.496196757506041,0.1900909373406771
-0.46611729812569885,0.1869713463373139
-0.4205916298743702,0.1900909373406771
-0.37831779506956503,0.18541155083563232
-0.3449865022426994,0.1900909373406771
-0.31246816777746467,0.17995226657974672
-0.2701943329726595,0.15811512955620435
-0.22629458144459258,0.116780548761642
-0.1945892053409887,0.09494341173809963
-0.17589116302347874,0.08090525222296524
-0.15719312070596875,0.06296760395362686
-0.13361732821867356,0.013834045650656518
-0.11979703607094878,-0.03140002389810983
-0.1295525364105192,-0.06805521818762739
-0.15719312070596875,-0.09535163946705535
-0.18320778827815654,-0.1444851977700257
-0.1945892053409887,-0.19049916506963285
-0.19540216370261956,-0.2271543593591504
-0.1945892053409887,-0.2536708828877376
-0.19540216370261956,-0.3012446456890263
-0.1945892053409887,-0.34881840849031504
-0.19377624697935783,-0.3885931937831958
-0.1945892053409887,-0.4119901263084198
-0.1970280804258813,-0.4541046048538229
-0.1945892053409887,-0.5071376519109972
-0.19133737189446523,-0.5656299832240572
-0.1945892053409887,-0.6015052797627339
-0.20190583059566652,-0.6358207807997291
-0.1945892053409887,-0.6654568953316795
-0.17263932957695524,-0.7036718851228786
-0.15719312070596875,-0.7286286131497842
-0.16938749613043177,-0.7481260569208041
-0.1945892053409887,-0.7598245231834162
-0.20678358076545172,-0.7894606377153666
-0.1945892053409887,-0.8237761387523617
-0.17426524630021697,-0.8627710262944016
-0.15719312070596875,-0.8869478565704664
-0.15231537053618352,-0.908005095843168
-0.15719312070596875,-0.9189236643549392
-0.16450974596064658,-0.935301517122596
-0.15719312070596875,-0.9501195743885712
-0.1376821200268279,-0.9805355866713623
-0.11979703607094878,-1.013291292206676
-0.11735816098605618,-1.0530660774995566
-0.11979703607094878,-1.0772429077756214
-0.10841561900811662,-1.0967403515466414
-0.08158799307429795,-1.1084388178092535
-0.058012200587002766,-1.1271563638294326
-0.044191908439278,-1.1404146255937262
-0.03281049137644584,-1.1575723761122236
-0.006795823804258042,-1.171610535627358
0.03141321919239278,-1.1942275704017413
0.06880930382741274,-1.2035863434118308
0.10214059665427835,-1.207485832166035
0.14360147309745266,-1.2035863434118308
0.18994009971041217,-1.207485832166035
