ECG,PPG
-0.297893108829275,0.7040491473419977
-0.22806695320935613,1.4046828324172906
-0.338437328221486,0.841690689839736
-0.3825854782263379,0.5807452655211072
-0.37943203894027705,0.9793322323374745
-0.4253821542514495,1.2326309042951178
-0.41997625833248803,1.081607545165655
-0.29203672158373345,0.9974932691948148
-0.2168046700448531,1.1848387020389588
-0.3330314323025245,1.322480244536697
-0.460520477724699,1.2871140148671392
-0.3884418654718795,1.2651296018293061
-0.2168046700448531,1.3559347861160085
-0.16770111544761981,1.4247555573648776
-0.2168046700448531,1.4247555573648776
-0.1902256817766259,1.4180646490490154
-0.09472152054164008,1.4591659429893122
-0.10283036442008228,1.5031347690649786
-0.2573488894370641,1.5279867142381813
-0.393847761390841,1.5241633380576887
-0.37943203894027705,1.5279867142381813
-0.31050686597351845,1.5404126868247827
-0.338437328221486,1.562397099862616
-0.4564660557854779,1.5461477510955217
-0.460520477724699,1.5279867142381813
-0.3208681664848612,1.5165165856967031
-0.2168046700448531,1.5279867142381813
-0.29834360015585515,1.5136490535613336
-0.41997625833248803,1.4935763286137467
-0.36051140322391195,1.4658568513051744
-0.13526573993385105,1.4591659429893122
0.008891484571787931,1.43144646568074
-0.09472152054164008,1.390345171740443
-0.3821349868997578,1.3282153088074362
-0.664142557338914,1.2871140148671392
-0.8078492905179729,1.2498360971073352
-0.786225706842127,1.2192490876633932
-0.6254003032530235,1.1647659770913719
-0.297893108829275,1.1160179307900895
0.3327947483828955,1.061534820218068
1.491908931673549,1.0127867739167857
3.2695477063587095,0.9410984705325471
5.274684600966832,0.8761010754641707
6.56399077763914,0.8139712125311638
6.291894016384747,0.772869918590867
4.5777745187473835,0.7193426520639687
2.508667855764884,0.6705946057626864
1.0801598591793176,0.611332274965049
0.39361107747121193,0.5673634488893826
-0.01183111645089767,0.5128803383173612
-0.37943203894027705,0.4641322920160789
-0.6348606211112061,0.40678164930868793
-0.745230996123336,0.36185697918789833
-0.8055968338850723,0.30737386861587696
-0.826769926234338,0.25862582231459463
-0.7686565451055023,0.20031933556208045
-0.704686776731125,0.15539466544129088
-0.7727109670447234,0.103779087004639
-0.9488530757375511,0.053119352613110314
-1.0560700114636201,-0.009966354365019749
-0.989397295129762,-0.050111804260193425
-0.8461410532772833,-0.08547803392975119
-0.786225706842127,-0.11893257550906258
-0.8610072670544273,-0.17532737417133037
-0.9488530757375511,-0.22120788833724314
-0.9416452145122691,-0.2613533382324168
-0.826769926234338,-0.2900286595861123
-0.7258598690803907,-0.34260008206788733
-0.704686776731125,-0.39325981645941605
-0.7447805047967558,-0.4391403306253288
-0.786225706842127,-0.4620805877082852
-0.8245174696014375,-0.4945792852424734
-0.867314145626549,-0.5299455149120311
-0.8781259374644719,-0.5729584969425744
-0.786225706842127,-0.5987662861609003
-0.6091826154961392,-0.6322208277402117
-0.460520477724699,-0.6675870574097695
-0.4325900154767314,-0.7134675715756823
-0.5015151884434901,-0.7364078286586386
-0.6060291762100783,-0.7526571774257328
-0.704686776731125,-0.7708182142830732
-0.7542408226549384,-0.8119195082233701
-0.704686776731125,-0.8386831414868192
-0.6145885114151006,-0.8568441783441597
-0.623147846620123,-0.8730935271112538
-0.7628001578599607,-0.9151506650966739
-0.867314145626549,-0.941914298360123
-0.79703749868005,-0.9495610507211084
-0.623147846620123,-0.941914298360123
-0.5195348415066949,-0.9600753352174635
-0.5015151884434901,-0.9763246839845575
-0.44610475527413507,-0.983971436345543
-0.297893108829275,-0.9763246839845575
-0.18076536391844336,-0.9820597482552966
-0.2168046700448531,-0.9763246839845575
-0.33393241495568476,-0.962942867352833
-0.338437328221486,-0.941914298360123
-0.19292862973610664,-0.9438259864503693
-0.053726809822849,-0.941914298360123
-0.02444487359514108,-0.9304441698186448
-0.013182590430638037,-0.9075039127356883
0.03727243814633561,-0.9065480686905651
0.027361628961572924,-0.9075039127356883
-0.09246906390873948,-0.9017688484649493
-0.175809959326062,-0.8730935271112538
-0.11904805217696666,-0.8520649581185438
-0.013182590430638037,-0.8386831414868192
0.07961862284486705,-0.8425065176673119
0.27152792796799896,-0.8386831414868192
0.5445256718755528,-0.8310363891258338
0.5967826657588469,-0.8042727558623847
0.23909255245423017,-0.7832441868696746
-0.2573488894370641,-0.7708182142830732
-0.5001637144637497,-0.7765532785538123
-0.460520477724699,-0.7708182142830732
-0.386639900165559,-0.7564805536062255
-0.37943203894027705,-0.7364078286586386
-0.34969961138598904,-0.7354519846135155
-0.2573488894370641,-0.7364078286586386
-0.1897751904500458,-0.7402312048391314
-0.2168046700448531,-0.7364078286586386
-0.33978880220122637,-0.7411870488842546
-0.5015151884434901,-0.7364078286586386
-0.6069301588632385,-0.7344961405683923
-0.582603627227912,-0.7364078286586386
-0.5100745236485124,-0.7574363976513486
-0.5420594078357011,-0.7708182142830732
-0.6736028751970966,-0.774641590463566
-0.704686776731125,-0.7708182142830732
-0.5452128471217619,-0.7861117190050442
-0.37943203894027705,-0.8042727558623847
-0.4379959113956929,-0.8262571689002178
-0.664142557338914,-0.8386831414868192
-0.7866761981687072,-0.8597117104795292
-0.664142557338914,-0.8730935271112538
-0.47403521752210265,-0.8902987199234711
-0.460520477724699,-0.9075039127356883
-0.6141380200885205,-0.9447818304954925
-0.704686776731125,-0.9763246839845575
-0.6362120950909465,-1.0011766291577602
-0.5420594078357011,-1.010735069608992
-0.5289951593648775,-1.0279402624212095
-0.5015151884434901,-1.0451454552334267
-0.3970012006769018,-1.06712986827126
-0.338437328221486,-1.078599996812738
-0.42718411955776997,-1.098672721760325
-0.5420594078357011,-1.1130103824371727
-0.5663859394710277,-1.134994795475006
-0.582603627227912,-1.1474207680616073
-0.6745038578502569,-1.167493493009194
-0.704686776731125,-1.1818311536860417
-0.545663338448342,-1.2028597226787519
-0.338437328221486,-1.2162415393104764
-0.3177147271988004,-1.2363142642580633
-0.460520477724699,-1.250651924934911
-0.5564751302862649,-1.271680493927621
-0.5015151884434901,-1.2850623105593455
-0.37943203894027705,-1.3041791914618093
-0.297893108829275,-1.3194726961837802
-0.3132098139329992,-1.3424129532667366
-0.41997625833248803,-1.3538830818082148
-0.5371040032433197,-1.360573990124077
-0.5420594078357011,-1.3538830818082148
-0.4316890328235712,-1.3557947698984611
-0.338437328221486,-1.3538830818082148
-0.3555559986315306,-1.3491038615825988
-0.41997625833248803,-1.3194726961837802
-0.46187195170443934,-1.2869739986495918
-0.5015151884434901,-1.250651924934911
-0.5524207083470438,-1.2248441357165851
-0.5420594078357011,-1.1818311536860417
-0.460520477724699,-1.1340389514298828
-0.41997625833248803,-1.078599996812738
-0.475386691501843,-1.0374987028724412
-0.5015151884434901,-0.9763246839845575
-0.40556053588192414,-0.8989013163295797
-0.297893108829275,-0.8042727558623847
-0.33122946699620404,-0.7344961405683923
-0.460520477724699,-0.6675870574097695
-0.5339505639572588,-0.5978104421157772
-0.5015151884434901,-0.4955351292875966
-0.4339414894564718,-0.39325981645941605
-0.37943203894027705,-0.2900286595861123
-0.3537540333252101,-0.2068702276603954
-0.37943203894027705,-0.11893257550906258
-0.45376310782599716,-0.036729987628468866
-0.5015151884434901,0.053119352613110314
-0.46637686497024056,0.1324544083583345
-0.37943203894027705,0.22421543669016003
-0.31906620117854073,0.31024140075124645
-0.297893108829275,0.39626736481233293
-0.27987345576607014,0.4603089158355862
-0.2573488894370641,0.5329530632649481
-0.29428917821663403,0.600817990468694
-0.41997625833248803,0.6705946057626864
-0.5560246389596848,0.7174309639737223
-0.582603627227912,0.772869918590867
-0.5105250149750925,0.8235296529823957
-0.460520477724699,0.8761010754641707
-0.48800044864608644,0.903820552772743
-0.5015151884434901,0.9449218467130398
-0.4519611425196767,0.9908023608789526
-0.41997625833248803,1.0471971595412204
-0.45826802109179837,1.0787400130302853
-0.460520477724699,1.1160179307900895
-0.34834813740624865,1.1590309128206329
-0.2168046700448531,1.2192490876633932
-0.19112666442978615,1.2555711613780742
-0.2168046700448531,1.2871140148671392
-0.18121585524502348,1.311965960040342
-0.09472152054164008,1.3559347861160085
-0.03705863073938449,1.390345171740443
-0.013182590430638037,1.4247555573648776
-0.019939960329339864,1.4390932180417253
-0.09472152054164008,1.4591659429893122
-0.2082453348398308,1.468724383440544
-0.2168046700448531,1.4935763286137467
-0.10192938176692204,1.5079139892905944
-0.013182590430638037,1.5279867142381813
-0.04696943992414717,1.526075026147935
-0.053726809822849,1.5279867142381813
0.029614085594473535,1.5203399618771958
0.068356339680364,1.5279867142381813
-0.03255371747358327,1.5251191821028118
-0.09472152054164008,1.5279867142381813
0.01564885447048976,1.5088698333357176
0.14944477846478593,1.4935763286137467
0.10574711978651412,1.4677685393954207
-0.053726809822849,1.4591659429893122
-0.18527027718424458,1.4400490620868485
-0.297893108829275,1.4247555573648776
-0.445654263947555,1.3874776396050734
-0.5015151884434901,1.3559347861160085
-0.2996950741355955,1.316745180265958
0.1899889978569969,1.2871140148671392
0.963482605595066,1.2374101245207338
2.142868898581825,1.1848387020389588
3.737608194675456,1.1207971510157055
5.315228820359042,1.081607545165655
6.106742081160316,1.045285471450974
5.640934049476471,1.0127867739167857
4.198460821766921,0.9573478192996412
2.590206785875886,0.9105114610886053
1.4373994811573543,0.8665426350129388
0.8004047453730619,0.841690689839736
0.4188385917596988,0.804412772079932
0.14944477846478593,0.772869918590867
-0.004623255225615723,0.7327244686956933
-0.053726809822849,0.7040491473419977
-0.057330740435489976,0.6648595414919473
-0.013182590430638037,0.6361842201382518
0.07286125294616523,0.5969946142882013
0.10890055907257497,0.5673634488893826
-0.007776694511676575,0.5253063109039626
-0.2168046700448531,0.49854267764051347
-0.35420452465179025,0.4746465765124339
-0.338437328221486,0.4641322920160789
-0.2582498720902243,0.43258943852701387
-0.2168046700448531,0.39626736481233293
-0.2316708838219971,0.3484751625561738
-0.2168046700448531,0.3274465935634638
-0.15824079758943727,0.3083297126610001
-0.09472152054164008,0.2930362079390292
-0.0992264338074413,0.25480244613410186
-0.13526573993385105,0.22421543669016003
-0.13932016187307214,0.19649595938158773
-0.09472152054164008,0.18980505106572546
-0.06949400625315326,0.171644014208385
-0.09472152054164008,0.15539466544129088
-0.1258054220756685,0.1305427202680881
-0.09472152054164008,0.12098427981685629
-0.029850769514102544,0.103779087004639
-0.013182590430638037,0.0875297382375449
-0.07670186747843522,0.05981026092897259
-0.13526573993385105,0.053119352613110314
-0.10868675166562386,0.049295976432617586
-0.013182590430638037,0.053119352613110314
0.046732756004518164,0.03400247171064666
0.027361628961572924,0.018708966988675736
-0.019939960329339864,-0.003275446049157469
-0.013182590430638037,-0.015701418635758847
0.03727243814633561,-0.039597519763838414
0.068356339680364,-0.050111804260193425
0.0453812820247778,-0.05584686853093252
0.027361628961572924,-0.050111804260193425
0.06295044376140255,-0.06540530898216435
0.14944477846478593,-0.08452218988462801
0.249453852965573,-0.11032997910295395
0.353066858079001,-0.11893257550906258
0.4174871177799584,-0.13613776832127988
0.39361107747121193,-0.15334296113349716
0.3035128121551876,-0.1801065943969463
0.27152792796799896,-0.18775334675793173
0.3413540835879178,-0.1906208788933013
0.4341552968634229,-0.18775334675793173
0.4873132733998773,-0.20495853957014903
0.5562384463666359,-0.22120788833724314
0.6386783591307982,-0.24414814542019952
0.637777376477638,-0.25561827396167774
0.5494810764679341,-0.2776026869995109
0.5562384463666359,-0.2900286595861123
0.7166133586291593,-0.3005429440824673
0.8409489647652729,-0.2900286595861123
0.7684198611858734,-0.28811697149586596
0.637777376477638,-0.2900286595861123
0.6265150933131349,-0.3129689166690687
0.678321595869849,-0.3244390452105469
0.6314704979055162,-0.33208579757153234
0.515694226974425,-0.3244390452105469
0.4481205279874067,-0.32539488925567006
0.4341552968634229,-0.3244390452105469
0.4030713953293945,-0.340688393977641
0.39361107747121193,-0.35884943083498144
0.4517244586000477,-0.38656890814355377
0.515694226974425,-0.39325981645941605
0.48461032544039656,-0.3942156605045392
0.39361107747121193,-0.39325981645941605
0.32783934379051416,-0.41428838545212604
0.3120721473602099,-0.4276702020838506
0.31882951725891173,-0.4334052663545897
0.353066858079001,-0.4276702020838506
0.3737894591016866,-0.4439195508509447
0.3120721473602099,-0.4620805877082852
0.175573275406433,-0.4745065602948866
0.10890055907257497,-0.4620805877082852
0.175573275406433,-0.4573013674826693
0.27152792796799896,-0.4620805877082852
0.2728794019477393,-0.4850208447912416
0.23098370857578798,-0.4955351292875966
0.2354886218415892,-0.5012701935583357
0.27152792796799896,-0.4955351292875966
0.25350827490479405,-0.5098727899644443
0.1899889978569969,-0.5299455149120311
0.12556873815603947,-0.5586208362657267
0.068356339680364,-0.5643559005364658
0.0061885366123072,-0.565311744581589
-0.013182590430638037,-0.5643559005364658
0.021505241716031343,-0.5834727814389294
0.068356339680364,-0.5987662861609003
0.10214318917387315,-0.617883167063364
0.1899889978569969,-0.6331766717853349
0.338200644301857,-0.6589844610036608
0.4341552968634229,-0.6675870574097695
0.37288847644852635,-0.6694987455000159
0.23098370857578798,-0.6675870574097695
0.15349920040400702,-0.6876597823573564
0.1899889978569969,-0.7019974430342041
0.25170630959847357,-0.7077325073049432
0.27152792796799896,-0.7019974430342041
0.26116662745665614,-0.7163351037110518
0.27152792796799896,-0.7364078286586386
0.28774561572488333,-0.7603039297867182
0.27152792796799896,-0.7708182142830732
0.21791946010496446,-0.7889792511404137
0.1899889978569969,-0.8042727558623847
0.21656798612522407,-0.827213012945341
0.27152792796799896,-0.8386831414868192
0.31567607797285085,-0.858755866434406
0.353066858079001,-0.8730935271112538
0.3503639101195203,-0.8960337841942102
0.27152792796799896,-0.9075039127356883
0.17016737948747154,-0.9180181972320434
0.1899889978569969,-0.9075039127356883
0.32513639583103343,-0.895077940149087
0.39361107747121193,-0.8730935271112538
0.2868446330717231,-0.8616233985697755
0.14944477846478593,-0.8386831414868192
0.1305241427484208,-0.8138311963136164
0.1899889978569969,-0.7708182142830732
0.22647879530998677,-0.7364078286586386
0.27152792796799896,-0.7019974430342041
0.3368491703221166,-0.6771454978610013
0.3120721473602099,-0.6331766717853349
0.1381824953002829,-0.5853844695291758
-0.013182590430638037,-0.5299455149120311
0.027361628961572924,-0.48693253288148797
0.1899889978569969,-0.4276702020838506
0.28143873715276163,-0.36267280701547416
0.27152792796799896,-0.2900286595861123
0.25350827490479405,-0.2403247692397068
0.27152792796799896,-0.18775334675793173
0.27963677184644115,-0.13040270405054077
0.27152792796799896,-0.050111804260193425
0.25936466215033566,0.0206206550789221
0.23098370857578798,0.0875297382375449
0.16431099224192997,0.13436609644858086
0.10890055907257497,0.18980505106572546
0.11791038560417741,0.23855309736700778
0.1899889978569969,0.2930362079390292
0.2584636794971754,0.3379608780598188
0.27152792796799896,0.39626736481233293
0.20170177234808007,0.4469270992038616
0.068356339680364,0.49854267764051347
-0.07309793686579424,0.5291296870844553
-0.13526573993385105,0.5673634488893826
-0.09652348584796057,0.5998621464235708
-0.013182590430638037,0.6361842201382518
0.029614085594473535,0.6495660367699764
0.027361628961572924,0.6705946057626864
0.03772292947291573,0.694490706890766
0.10890055907257497,0.7384595329664324
0.1962958764291186,0.7709582305006206
0.23098370857578798,0.8072803042153015
0.1917909631633174,0.8349997815238738
0.14944477846478593,0.8761010754641707
0.16431099224192997,0.9076439289532358
0.23098370857578798,0.9449218467130398
0.279186280519861,0.9621270395252571
0.27152792796799896,0.9793322323374745
0.22557781265682653,0.9850672966082135
0.1899889978569969,1.0127867739167857
0.17061787081405166,1.044329627405851
0.14944477846478593,1.081607545165655
0.09448483662201107,1.0959452058425028
0.027361628961572924,1.1160179307900895
-0.05012287921020803,1.129399747421814
-0.09472152054164008,1.1504283164145241
-0.08796415064293826,1.149472472369401
-0.013182590430638037,1.1504283164145241
0.07466321825248572,1.1437374080986618
0.10890055907257497,1.1504283164145241
0.049886195290579013,1.1456490961889083
-0.053726809822849,1.1504283164145241
-0.1136421562580052,1.1456490961889083
-0.09472152054164008,1.1504283164145241
-0.0992264338074413,1.13417896764743
-0.2168046700448531,1.1160179307900895
-0.3506005940391493,1.0882984534815172
-0.297893108829275,1.081607545165655
-0.024895364921721203,1.0672698844888073
0.4341552968634229,1.0471971595412204
1.2990986438972567,1.0041841775106772
2.874917304274523,0.9793322323374745
4.835455557551213,0.9592595073898875
6.169810866881534,0.9449218467130398
6.138276474020925,0.903820552772743
5.030518301960406,0.8761010754641707
3.6407525594607297,0.8541166624263374
2.386584706261671,0.841690689839736
1.2639603204240073,0.8034569280348088
0.353066858079001,0.772869918590867
-0.15824079758943727,0.7480179734176642
-0.297893108829275,0.7384595329664324
-0.32312062311776185,0.7040491473419977
-0.37943203894027705,0.6705946057626864
-0.4253821542514495,0.6400075963187445
-0.41997625833248803,0.6361842201382518
-0.4298870675172507,0.6208907154162808
-0.5015151884434901,0.6017738345138173
-0.582603627227912,0.56354007270889
-0.582603627227912,0.5329530632649481
-0.508723049668772,0.4928076133697744
-0.460520477724699,0.4641322920160789
-0.5172823848737943,0.4364128147075066
-0.623147846620123,0.4297219063916443
-0.6997313721387437,0.4144284016696734
-0.704686776731125,0.39626736481233293
-0.6686474706047153,0.35516607087203605
-0.582603627227912,0.3274465935634638
-0.5028666624232304,0.302594648390261
-0.5015151884434901,0.2930362079390292
-0.5695393787570885,0.2700959508560728
-0.582603627227912,0.25862582231459463
-0.5177328762003744,0.25097906995360914
-0.5015151884434901,0.25862582231459463
-0.5853065751873927,0.24619984972799322
-0.623147846620123,0.22421543669016003
-0.5366535119167396,0.18311414274986318
-0.460520477724699,0.15539466544129088
-0.5037676450763907,0.1305427202680881
-0.5420594078357011,0.12098427981685629
-0.46322342568417973,0.103779087004639
-0.37943203894027705,0.0875297382375449
-0.43078805017041094,0.052163508567987134
-0.5420594078357011,0.018708966988675736
-0.5947668930455753,-0.022392326951621123
-0.623147846620123,-0.050111804260193425
-0.6817117190755388,-0.08547803392975119
-0.664142557338914,-0.11893257550906258
-0.5109755063016727,-0.17054815394571446
-0.37943203894027705,-0.22120788833724314
-0.4375454200691128,-0.27855853104463413
-0.582603627227912,-0.3244390452105469
-0.5992718063113766,-0.3779663117374451
-0.460520477724699,-0.4276702020838506
-0.3388878195480661,-0.4850208447912416
-0.338437328221486,-0.5299455149120311
-0.4141198710869464,-0.5825169373938063
-0.460520477724699,-0.6331766717853349
-0.4217782236388085,-0.6933948466280955
-0.297893108829275,-0.7364078286586386
-0.16184472820207824,-0.7727299023733196
-0.09472152054164008,-0.8042727558623847
-0.09066709860241899,-0.8578000223892829
-0.053726809822849,-0.9075039127356883
0.050787177943739256,-0.9514727388113547
0.14944477846478593,-0.9763246839845575
0.17287032744695227,-1.009779225563869
0.14944477846478593,-1.0451454552334267
0.11836087693075753,-1.0862467491737235
0.068356339680364,-1.1130103824371727
0.003035097326246348,-1.1464649240164841
-0.013182590430638037,-1.1818311536860417
0.02601015498183256,-1.2363142642580633
0.027361628961572924,-1.2850623105593455
-0.060934671048130946,-1.329031136635012
-0.13526573993385105,-1.3538830818082148
-0.08526120268345752,-1.3739558067558015
0.027361628961572924,-1.387337623387526
0.02826261161473317,-1.4179246328314679
-0.13526573993385105,-1.4561583946363952
-0.3447442067936077,-1.502038908802308
-0.460520477724699,-1.5249791658852645
-0.4812430787473846,-1.5402726706072354
-0.5015151884434901,-1.559389551509699
-0.5902619797797741,-1.5995350014048726
-0.704686776731125,-1.6282103227585683
-0.7542408226549384,-1.6454155155707855
-0.704686776731125,-1.6626207083830027
-0.6339596384580459,-1.7027661582781763
-0.623147846620123,-1.7304856355867488
-0.6632415746857538,-1.737176543902611
-0.664142557338914,-1.7304856355867488
-0.5997222976379566,-1.747690828398966
-0.5420594078357011,-1.7648960212111833
-0.5722423267165692,-1.7715869295270457
-0.664142557338914,-1.7648960212111833
-0.730364782346192,-1.779233681888031
-0.704686776731125,-1.799306406835618
-0.5974698410050561,-1.8107765353770962
-0.460520477724699,-1.799306406835618
-0.3821349868997578,-1.7945271866100019
-0.41997625833248803,-1.799306406835618
-0.5506187430407233,-1.8203349758283278
-0.664142557338914,-1.8337167924600524
-0.6799097537692184,-1.841363544821038
-0.623147846620123,-1.8337167924600524
-0.582603627227912,-1.8298934162795597
-0.582603627227912,-1.8337167924600524
-0.5699898700836686,-1.8547453614527625
-0.5015151884434901,-1.868127178084487
-0.42583264557802963,-1.8738622423552262
-0.41997625833248803,-1.868127178084487
-0.4857479920131858,-1.8700388661747334
-0.5420594078357011,-1.868127178084487
-0.5393564598762203,-1.8700388661747334
-0.5015151884434901,-1.868127178084487
-0.45736703843863813,-1.8729063983101029
-0.37943203894027705,-1.868127178084487
-0.268160681274987,-1.8671713340393639
-0.2168046700448531,-1.868127178084487
-0.3262740624038227,-1.877685618535719
-0.5420594078357011,-1.868127178084487
-0.6817117190755388,-1.8499661412271466
-0.623147846620123,-1.8337167924600524
-0.4591690037449586,-1.8404077007759148
-0.37943203894027705,-1.8337167924600524
-0.45961949507153876,-1.8069531591966033
-0.582603627227912,-1.7648960212111833
-0.5988213149847964,-1.737176543902611
-0.5015151884434901,-1.6960752499623142
-0.42448117159828924,-1.6377687632098
-0.460520477724699,-1.559389551509699
-0.5542226736533643,-1.4943921564413225
-0.582603627227912,-1.4217480090119607
-0.5244902460990762,-1.3433687973118598
-0.460520477724699,-1.250651924934911
-0.4528621251728369,-1.1703610251445635
-0.460520477724699,-1.078599996812738
-0.43349099812989167,-0.9811039042101735
-0.37943203894027705,-0.8730935271112538
-0.3343829062822649,-0.7880234070952905
-0.297893108829275,-0.7019974430342041
-0.2744675598471087,-0.6111922587475017
-0.297893108829275,-0.4955351292875966
-0.38348646087949817,-0.38083384387281466
-0.460520477724699,-0.25561827396167774
-0.4519611425196767,-0.13804945641152624
-0.37943203894027705,-0.015701418635758847
-0.36096189455049205,0.0875297382375449
-0.460520477724699,0.18980505106572546
-0.608281632842979,0.28538945557804374
-0.664142557338914,0.39626736481233293
-0.5789996966152711,0.49854267764051347
-0.41997625833248803,0.6017738345138173
-0.2848288603584515,0.6849322664395341
-0.2168046700448531,0.772869918590867
-0.24473513229282065,0.8550725064714606
-0.37943203894027705,0.9449218467130398
-0.5510692343673035,1.0156543060521555
-0.623147846620123,1.081607545165655
-0.5681879047773482,1.129399747421814
-0.5015151884434901,1.1848387020389588
-0.5154804195674738,1.2316750602499946
-0.5420594078357011,1.2871140148671392
-0.4979112578308491,1.3253477766720665
-0.41997625833248803,1.3559347861160085
-0.3906943221047801,1.3664490706123635
-0.37943203894027705,1.390345171740443
-0.31501177923931967,1.417108805003892
-0.2168046700448531,1.4591659429893122
-0.17716143330580236,1.479238667936899
-0.2168046700448531,1.4935763286137467
-0.2699626465813075,1.4878412643430077
-0.297893108829275,1.4935763286137467
-0.3506005940391493,1.489752952433254
-0.460520477724699,1.4935763286137467
-0.5425098991622812,1.4859295762527613
-0.460520477724699,1.4935763286137467
-0.24924004555862186,1.4926204845686235
-0.09472152054164008,1.4935763286137467
-0.14607753177177396,1.4725477596210368
-0.297893108829275,1.4591659429893122
-0.40556053588192414,1.4390932180417253
-0.41997625833248803,1.4247555573648776
-0.383035969552918,1.3884334836501966
-0.297893108829275,1.3559347861160085
-0.21094828279931152,1.316745180265958
-0.2168046700448531,1.2871140148671392
-0.31501177923931967,1.2460127209268423
-0.37943203894027705,1.2192490876633932
-0.39294677873768075,1.1838828579938356
-0.5015151884434901,1.1504283164145241
-0.7366716609183137,1.0921218296620099
-0.867314145626549,1.0471971595412204
-0.6961274415261027,1.0060958656009236
-0.2573488894370641,0.9793322323374745
0.42424448767866024,0.9267608098556993
1.572997370457971,0.8761010754641707
3.317750278302783,0.8177945887116566
5.19359616218241,0.772869918590867
6.260359623524138,0.715519275883476
5.885100348482897,0.6705946057626864
4.309281688105631,0.6256699356418968
2.427579416980462,0.6017738345138173
1.0103337035593987,0.5654517607991363
0.23098370857578798,0.5329530632649481
-0.17040406340710054,0.48994008123440486
-0.41997625833248803,0.4641322920160789
-0.5479157950812427,0.438324502797753
-0.5420594078357011,0.4297219063916443
-0.49475781854478823,0.4115608695343039
-0.5015151884434901,0.39626736481233293
-0.5551236563065246,0.3685478875037606
-0.582603627227912,0.36185697918789833
-0.5735938006963096,0.3580336030074056
-0.582603627227912,0.36185697918789833
-0.6429694649896484,0.3417842542403115
-0.704686776731125,0.3274465935634638
-0.7078402160171858,0.3150206209768624
-0.664142557338914,0.3274465935634638
-0.6686474706047153,0.3293582816537101
-0.745230996123336,0.3274465935634638
-0.8344282787862001,0.3045063364805074
-0.826769926234338,0.2930362079390292
-0.7537903313283583,0.28347776748779735
-0.704686776731125,0.2930362079390292
-0.726760851733551,0.2930362079390292
-0.745230996123336,0.2930362079390292
-0.6884690889742406,0.27296348299144235
-0.582603627227912,0.25862582231459463
-0.5249407374256564,0.23664140927676142
-0.5420594078357011,0.22421543669016003
-0.5785492052886909,0.2022310236523268
-0.582603627227912,0.18980505106572546
-0.5853065751873927,0.16877648207301543
-0.623147846620123,0.15539466544129088
-0.6722514012173563,0.13341025240345766
-0.664142557338914,0.12098427981685629
-0.6078311415163988,0.10186739891439263
-0.582603627227912,0.0875297382375449
-0.6326081644783055,0.06267779306434214
-0.664142557338914,0.053119352613110314
-0.5506187430407233,0.03782584789113939
-0.297893108829275,0.018708966988675736
-0.09246906390873948,-0.022392326951621123
-0.09472152054164008,-0.050111804260193425
-0.25960134606996466,-0.07114037325290344
-0.37943203894027705,-0.08452218988462801
-0.33978880220122637,-0.12084426359930894
-0.2168046700448531,-0.15334296113349716
-0.14562704044519384,-0.1801065943969463
-0.13526573993385105,-0.18775334675793173
-0.11589461289090582,-0.20591438361527223
-0.053726809822849,-0.22120788833724314
0.01339639783758915,-0.24319230137507633
0.068356339680364,-0.25561827396167774
0.1219648075433985,-0.2795143750897573
0.1899889978569969,-0.2900286595861123
0.26747350602877784,-0.29671956790197457
0.353066858079001,-0.2900286595861123
0.42289301369891985,-0.30341047621783684
0.4341552968634229,-0.3244390452105469
0.3634281585903438,-0.3531143665642424
0.27152792796799896,-0.35884943083498144
0.25531024021111454,-0.36076111892522783
0.353066858079001,-0.35884943083498144
0.4778529555416947,-0.37605462364719877
0.515694226974425,-0.39325981645941605
0.43190284023052233,-0.41524422949724926
0.3120721473602099,-0.4276702020838506
0.24269648306687114,-0.4573013674826693
0.23098370857578798,-0.4955351292875966
0.2210728993910253,-0.5423714874986325
0.1899889978569969,-0.5643559005364658
0.1489942871382058,-0.5806052493035598
0.10890055907257497,-0.5987662861609003
0.051237669270319385,-0.638911736056074
-0.013182590430638037,-0.6675870574097695
-0.045167474617826685,-0.6876597823573564
-0.013182590430638037,-0.7019974430342041
0.03456949018685487,-0.738319516748885
0.027361628961572924,-0.7708182142830732
-0.04426649196466644,-0.7947143154111528
-0.09472152054164008,-0.8042727558623847
-0.06949400625315326,-0.8262571689002178
-0.013182590430638037,-0.8386831414868192
-0.029400278187522423,-0.8453740498026815
-0.13526573993385105,-0.8386831414868192
-0.2559974154573237,-0.8530208021636669
-0.297893108829275,-0.8730935271112538
-0.2632052766826056,-0.8989013163295797
-0.2168046700448531,-0.9075039127356883
-0.22986891851567662,-0.9151506650966739
-0.297893108829275,-0.9075039127356883
-0.3578084552644312,-0.9065480686905651
-0.338437328221486,-0.9075039127356883
-0.2541954501510032,-0.9285324817283984
-0.175809959326062,-0.941914298360123
-0.1695030807539403,-0.9495610507211084
-0.2168046700448531,-0.941914298360123
-0.26275478535602553,-0.9438259864503693
-0.2573488894370641,-0.941914298360123
-0.194280103715847,-0.9447818304954925
-0.09472152054164008,-0.941914298360123
-0.019939960329339864,-0.9552961149918475
-0.013182590430638037,-0.9763246839845575
-0.06183565370129119,-1.00404416129313
-0.09472152054164008,-1.010735069608992
-0.09021660727583887,-1.0116909136541152
-0.09472152054164008,-1.010735069608992
-0.1523844103438957,-1.0298519505114558
-0.2168046700448531,-1.0451454552334267
-0.22446302259671516,-1.0537480516395352
-0.175809959326062,-1.0451454552334267
-0.1384191792199119,-1.0451454552334267
-0.13526573993385105,-1.0451454552334267
-0.1343647572806908,-1.052792207594412
-0.09472152054164008,-1.0451454552334267
-0.037509122065964615,-1.0346311707370717
-0.013182590430638037,-1.010735069608992
-0.05958319706839058,-0.994485720841898
-0.13526573993385105,-0.9763246839845575
-0.16139423687549811,-0.9686779316235721
-0.09472152054164008,-0.941914298360123
-0.009578659817997062,-0.9036805365551956
-0.013182590430638037,-0.8386831414868192
-0.1217510001364474,-0.7755974345086891
-0.2168046700448531,-0.7019974430342041
-0.2005869822879687,-0.6379558920109508
-0.09472152054164008,-0.5643559005364658
-0.0028212899192952357,-0.49171175310710385
0.027361628961572924,-0.39325981645941605
0.012495415184428905,-0.29289619172148185
-0.013182590430638037,-0.18775334675793173
-0.04426649196466644,-0.09408063033585984
-0.053726809822849,0.018708966988675736
-0.007776694511676575,0.13627778453882722
0.10890055907257497,0.25862582231459463
0.2499043442921531,0.3484751625561738
0.353066858079001,0.4297219063916443
0.36703208920298475,0.5052335859563758
0.3120721473602099,0.6017738345138173
0.25936466215033566,0.6868439545297805
0.27152792796799896,0.772869918590867
0.3129731300133701,0.8483815981555983
0.3120721473602099,0.9449218467130398
0.2710774366414188,1.0328594988643727
0.27152792796799896,1.1160179307900895
0.3147750953196906,1.175280261587727
0.3120721473602099,1.253659473287828
0.23413714786184883,1.3368179052135447
0.1899889978569969,1.4247555573648776
0.23909255245423017,1.4773269798466526
0.27152792796799896,1.5279867142381813
0.14178642591292387,1.5824698248102027
-0.09472152054164008,1.6646724126907964
-0.24608660627256101,1.724890587533557
-0.2168046700448531,1.7679035695641
-0.1154441215643257,1.787976294511687
-0.09472152054164008,1.8367243408129694
-0.18932469912346567,1.8883399192496213
-0.297893108829275,1.93899965364115
-0.3393383108746462,1.9533373143179977
-0.297893108829275,1.9734100392655844
-0.2271659705561959,1.9982619844387872
-0.13526573993385105,2.0422308105144538
-0.07805334145817558,2.061347691416917
-0.09472152054164008,2.076641196138888
-0.18842371647030542,2.0814204163645043
-0.2573488894370641,2.1110515817633226
-0.2433836583130803,2.1378152150267717
-0.175809959326062,2.1789165089670686
-0.11048871697194435,2.1989892339146557
-0.053726809822849,2.2133268945915034
-0.06318712768103156,2.2047242981853947
-0.2168046700448531,2.2133268945915034
-0.4609709690512791,2.2247970231329814
-0.582603627227912,2.247737280215938
-0.47448570884868274,2.2458255921256915
-0.2168046700448531,2.247737280215938
0.19539489377595837,2.242002215945199
1.044571044379488,2.247737280215938
2.5420042139318126,2.2305320874037204
4.38000882637871,2.2133268945915034
5.790947661227651,2.1875191053731773
6.128816156162743,2.1789165089670686
5.312525872399562,2.1511970316584965
3.8105877895814357,2.1110515817633226
2.265402539411618,2.0460541866949464
1.12565948316391,2.007820424890019
0.4625362504379706,1.9734100392655844
0.10890055907257497,1.93899965364115
-0.10147889044034192,1.8673113502569112
-0.2168046700448531,1.8023139551885348
-0.2744675598471087,1.7420957803457742
-0.338437328221486,1.699082798315231
-0.4262831369046097,1.6293061830212388
-0.460520477724699,1.562397099862616
-0.41637232771984706,1.4973997047942396
-0.37943203894027705,1.4591659429893122
-0.43709492874253264,1.4075503645526604
-0.5420594078357011,1.3559347861160085
-0.5992718063113766,1.2852023267768928
-0.582603627227912,1.2192490876633932
-0.5465643211015022,1.139914031918169
-0.5015151884434901,1.081607545165655
-0.4690798129297213,1.0261685905485103
-0.460520477724699,0.9793322323374745
-0.4852975006866057,0.9066880849081125
-0.460520477724699,0.841690689839736
-0.37267466904157526,0.7786049828616061
-0.297893108829275,0.7384595329664324
-0.3055514613811371,0.6858881104846573
-0.338437328221486,0.6361842201382518
-0.33393241495568476,0.5759660452954913
-0.297893108829275,0.5329530632649481
-0.24203218433333992,0.4794257967380498
-0.13526573993385105,0.4297219063916443
-0.04741993125072729,0.3685478875037606
-0.09472152054164008,0.3274465935634638
-0.2046414042271898,0.2882569877134133
-0.13526573993385105,0.25862582231459463
0.10484613713335388,0.20796608792306592
0.1899889978569969,0.15539466544129088
-0.0433655093115062,0.09613233464365353
-0.297893108829275,0.053119352613110314
-0.27536854250026893,0.000547930131335262
-0.09472152054164008,-0.050111804260193425
-0.040662561352025464,-0.1122416671932003
-0.09472152054164008,-0.15334296113349716
-0.07084548023289362,-0.1906208788933013
0.027361628961572924,-0.22120788833724314
0.04222784273871694,-0.27473515486414135
-0.013182590430638037,-0.3244390452105469
0.019703276409710854,-0.37031955937645966
0.1899889978569969,-0.39325981645941605
0.34180457491449795,-0.42575851399360426
0.353066858079001,-0.4620805877082852
0.27828529786670075,-0.507961101874198
0.27152792796799896,-0.5299455149120311
0.3778438810409077,-0.5481065517693716
0.515694226974425,-0.5643559005364658
0.5891243132069848,-0.6035455063865163
0.5967826657588469,-0.6331766717853349
0.5665997468779788,-0.6570727729134145
0.515694226974425,-0.6675870574097695
0.475150007582214,-0.6905273144927259
0.515694226974425,-0.7019974430342041
0.6139013361688915,-0.70677666325982
0.637777376477638,-0.7019974430342041
0.5147932443212647,-0.7192026358464214
0.39361107747121193,-0.7364078286586386
0.4688431290100923,-0.7478779572001168
0.71886581526206,-0.7364078286586386
0.8828446581372242,-0.732584452478146
0.759860525980851,-0.7364078286586386
0.41658613512679815,-0.7583922416964719
0.10890055907257497,-0.7708182142830732
-0.0028212899192952357,-0.7775091225989356
0.027361628961572924,-0.7708182142830732
0.0309655595742139,-0.7717740583281965
-0.053726809822849,-0.7708182142830732
-0.15373588432363605,-0.7775091225989356
-0.175809959326062,-0.7708182142830732
-0.1447260577920336,-0.7603039297867182
-0.13526573993385105,-0.7364078286586386
-0.18707224249056506,-0.7287610762976532
-0.2573488894370641,-0.7364078286586386
-0.2996950741355955,-0.7622156178769646
-0.297893108829275,-0.7708182142830732
-0.27942296443949005,-0.76986237023795
-0.2573488894370641,-0.7708182142830732
-0.2316708838219971,-0.7928026273209065
-0.2168046700448531,-0.8042727558623847
-0.28618033433819184,-0.806184443952631
-0.460520477724699,-0.8042727558623847
-0.6154894940682609,-0.8358156093514496
-0.582603627227912,-0.8730935271112538
-0.42853559353751036,-0.9017688484649493
-0.37943203894027705,-0.9075039127356883
-0.46953030425630143,-0.9237532615027825
-0.460520477724699,-0.941914298360123
-0.2650072419889261,-0.9648545554430793
-0.13526573993385105,-0.9763246839845575
-0.27672001648000927,-0.994485720841898
-0.5015151884434901,-1.010735069608992
-0.549267269060983,-1.0327194826468253
-0.460520477724699,-1.0451454552334267
-0.4082634838414049,-1.063306492090767
-0.37943203894027705,-1.078599996812738
-0.32492258842408234,-1.1015402538956944
-0.338437328221486,-1.1130103824371727
-0.46142146037785925,-1.1302155752493899
-0.5015151884434901,-1.1474207680616073
-0.3515015766923095,-1.182786997731165
-0.2168046700448531,-1.2162415393104764
-0.3069029353608775,-1.2535194570702806
-0.5015151884434901,-1.2850623105593455
-0.5880095231468735,-1.324251916409396
-0.582603627227912,-1.3538830818082148
-0.5988213149847964,-1.3777791829362942
-0.582603627227912,-1.387337623387526
-0.4591690037449586,-1.4064545042899899
-0.338437328221486,-1.4217480090119607
-0.38393695220607826,-1.4446882660949172
-0.5420594078357011,-1.4561583946363952
-0.6312566904985651,-1.4666726791327502
-0.582603627227912,-1.4561583946363952
-0.4875499573195063,-1.4437324220497938
-0.41997625833248803,-1.4217480090119607
-0.37492712567447584,-1.4102778804704825
-0.338437328221486,-1.387337623387526
-0.3510510853657294,-1.360573990124077
-0.41997625833248803,-1.3194726961837802
-0.46187195170443934,-1.287929842694715
-0.37943203894027705,-1.250651924934911
-0.2339233404548977,-1.2114623190848606
-0.175809959326062,-1.1474207680616073
-0.22176007463723443,-1.0814675289481077
-0.2168046700448531,-1.010735069608992
-0.13166180932121008,-0.9505168947662316
-0.13526573993385105,-0.8730935271112538
-0.29834360015585515,-0.7918467832757833
-0.41997625833248803,-0.7019974430342041
-0.3573579639378511,-0.6322208277402117
-0.2573488894370641,-0.5643559005364658
-0.297893108829275,-0.5022260376034589
-0.37943203894027705,-0.4276702020838506
-0.34339273281386734,-0.36076111892522783
-0.2573488894370641,-0.2900286595861123
-0.26410625933576587,-0.22694295260798222
-0.297893108829275,-0.15334296113349716
-0.22626498790303565,-0.08738972201999755
-0.09472152054164008,-0.015701418635758847
-0.05102386186336827,0.049295976432617586
-0.09472152054164008,0.12098427981685629
-0.12310247411618776,0.1764232344340009
-0.09472152054164008,0.22421543669016003
-0.03120224349384291,0.2528907580438555
0.068356339680364,0.2930362079390292
0.15845460499638836,0.3370050340146956
0.14944477846478593,0.39626736481233293
0.0413268600855567,0.4354569706623834
-0.013182590430638037,0.4641322920160789
0.05258914325005975,0.47369073246731075
0.10890055907257497,0.49854267764051347
0.020153767736290976,0.527217998994209
-0.13526573993385105,0.5673634488893826
-0.20779484351325067,0.595082926197955
-0.175809959326062,0.6361842201382518
-0.12670640472882874,0.6696387617175632
-0.09472152054164008,0.7040491473419977
-0.07895432411133582,0.7164751199285991
-0.09472152054164008,0.7384595329664324
-0.1361667225870113,0.7661790102750047
-0.13526573993385105,0.8072803042153015
-0.08030579809107619,0.825441341072642
-0.053726809822849,0.841690689839736
-0.10553331237956301,0.8502932862458448
-0.13526573993385105,0.8761010754641707
-0.05823172308865022,0.8904387361410184
0.068356339680364,0.9105114610886053
0.0845740274372484,0.920069901539837
-0.013182590430638037,0.9449218467130398
-0.1343647572806908,0.9602153514350108
-0.175809959326062,0.9793322323374745
-0.1384191792199119,0.977420544247228
-0.053726809822849,0.9793322323374745
0.014747871817329516,0.9707296359313657
0.027361628961572924,0.9793322323374745
-0.00912816849141694,0.977420544247228
-0.053726809822849,0.9793322323374745
-0.12625591340224862,0.9592595073898875
-0.2573488894370641,0.9449218467130398
-0.386639900165559,0.9210257455849603
-0.37943203894027705,0.9105114610886053
-0.21184926545247176,0.8885270480507721
0.068356339680364,0.8761010754641707
0.5846193999411836,0.8550725064714606
1.6545363005689728,0.841690689839736
3.322705682895164,0.8091919923055478
5.030518301960406,0.772869918590867
5.920238671956146,0.7269894044249542
5.559395119365469,0.7040491473419977
4.252519780956535,0.6849322664395341
2.712289935379099,0.6705946057626864
1.477042717896405,0.6314049999126359
0.678321595869849,0.6017738345138173
0.18097917132539446,0.5750102012503681
-0.13526573993385105,0.5673634488893826
-0.29428917821663403,0.537732283490564
-0.297893108829275,0.49854267764051347
-0.2352748144346381,0.44979463133923114
